Timestamp,Millis,thumb_tm_aa,thumb_tm_flex,thumb_mcp_aa,thumb_mcp_flex,index_mcp_aa,index_mcp_flex,index_pip,middle_mcp_aa,middle_mcp_flex,middle_pip,ring_mcp_aa,ring_mcp_flex,ring_pip,little_mcp_aa,little_mcp_flex,little_pip
Thu Dec 05 12:58:56 2024,415,-21.537,-21.537,0.882,0.882,0.457,22.566,8.527,2.734,17.049,10.848,-6.652,11.476,7.018,12.686,6.289,6.182
Thu Dec 05 12:58:56 2024,420,-21.538,-21.538,0.857,0.857,0.465,22.579,8.501,2.752,17.042,10.856,-6.665,11.454,7.028,12.720,6.292,6.252
Thu Dec 05 12:58:56 2024,425,-21.569,-21.569,0.887,0.887,0.450,22.687,8.487,2.750,17.059,10.771,-6.616,11.573,6.983,12.684,6.300,6.135
Thu Dec 05 12:58:56 2024,430,-21.605,-21.605,0.919,0.919,0.433,22.760,8.467,2.747,17.078,10.709,-6.581,11.656,6.938,12.650,6.312,6.036
Thu Dec 05 12:58:56 2024,435,-21.697,-21.697,1.000,1.000,0.389,22.661,8.394,2.729,17.139,10.738,-6.615,11.575,6.856,12.609,6.360,5.973
Thu Dec 05 12:58:56 2024,440,-21.780,-21.780,1.069,1.069,0.345,22.550,8.321,2.705,17.187,10.749,-6.642,11.500,6.789,12.565,6.404,5.921
Thu Dec 05 12:58:56 2024,445,-21.820,-21.820,1.088,1.088,0.314,22.390,8.251,2.661,17.195,10.679,-6.645,11.453,6.783,12.509,6.432,5.913
Thu Dec 05 12:58:56 2024,450,-21.859,-21.859,1.098,1.098,0.282,22.245,8.180,2.624,17.196,10.610,-6.644,11.419,6.784,12.454,6.456,5.901
Thu Dec 05 12:58:56 2024,455,-21.904,-21.904,1.073,1.073,0.245,22.306,8.140,2.663,17.202,10.635,-6.627,11.481,6.787,12.439,6.454,5.825
Thu Dec 05 12:58:56 2024,460,-21.936,-21.936,1.057,1.057,0.219,22.360,8.112,2.696,17.202,10.655,-6.613,11.528,6.784,12.433,6.448,5.765
Thu Dec 05 12:58:56 2024,465,-21.972,-21.972,1.100,1.100,0.189,22.298,8.057,2.692,17.209,10.599,-6.597,11.507,6.717,12.431,6.433,5.713
Thu Dec 05 12:58:56 2024,470,-22.002,-22.002,1.148,1.148,0.161,22.221,8.003,2.682,17.216,10.535,-6.583,11.475,6.647,12.429,6.416,5.669
Thu Dec 05 12:58:56 2024,475,-22.042,-22.042,1.171,1.171,0.167,22.242,8.037,2.703,17.197,10.538,-6.640,11.392,6.623,12.374,6.436,5.645
Thu Dec 05 12:58:56 2024,480,-22.086,-22.086,1.195,1.195,0.177,22.269,8.074,2.726,17.178,10.543,-6.706,11.303,6.600,12.314,6.459,5.620
Thu Dec 05 12:58:56 2024,485,-22.122,-22.122,1.217,1.217,0.187,22.239,8.005,2.702,17.208,10.503,-6.729,11.315,6.567,12.306,6.453,5.593
Thu Dec 05 12:58:56 2024,490,-22.159,-22.159,1.235,1.235,0.205,22.204,7.926,2.673,17.242,10.456,-6.749,11.336,6.530,12.304,6.440,5.560
Thu Dec 05 12:58:56 2024,495,-22.191,-22.191,1.223,1.223,0.255,22.210,7.915,2.673,17.237,10.431,-6.786,11.310,6.499,12.288,6.428,5.501
Thu Dec 05 12:58:56 2024,500,-22.222,-22.222,1.199,1.199,0.320,22.231,7.930,2.685,17.216,10.416,-6.828,11.269,6.470,12.266,6.416,5.434
Thu Dec 05 12:58:56 2024,505,-22.240,-22.240,1.181,1.181,0.360,22.208,7.906,2.740,17.172,10.431,-6.779,11.314,6.497,12.316,6.405,5.477
Thu Dec 05 12:58:56 2024,510,-22.254,-22.254,1.164,1.164,0.394,22.172,7.874,2.807,17.120,10.454,-6.705,11.383,6.540,12.386,6.394,5.550
Thu Dec 05 12:58:56 2024,515,-22.315,-22.315,1.159,1.159,0.356,22.200,7.923,2.819,17.127,10.528,-6.681,11.404,6.580,12.364,6.412,5.570
Thu Dec 05 12:58:56 2024,520,-22.407,-22.407,1.157,1.157,0.285,22.261,8.016,2.811,17.157,10.637,-6.673,11.410,6.630,12.300,6.447,5.571
Thu Dec 05 12:58:56 2024,525,-22.439,-22.439,1.162,1.162,0.243,22.192,7.950,2.785,17.189,10.613,-6.641,11.431,6.617,12.212,6.503,5.510
Thu Dec 05 12:58:56 2024,530,-22.457,-22.457,1.168,1.168,0.206,22.078,7.829,2.751,17.226,10.549,-6.599,11.459,6.585,12.107,6.571,5.426
Thu Dec 05 12:58:56 2024,535,-22.501,-22.501,1.184,1.184,0.148,22.006,7.737,2.737,17.240,10.476,-6.588,11.435,6.511,11.972,6.681,5.337
Thu Dec 05 12:58:56 2024,540,-22.548,-22.548,1.201,1.201,0.093,21.976,7.683,2.738,17.237,10.415,-6.596,11.388,6.431,11.854,6.788,5.265
Thu Dec 05 12:58:56 2024,545,-22.566,-22.566,1.220,1.220,0.087,21.910,7.639,2.764,17.204,10.392,-6.597,11.288,6.386,11.759,6.855,5.252
Thu Dec 05 12:58:56 2024,550,-22.566,-22.566,1.243,1.243,0.110,21.813,7.597,2.810,17.146,10.390,-6.592,11.143,6.358,11.669,6.903,5.272
Thu Dec 05 12:58:56 2024,555,-22.579,-22.579,1.271,1.271,0.140,21.801,7.579,2.810,17.136,10.362,-6.582,11.137,6.359,11.599,6.962,5.280
Thu Dec 05 12:58:56 2024,560,-22.601,-22.601,1.300,1.300,0.167,21.874,7.590,2.763,17.178,10.313,-6.570,11.272,6.387,11.559,7.023,5.273
Thu Dec 05 12:58:56 2024,565,-22.633,-22.633,1.322,1.322,0.207,21.913,7.612,2.776,17.159,10.286,-6.555,11.331,6.384,11.506,7.062,5.236
Thu Dec 05 12:58:56 2024,570,-22.682,-22.682,1.332,1.332,0.268,21.907,7.651,2.874,17.058,10.291,-6.536,11.290,6.335,11.431,7.070,5.156
Thu Dec 05 12:58:56 2024,575,-22.761,-22.761,1.361,1.361,0.262,21.858,7.697,2.882,17.046,10.319,-6.522,11.254,6.345,11.390,7.050,5.140
Thu Dec 05 12:58:56 2024,580,-22.862,-22.862,1.404,1.404,0.201,21.775,7.745,2.812,17.109,10.368,-6.514,11.224,6.405,11.381,7.008,5.179
Thu Dec 05 12:58:56 2024,585,-22.969,-22.969,1.451,1.451,0.152,21.703,7.789,2.769,17.149,10.419,-6.504,11.193,6.461,11.350,7.002,5.224
Thu Dec 05 12:58:56 2024,590,-23.085,-23.085,1.508,1.508,0.139,21.659,7.822,2.798,17.129,10.475,-6.489,11.161,6.506,11.264,7.093,5.283
Thu Dec 05 12:58:56 2024,595,-23.164,-23.164,1.543,1.543,0.152,21.652,7.832,2.824,17.108,10.477,-6.479,11.140,6.510,11.215,7.145,5.325
Thu Dec 05 12:58:56 2024,600,-23.200,-23.200,1.545,1.545,0.220,21.717,7.797,2.855,17.075,10.374,-6.481,11.131,6.436,11.221,7.142,5.348
Thu Dec 05 12:58:56 2024,605,-23.256,-23.256,1.563,1.563,0.262,21.748,7.753,2.854,17.072,10.298,-6.492,11.096,6.366,11.166,7.146,5.284
Thu Dec 05 12:58:56 2024,610,-23.339,-23.339,1.605,1.605,0.262,21.721,7.695,2.802,17.118,10.271,-6.519,11.025,6.304,11.017,7.157,5.085
Thu Dec 05 12:58:56 2024,615,-23.416,-23.416,1.653,1.653,0.256,21.660,7.646,2.767,17.151,10.257,-6.533,10.965,6.258,10.898,7.147,4.926
Thu Dec 05 12:58:56 2024,620,-23.446,-23.446,1.706,1.706,0.238,21.532,7.638,2.794,17.137,10.280,-6.514,10.969,6.271,10.909,7.106,4.934
Thu Dec 05 12:58:56 2024,625,-23.472,-23.472,1.753,1.753,0.219,21.439,7.627,2.815,17.127,10.296,-6.505,10.977,6.278,10.913,7.078,4.930
Thu Dec 05 12:58:56 2024,630,-23.495,-23.495,1.797,1.797,0.198,21.438,7.608,2.819,17.130,10.295,-6.528,11.000,6.264,10.894,7.092,4.886
Thu Dec 05 12:58:56 2024,635,-23.507,-23.507,1.818,1.818,0.181,21.498,7.599,2.820,17.133,10.296,-6.556,11.017,6.240,10.878,7.114,4.824
Thu Dec 05 12:58:56 2024,640,-23.491,-23.491,1.775,1.775,0.191,21.538,7.641,2.846,17.106,10.335,-6.534,10.982,6.234,10.922,7.078,4.801
Thu Dec 05 12:58:56 2024,645,-23.471,-23.471,1.725,1.725,0.201,21.585,7.686,2.873,17.077,10.377,-6.508,10.951,6.231,10.973,7.040,4.783
Thu Dec 05 12:58:56 2024,650,-23.404,-23.404,1.632,1.632,0.210,21.674,7.736,2.878,17.075,10.410,-6.448,11.093,6.326,11.074,7.054,4.926
Thu Dec 05 12:58:56 2024,655,-23.350,-23.350,1.562,1.562,0.214,21.734,7.770,2.881,17.072,10.432,-6.400,11.206,6.399,11.156,7.064,5.040
Thu Dec 05 12:58:56 2024,660,-23.367,-23.367,1.627,1.627,0.188,21.622,7.700,2.889,17.062,10.381,-6.418,11.174,6.339,11.144,7.072,4.978
Thu Dec 05 12:58:56 2024,665,-23.382,-23.382,1.683,1.683,0.164,21.524,7.638,2.895,17.052,10.337,-6.434,11.143,6.286,11.131,7.079,4.923
Thu Dec 05 12:58:56 2024,670,-23.366,-23.366,1.635,1.635,0.168,21.551,7.665,2.856,17.088,10.366,-6.437,11.152,6.308,11.215,7.060,4.964
Thu Dec 05 12:58:56 2024,675,-23.348,-23.348,1.579,1.579,0.172,21.590,7.700,2.816,17.125,10.400,-6.437,11.166,6.337,11.301,7.039,5.012
Thu Dec 05 12:58:56 2024,680,-23.395,-23.395,1.541,1.541,0.170,21.658,7.766,2.800,17.146,10.495,-6.449,11.154,6.385,11.351,6.982,5.020
Thu Dec 05 12:58:56 2024,685,-23.447,-23.447,1.509,1.509,0.167,21.724,7.829,2.789,17.163,10.588,-6.462,11.139,6.431,11.390,6.926,5.022
Thu Dec 05 12:58:56 2024,690,-23.446,-23.446,1.535,1.535,0.237,21.761,7.781,2.848,17.089,10.457,-6.441,11.090,6.323,11.449,6.830,4.941
Thu Dec 05 12:58:56 2024,695,-23.434,-23.434,1.573,1.573,0.326,21.799,7.710,2.923,16.992,10.278,-6.413,11.030,6.181,11.516,6.722,4.841
Thu Dec 05 12:58:56 2024,700,-23.433,-23.433,1.529,1.529,0.269,21.759,7.756,2.860,17.046,10.346,-6.464,11.000,6.239,11.625,6.676,4.938
Thu Dec 05 12:58:56 2024,705,-23.435,-23.435,1.464,1.464,0.179,21.704,7.828,2.765,17.133,10.466,-6.535,10.973,6.339,11.751,6.636,5.082
Thu Dec 05 12:58:56 2024,710,-23.461,-23.461,1.481,1.481,0.168,21.682,7.829,2.755,17.132,10.457,-6.593,10.930,6.356,11.802,6.625,5.139
Thu Dec 05 12:58:56 2024,715,-23.495,-23.495,1.516,1.516,0.169,21.665,7.817,2.759,17.114,10.421,-6.652,10.880,6.360,11.842,6.619,5.184
Thu Dec 05 12:58:56 2024,720,-23.508,-23.508,1.485,1.485,0.187,21.674,7.820,2.744,17.112,10.400,-6.678,10.853,6.353,11.928,6.530,5.192
Thu Dec 05 12:58:56 2024,725,-23.514,-23.514,1.438,1.438,0.209,21.690,7.828,2.725,17.115,10.385,-6.692,10.835,6.345,12.018,6.426,5.188
Thu Dec 05 12:58:56 2024,730,-23.497,-23.497,1.432,1.432,0.203,21.675,7.818,2.737,17.127,10.430,-6.703,10.839,6.361,12.142,6.369,5.242
Thu Dec 05 12:58:56 2024,735,-23.473,-23.473,1.441,1.441,0.188,21.649,7.801,2.759,17.140,10.495,-6.712,10.851,6.386,12.274,6.328,5.316
Thu Dec 05 12:58:56 2024,740,-23.476,-23.476,1.453,1.453,0.238,21.638,7.821,2.794,17.088,10.471,-6.716,10.818,6.331,12.358,6.213,5.266
Thu Dec 05 12:58:56 2024,745,-23.490,-23.490,1.463,1.463,0.304,21.637,7.853,2.827,17.016,10.414,-6.717,10.772,6.254,12.407,6.089,5.174
Thu Dec 05 12:58:56 2024,750,-23.495,-23.495,1.486,1.486,0.308,21.634,7.866,2.839,16.991,10.414,-6.700,10.810,6.275,12.409,6.070,5.172
Thu Dec 05 12:58:56 2024,755,-23.490,-23.490,1.520,1.520,0.258,21.629,7.865,2.835,17.003,10.458,-6.667,10.919,6.377,12.373,6.134,5.243
Thu Dec 05 12:58:56 2024,760,-23.488,-23.488,1.534,1.534,0.249,21.642,7.883,2.818,17.016,10.445,-6.654,11.002,6.398,12.353,6.154,5.226
Thu Dec 05 12:58:56 2024,765,-23.486,-23.486,1.538,1.538,0.270,21.677,7.925,2.782,17.034,10.380,-6.653,11.099,6.358,12.336,6.144,5.129
Thu Dec 05 12:58:56 2024,770,-23.487,-23.487,1.553,1.553,0.298,21.678,7.916,2.767,17.027,10.340,-6.670,11.049,6.320,12.327,6.145,5.124
Thu Dec 05 12:58:56 2024,775,-23.489,-23.489,1.578,1.578,0.339,21.658,7.874,2.762,17.002,10.308,-6.701,10.895,6.273,12.320,6.153,5.176
Thu Dec 05 12:58:56 2024,780,-23.485,-23.485,1.566,1.566,0.368,21.648,7.861,2.772,16.974,10.300,-6.716,10.790,6.238,12.321,6.142,5.199
Thu Dec 05 12:58:56 2024,785,-23.477,-23.477,1.524,1.524,0.372,21.653,7.881,2.793,16.959,10.319,-6.707,10.787,6.231,12.330,6.118,5.183
Thu Dec 05 12:58:56 2024,790,-23.489,-23.489,1.498,1.498,0.363,21.641,7.893,2.806,16.944,10.332,-6.713,10.773,6.239,12.330,6.106,5.191
Thu Dec 05 12:58:56 2024,795,-23.519,-23.519,1.505,1.505,0.345,21.614,7.889,2.805,16.936,10.331,-6.734,10.752,6.261,12.320,6.113,5.224
Thu Dec 05 12:58:56 2024,800,-23.541,-23.541,1.505,1.505,0.336,21.605,7.896,2.821,16.934,10.365,-6.739,10.737,6.287,12.326,6.100,5.244
Thu Dec 05 12:58:56 2024,805,-23.537,-23.537,1.493,1.493,0.354,21.637,7.922,2.866,16.943,10.454,-6.710,10.741,6.310,12.365,6.051,5.229
Thu Dec 05 12:58:56 2024,810,-23.544,-23.544,1.491,1.491,0.353,21.687,7.946,2.882,16.962,10.510,-6.711,10.756,6.335,12.356,6.064,5.235
Thu Dec 05 12:58:56 2024,815,-23.571,-23.571,1.506,1.506,0.320,21.767,7.963,2.848,17.008,10.508,-6.761,10.788,6.362,12.267,6.180,5.275
Thu Dec 05 12:58:56 2024,820,-23.582,-23.582,1.524,1.524,0.295,21.816,7.964,2.833,17.031,10.502,-6.797,10.801,6.372,12.201,6.261,5.302
Thu Dec 05 12:58:56 2024,825,-23.561,-23.561,1.550,1.550,0.285,21.803,7.931,2.857,17.010,10.486,-6.804,10.778,6.348,12.180,6.274,5.304
Thu Dec 05 12:58:56 2024,830,-23.544,-23.544,1.572,1.572,0.280,21.789,7.913,2.879,16.987,10.474,-6.804,10.773,6.339,12.164,6.281,5.306
Thu Dec 05 12:58:56 2024,835,-23.549,-23.549,1.572,1.572,0.313,21.767,7.982,2.884,16.956,10.485,-6.767,10.867,6.416,12.184,6.254,5.310
Thu Dec 05 12:58:56 2024,840,-23.548,-23.548,1.570,1.570,0.343,21.744,8.044,2.887,16.925,10.499,-6.743,10.934,6.484,12.197,6.234,5.328
Thu Dec 05 12:58:56 2024,845,-23.513,-23.513,1.561,1.561,0.360,21.708,8.067,2.877,16.904,10.529,-6.795,10.864,6.509,12.170,6.248,5.419
Thu Dec 05 12:58:56 2024,850,-23.485,-23.485,1.562,1.562,0.378,21.691,8.091,2.865,16.887,10.548,-6.839,10.806,6.529,12.146,6.266,5.502
Thu Dec 05 12:58:56 2024,855,-23.501,-23.501,1.604,1.604,0.383,21.764,8.103,2.852,16.908,10.513,-6.826,10.839,6.508,12.148,6.296,5.494
Thu Dec 05 12:58:56 2024,860,-23.520,-23.520,1.652,1.652,0.389,21.850,8.117,2.837,16.932,10.472,-6.811,10.877,6.485,12.151,6.331,5.484
Thu Dec 05 12:58:56 2024,865,-23.523,-23.523,1.656,1.656,0.400,21.762,8.072,2.872,16.920,10.515,-6.810,10.749,6.444,12.112,6.319,5.426
Thu Dec 05 12:58:56 2024,870,-23.525,-23.525,1.656,1.656,0.407,21.698,8.038,2.897,16.913,10.550,-6.810,10.649,6.412,12.084,6.312,5.386
Thu Dec 05 12:58:56 2024,875,-23.502,-23.502,1.589,1.589,0.372,21.768,8.045,2.870,16.964,10.563,-6.818,10.704,6.451,12.151,6.339,5.476
Thu Dec 05 12:58:56 2024,880,-23.475,-23.475,1.513,1.513,0.332,21.850,8.053,2.839,17.020,10.579,-6.826,10.765,6.494,12.226,6.367,5.580
Thu Dec 05 12:58:56 2024,885,-23.458,-23.458,1.511,1.511,0.298,21.822,8.054,2.847,17.024,10.603,-6.830,10.776,6.512,12.242,6.387,5.622
Thu Dec 05 12:58:56 2024,890,-23.446,-23.446,1.542,1.542,0.262,21.746,8.053,2.873,17.006,10.631,-6.832,10.768,6.518,12.236,6.406,5.640
Thu Dec 05 12:58:56 2024,895,-23.441,-23.441,1.551,1.551,0.280,21.754,8.062,2.905,16.985,10.675,-6.839,10.758,6.538,12.192,6.449,5.654
Thu Dec 05 12:58:56 2024,900,-23.443,-23.443,1.545,1.545,0.330,21.818,8.078,2.937,16.962,10.723,-6.848,10.748,6.565,12.131,6.503,5.663
Thu Dec 05 12:58:56 2024,905,-23.448,-23.448,1.533,1.533,0.329,21.847,8.060,2.941,16.960,10.686,-6.837,10.790,6.563,12.142,6.525,5.687
Thu Dec 05 12:58:56 2024,910,-23.456,-23.456,1.515,1.515,0.288,21.848,8.020,2.923,16.974,10.588,-6.812,10.867,6.538,12.207,6.520,5.719
Thu Dec 05 12:58:56 2024,915,-23.456,-23.456,1.505,1.505,0.291,21.852,8.011,2.940,16.950,10.578,-6.812,10.895,6.553,12.225,6.524,5.743
Thu Dec 05 12:58:56 2024,920,-23.446,-23.446,1.503,1.503,0.332,21.859,8.033,2.988,16.892,10.655,-6.838,10.871,6.604,12.195,6.537,5.756
Thu Dec 05 12:58:56 2024,925,-23.445,-23.445,1.524,1.524,0.356,21.864,8.054,3.003,16.858,10.658,-6.873,10.841,6.611,12.172,6.549,5.756
Thu Dec 05 12:58:56 2024,930,-23.461,-23.461,1.580,1.580,0.346,21.867,8.072,2.970,16.856,10.542,-6.923,10.802,6.548,12.160,6.560,5.734
Thu Dec 05 12:58:56 2024,935,-23.462,-23.462,1.598,1.598,0.370,21.888,8.084,2.961,16.850,10.484,-6.933,10.778,6.508,12.174,6.522,5.706
Thu Dec 05 12:58:56 2024,940,-23.444,-23.444,1.568,1.568,0.433,21.930,8.087,2.984,16.842,10.506,-6.893,10.777,6.501,12.218,6.431,5.678
Thu Dec 05 12:58:56 2024,945,-23.426,-23.426,1.550,1.550,0.463,21.947,8.084,2.988,16.853,10.531,-6.865,10.799,6.513,12.274,6.370,5.685
Thu Dec 05 12:58:56 2024,950,-23.400,-23.400,1.548,1.548,0.446,21.922,8.070,2.957,16.902,10.566,-6.848,10.869,6.563,12.367,6.348,5.756
Thu Dec 05 12:58:56 2024,955,-23.391,-23.391,1.570,1.570,0.444,21.925,8.067,2.946,16.916,10.577,-6.847,10.895,6.585,12.409,6.340,5.795
Thu Dec 05 12:58:56 2024,960,-23.408,-23.408,1.636,1.636,0.474,21.980,8.084,2.973,16.871,10.544,-6.870,10.847,6.553,12.369,6.355,5.777
Thu Dec 05 12:58:56 2024,965,-23.425,-23.425,1.687,1.687,0.490,22.004,8.093,2.986,16.839,10.510,-6.897,10.796,6.523,12.332,6.363,5.757
Thu Dec 05 12:58:56 2024,970,-23.432,-23.432,1.675,1.675,0.422,21.828,8.047,2.906,16.911,10.480,-6.948,10.740,6.512,12.360,6.324,5.756
Thu Dec 05 12:58:56 2024,975,-23.440,-23.440,1.673,1.673,0.374,21.712,8.014,2.854,16.962,10.460,-6.976,10.717,6.512,12.401,6.286,5.768
Thu Dec 05 12:58:56 2024,980,-23.456,-23.456,1.700,1.700,0.379,21.749,8.013,2.882,16.959,10.466,-6.930,10.786,6.542,12.490,6.249,5.826
Thu Dec 05 12:58:56 2024,985,-23.459,-23.459,1.714,1.714,0.384,21.785,8.002,2.918,16.948,10.467,-6.892,10.839,6.542,12.567,6.216,5.847
Thu Dec 05 12:58:56 2024,990,-23.421,-23.421,1.667,1.667,0.375,21.763,7.949,2.947,16.935,10.439,-6.909,10.798,6.429,12.566,6.210,5.715
Thu Dec 05 12:58:56 2024,995,-23.381,-23.381,1.627,1.627,0.364,21.727,7.899,2.973,16.921,10.413,-6.933,10.752,6.317,12.578,6.187,5.584
Thu Dec 05 12:58:57 2024,0,-23.388,-23.388,1.684,1.684,0.366,21.693,7.916,2.962,16.921,10.430,-6.945,10.768,6.358,12.664,6.104,5.628
Thu Dec 05 12:58:57 2024,5,-23.395,-23.395,1.727,1.727,0.364,21.669,7.932,2.948,16.927,10.444,-6.959,10.774,6.391,12.740,6.028,5.666
Thu Dec 05 12:58:57 2024,10,-23.397,-23.397,1.710,1.710,0.348,21.694,7.934,2.920,16.960,10.450,-6.986,10.724,6.378,12.772,5.989,5.672
Thu Dec 05 12:58:57 2024,15,-23.396,-23.396,1.678,1.678,0.336,21.735,7.944,2.907,16.984,10.464,-7.004,10.692,6.374,12.804,5.950,5.674
Thu Dec 05 12:58:57 2024,20,-23.386,-23.386,1.630,1.630,0.350,21.815,7.992,2.976,16.940,10.535,-6.969,10.790,6.444,12.873,5.882,5.676
Thu Dec 05 12:58:57 2024,25,-23.372,-23.372,1.577,1.577,0.373,21.908,8.051,3.070,16.874,10.622,-6.918,10.925,6.535,12.958,5.801,5.676
Thu Dec 05 12:58:57 2024,30,-23.352,-23.352,1.613,1.613,0.399,21.847,8.002,3.040,16.877,10.523,-6.941,10.873,6.455,12.983,5.699,5.566
Thu Dec 05 12:58:57 2024,35,-23.334,-23.334,1.644,1.644,0.420,21.795,7.960,3.014,16.874,10.436,-6.961,10.828,6.386,13.005,5.608,5.471
Thu Dec 05 12:58:57 2024,40,-23.339,-23.339,1.600,1.600,0.395,21.852,7.998,3.019,16.875,10.487,-6.967,10.866,6.446,13.017,5.621,5.516
Thu Dec 05 12:58:57 2024,45,-23.348,-23.348,1.544,1.544,0.362,21.927,8.048,3.030,16.877,10.560,-6.971,10.917,6.527,13.027,5.650,5.583
Thu Dec 05 12:58:57 2024,50,-23.340,-23.340,1.556,1.556,0.400,21.941,8.045,3.078,16.844,10.606,-6.987,10.865,6.519,13.012,5.679,5.607
Thu Dec 05 12:58:57 2024,55,-23.331,-23.331,1.583,1.583,0.447,21.936,8.030,3.122,16.810,10.632,-7.001,10.800,6.489,12.995,5.700,5.612
Thu Dec 05 12:58:57 2024,60,-23.339,-23.339,1.614,1.614,0.442,21.913,8.051,3.118,16.810,10.645,-7.030,10.783,6.512,12.938,5.746,5.626
Thu Dec 05 12:58:57 2024,65,-23.352,-23.352,1.638,1.638,0.422,21.891,8.080,3.098,16.820,10.650,-7.055,10.788,6.549,12.882,5.790,5.642
Thu Dec 05 12:58:57 2024,70,-23.345,-23.345,1.614,1.614,0.433,21.919,8.101,3.115,16.803,10.672,-7.040,10.796,6.578,12.880,5.808,5.690
Thu Dec 05 12:58:57 2024,75,-23.331,-23.331,1.570,1.570,0.458,21.971,8.124,3.149,16.771,10.703,-7.006,10.807,6.610,12.895,5.822,5.761
Thu Dec 05 12:58:57 2024,80,-23.336,-23.336,1.556,1.556,0.476,21.929,8.111,3.136,16.772,10.691,-7.012,10.781,6.615,12.903,5.852,5.824
Thu Dec 05 12:58:57 2024,85,-23.350,-23.350,1.557,1.557,0.478,21.844,8.076,3.101,16.787,10.647,-7.034,10.742,6.596,12.900,5.886,5.857
Thu Dec 05 12:58:57 2024,90,-23.358,-23.358,1.555,1.555,0.466,21.787,8.044,3.077,16.798,10.599,-7.045,10.720,6.570,12.891,5.907,5.852
Thu Dec 05 12:58:57 2024,95,-23.354,-23.354,1.546,1.546,0.431,21.770,8.014,3.070,16.804,10.546,-7.038,10.726,6.533,12.872,5.907,5.788
Thu Dec 05 12:58:57 2024,100,-23.357,-23.357,1.561,1.561,0.435,21.763,7.992,3.097,16.787,10.523,-7.022,10.722,6.500,12.843,5.896,5.723
Thu Dec 05 12:58:57 2024,105,-23.364,-23.364,1.595,1.595,0.472,21.766,7.980,3.147,16.751,10.534,-7.003,10.711,6.482,12.814,5.876,5.673
Thu Dec 05 12:58:57 2024,110,-23.379,-23.379,1.620,1.620,0.467,21.733,7.950,3.151,16.749,10.514,-6.989,10.720,6.464,12.811,5.883,5.659
Thu Dec 05 12:58:57 2024,115,-23.394,-23.394,1.628,1.628,0.437,21.689,7.920,3.125,16.772,10.481,-6.984,10.741,6.454,12.826,5.906,5.674
Thu Dec 05 12:58:57 2024,120,-23.400,-23.400,1.650,1.650,0.410,21.660,7.916,3.104,16.785,10.472,-6.985,10.720,6.459,12.811,5.935,5.710
Thu Dec 05 12:58:57 2024,125,-23.391,-23.391,1.680,1.680,0.397,21.657,7.948,3.099,16.785,10.497,-6.994,10.652,6.480,12.760,5.968,5.764
Thu Dec 05 12:58:57 2024,130,-23.390,-23.390,1.695,1.695,0.410,21.657,7.955,3.115,16.764,10.500,-6.993,10.615,6.478,12.741,5.976,5.772
Thu Dec 05 12:58:57 2024,135,-23.396,-23.396,1.698,1.698,0.445,21.661,7.942,3.151,16.726,10.485,-6.983,10.602,6.457,12.747,5.963,5.743
Thu Dec 05 12:58:57 2024,140,-23.396,-23.396,1.685,1.685,0.449,21.637,7.923,3.156,16.714,10.450,-6.985,10.587,6.424,12.736,5.955,5.697
Thu Dec 05 12:58:57 2024,145,-23.387,-23.387,1.648,1.648,0.406,21.570,7.894,3.114,16.742,10.384,-7.006,10.570,6.374,12.701,5.954,5.626
Thu Dec 05 12:58:57 2024,150,-23.366,-23.366,1.623,1.623,0.407,21.549,7.879,3.116,16.731,10.375,-6.994,10.580,6.372,12.691,5.945,5.592
Thu Dec 05 12:58:57 2024,155,-23.332,-23.332,1.616,1.616,0.462,21.587,7.882,3.170,16.673,10.437,-6.942,10.620,6.429,12.714,5.927,5.608
Thu Dec 05 12:58:57 2024,160,-23.308,-23.308,1.610,1.610,0.480,21.602,7.882,3.195,16.648,10.469,-6.916,10.638,6.460,12.723,5.930,5.631
Thu Dec 05 12:58:57 2024,165,-23.300,-23.300,1.604,1.604,0.402,21.556,7.873,3.148,16.711,10.428,-6.955,10.597,6.423,12.695,5.996,5.683
Thu Dec 05 12:58:57 2024,170,-23.279,-23.279,1.596,1.596,0.376,21.541,7.869,3.131,16.732,10.405,-6.966,10.581,6.417,12.686,6.023,5.726
Thu Dec 05 12:58:57 2024,175,-23.217,-23.217,1.582,1.582,0.490,21.607,7.882,3.196,16.639,10.427,-6.902,10.631,6.501,12.734,5.948,5.759
Thu Dec 05 12:58:57 2024,180,-23.167,-23.167,1.562,1.562,0.564,21.640,7.897,3.233,16.572,10.440,-6.865,10.654,6.559,12.757,5.903,5.788
Thu Dec 05 12:58:57 2024,185,-23.154,-23.154,1.532,1.532,0.536,21.585,7.917,3.201,16.575,10.431,-6.893,10.616,6.551,12.719,5.929,5.802
Thu Dec 05 12:58:57 2024,190,-23.140,-23.140,1.503,1.503,0.513,21.544,7.940,3.172,16.578,10.429,-6.916,10.589,6.549,12.686,5.954,5.822
Thu Dec 05 12:58:57 2024,195,-23.116,-23.116,1.493,1.493,0.570,21.708,7.996,3.204,16.603,10.510,-6.868,10.706,6.631,12.720,5.967,5.905
Thu Dec 05 12:58:57 2024,200,-23.100,-23.100,1.500,1.500,0.610,21.819,8.035,3.221,16.617,10.559,-6.842,10.777,6.682,12.728,5.984,5.955
Thu Dec 05 12:58:57 2024,205,-23.109,-23.109,1.582,1.582,0.609,21.774,8.027,3.179,16.616,10.500,-6.895,10.698,6.628,12.634,6.023,5.894
Thu Dec 05 12:58:57 2024,210,-23.120,-23.120,1.662,1.662,0.597,21.706,8.010,3.132,16.614,10.436,-6.952,10.608,6.566,12.529,6.072,5.826
Thu Dec 05 12:58:57 2024,215,-23.122,-23.122,1.648,1.648,0.568,21.657,7.989,3.115,16.657,10.451,-6.959,10.598,6.569,12.462,6.160,5.838
Thu Dec 05 12:58:57 2024,220,-23.126,-23.126,1.628,1.628,0.539,21.610,7.968,3.105,16.697,10.472,-6.956,10.593,6.575,12.405,6.235,5.848
Thu Dec 05 12:58:57 2024,225,-23.140,-23.140,1.660,1.660,0.533,21.566,7.967,3.115,16.676,10.461,-6.934,10.549,6.552,12.398,6.182,5.784
Thu Dec 05 12:58:57 2024,230,-23.155,-23.155,1.695,1.695,0.528,21.523,7.962,3.124,16.654,10.442,-6.914,10.502,6.525,12.395,6.122,5.721
Thu Dec 05 12:58:57 2024,235,-23.160,-23.160,1.711,1.711,0.500,21.451,7.872,3.099,16.681,10.380,-6.929,10.455,6.469,12.345,6.161,5.734
Thu Dec 05 12:58:57 2024,240,-23.164,-23.164,1.722,1.722,0.472,21.386,7.782,3.072,16.713,10.320,-6.946,10.416,6.417,12.297,6.210,5.757
Thu Dec 05 12:58:57 2024,245,-23.165,-23.165,1.725,1.725,0.483,21.432,7.803,3.104,16.699,10.340,-6.933,10.448,6.419,12.332,6.206,5.760
Thu Dec 05 12:58:57 2024,250,-23.165,-23.165,1.727,1.727,0.506,21.514,7.858,3.156,16.669,10.386,-6.910,10.505,6.437,12.394,6.186,5.757
Thu Dec 05 12:58:57 2024,255,-23.129,-23.129,1.722,1.722,0.502,21.506,7.816,3.191,16.651,10.385,-6.863,10.543,6.452,12.439,6.174,5.791
Thu Dec 05 12:58:57 2024,260,-23.087,-23.087,1.716,1.716,0.497,21.488,7.761,3.226,16.633,10.379,-6.811,10.582,6.468,12.485,6.161,5.831
Thu Dec 05 12:58:57 2024,265,-23.100,-23.100,1.756,1.756,0.517,21.484,7.781,3.240,16.622,10.428,-6.829,10.564,6.489,12.467,6.174,5.833
Thu Dec 05 12:58:57 2024,270,-23.128,-23.128,1.811,1.811,0.546,21.485,7.822,3.249,16.613,10.494,-6.867,10.531,6.514,12.431,6.194,5.825
Thu Dec 05 12:58:57 2024,275,-23.097,-23.097,1.749,1.749,0.528,21.515,7.803,3.215,16.649,10.460,-6.837,10.604,6.537,12.460,6.185,5.831
Thu Dec 05 12:58:57 2024,280,-23.054,-23.054,1.662,1.662,0.500,21.552,7.771,3.171,16.694,10.404,-6.792,10.701,6.560,12.502,6.168,5.840
Thu Dec 05 12:58:57 2024,285,-23.012,-23.012,1.664,1.664,0.498,21.550,7.741,3.165,16.698,10.371,-6.806,10.713,6.538,12.464,6.211,5.829
Thu Dec 05 12:58:57 2024,290,-22.979,-22.979,1.697,1.697,0.507,21.534,7.717,3.173,16.687,10.351,-6.836,10.693,6.503,12.404,6.265,5.814
Thu Dec 05 12:58:57 2024,295,-22.956,-22.956,1.641,1.641,0.497,21.468,7.716,3.187,16.674,10.396,-6.833,10.696,6.510,12.396,6.270,5.783
Thu Dec 05 12:58:57 2024,300,-22.940,-22.940,1.564,1.564,0.482,21.396,7.724,3.201,16.662,10.456,-6.822,10.706,6.528,12.405,6.260,5.751
Thu Dec 05 12:58:57 2024,305,-22.937,-22.937,1.546,1.546,0.444,21.353,7.720,3.202,16.656,10.459,-6.836,10.657,6.533,12.402,6.248,5.756
Thu Dec 05 12:58:57 2024,310,-22.942,-22.942,1.569,1.569,0.401,21.340,7.711,3.197,16.655,10.427,-6.865,10.581,6.529,12.391,6.239,5.783
Thu Dec 05 12:58:57 2024,315,-22.973,-22.973,1.618,1.618,0.407,21.392,7.725,3.222,16.639,10.423,-6.854,10.564,6.523,12.401,6.230,5.787
Thu Dec 05 12:58:57 2024,320,-23.022,-23.022,1.681,1.681,0.459,21.492,7.757,3.269,16.611,10.446,-6.810,10.606,6.517,12.428,6.223,5.768
Thu Dec 05 12:58:57 2024,325,-23.027,-23.027,1.656,1.656,0.482,21.456,7.719,3.294,16.588,10.441,-6.772,10.618,6.528,12.430,6.194,5.732
Thu Dec 05 12:58:57 2024,330,-22.995,-22.995,1.565,1.565,0.475,21.316,7.630,3.295,16.572,10.414,-6.746,10.603,6.550,12.412,6.149,5.687
Thu Dec 05 12:58:57 2024,335,-22.974,-22.974,1.516,1.516,0.506,21.249,7.587,3.328,16.538,10.432,-6.707,10.582,6.574,12.417,6.101,5.670
Thu Dec 05 12:58:57 2024,340,-22.969,-22.969,1.526,1.526,0.579,21.278,7.605,3.400,16.480,10.508,-6.652,10.554,6.600,12.450,6.053,5.691
Thu Dec 05 12:58:57 2024,345,-22.977,-22.977,1.530,1.530,0.604,21.250,7.578,3.419,16.464,10.533,-6.629,10.522,6.613,12.473,6.021,5.690
Thu Dec 05 12:58:57 2024,350,-23.004,-23.004,1.526,1.526,0.571,21.144,7.492,3.373,16.498,10.499,-6.642,10.484,6.612,12.484,6.005,5.664
Thu Dec 05 12:58:57 2024,355,-23.023,-23.023,1.522,1.522,0.549,21.051,7.435,3.361,16.496,10.461,-6.636,10.433,6.608,12.498,6.001,5.694
Thu Dec 05 12:58:57 2024,360,-23.035,-23.035,1.515,1.515,0.542,20.974,7.418,3.401,16.438,10.414,-6.599,10.357,6.601,12.517,6.017,5.819
Thu Dec 05 12:58:57 2024,365,-23.014,-23.014,1.498,1.498,0.539,20.935,7.405,3.435,16.397,10.389,-6.582,10.328,6.601,12.552,6.020,5.909
Thu Dec 05 12:58:57 2024,370,-22.947,-22.947,1.462,1.462,0.537,20.941,7.396,3.470,16.369,10.386,-6.588,10.356,6.610,12.616,6.006,5.976
Thu Dec 05 12:58:57 2024,375,-22.900,-22.900,1.422,1.422,0.542,20.974,7.385,3.489,16.356,10.380,-6.592,10.375,6.609,12.657,5.990,5.997
Thu Dec 05 12:58:57 2024,380,-22.912,-22.912,1.357,1.357,0.567,21.119,7.373,3.451,16.395,10.354,-6.585,10.368,6.564,12.622,5.970,5.864
Thu Dec 05 12:58:57 2024,385,-22.924,-22.924,1.312,1.312,0.581,21.195,7.367,3.448,16.400,10.358,-6.570,10.351,6.551,12.618,5.930,5.781
Thu Dec 05 12:58:57 2024,390,-22.934,-22.934,1.306,1.306,0.574,21.131,7.378,3.514,16.338,10.417,-6.536,10.313,6.597,12.676,5.856,5.800
Thu Dec 05 12:58:57 2024,395,-22.941,-22.941,1.298,1.298,0.568,21.080,7.402,3.574,16.280,10.481,-6.507,10.284,6.655,12.732,5.788,5.833
Thu Dec 05 12:58:57 2024,400,-22.932,-22.932,1.287,1.287,0.566,21.109,7.458,3.575,16.280,10.521,-6.513,10.309,6.718,12.741,5.789,5.895
Thu Dec 05 12:58:57 2024,405,-22.926,-22.926,1.285,1.285,0.558,21.124,7.494,3.571,16.286,10.549,-6.516,10.328,6.764,12.746,5.796,5.946
Thu Dec 05 12:58:57 2024,410,-22.927,-22.927,1.331,1.331,0.502,21.074,7.464,3.536,16.335,10.551,-6.511,10.338,6.762,12.729,5.848,5.996
Thu Dec 05 12:58:57 2024,415,-22.921,-22.921,1.361,1.361,0.458,21.041,7.437,3.506,16.375,10.549,-6.507,10.348,6.759,12.717,5.888,6.035
Thu Dec 05 12:58:57 2024,420,-22.842,-22.842,1.236,1.236,0.511,21.146,7.426,3.524,16.346,10.514,-6.515,10.355,6.744,12.748,5.823,5.962
Thu Dec 05 12:58:57 2024,425,-22.768,-22.768,1.118,1.118,0.561,21.246,7.415,3.540,16.320,10.482,-6.524,10.358,6.729,12.774,5.765,5.895
Thu Dec 05 12:58:57 2024,430,-22.797,-22.797,1.146,1.146,0.510,21.212,7.423,3.487,16.364,10.507,-6.566,10.282,6.711,12.702,5.873,5.961
Thu Dec 05 12:58:57 2024,435,-22.826,-22.826,1.177,1.177,0.460,21.183,7.432,3.434,16.408,10.532,-6.606,10.212,6.695,12.633,5.978,6.026
Thu Dec 05 12:58:57 2024,440,-22.863,-22.863,1.263,1.263,0.481,21.278,7.456,3.417,16.440,10.535,-6.571,10.329,6.735,12.674,5.969,6.046
Thu Dec 05 12:58:57 2024,445,-22.894,-22.894,1.332,1.332,0.498,21.356,7.476,3.403,16.466,10.535,-6.542,10.426,6.764,12.709,5.960,6.060
Thu Dec 05 12:58:57 2024,450,-22.921,-22.921,1.313,1.313,0.470,21.358,7.481,3.394,16.468,10.495,-6.535,10.439,6.705,12.746,5.938,6.020
Thu Dec 05 12:58:57 2024,455,-22.949,-22.949,1.282,1.282,0.434,21.352,7.484,3.386,16.466,10.447,-6.529,10.442,6.631,12.787,5.912,5.970
Thu Dec 05 12:58:57 2024,460,-22.922,-22.922,1.295,1.295,0.426,21.293,7.480,3.393,16.444,10.431,-6.549,10.452,6.626,12.762,5.948,5.955
Thu Dec 05 12:58:57 2024,465,-22.895,-22.895,1.310,1.310,0.420,21.237,7.476,3.401,16.422,10.419,-6.568,10.460,6.627,12.735,5.983,5.944
Thu Dec 05 12:58:57 2024,470,-22.888,-22.888,1.264,1.264,0.449,21.257,7.503,3.385,16.409,10.448,-6.561,10.459,6.647,12.752,5.936,5.936
Thu Dec 05 12:58:57 2024,475,-22.889,-22.889,1.202,1.202,0.486,21.301,7.537,3.362,16.399,10.487,-6.546,10.455,6.671,12.781,5.866,5.930
Thu Dec 05 12:58:57 2024,480,-22.906,-22.906,1.210,1.210,0.482,21.319,7.572,3.343,16.388,10.475,-6.571,10.456,6.691,12.776,5.867,5.960
Thu Dec 05 12:58:57 2024,485,-22.930,-22.930,1.250,1.250,0.459,21.325,7.607,3.327,16.377,10.440,-6.613,10.459,6.709,12.755,5.898,6.006
Thu Dec 05 12:58:57 2024,490,-22.903,-22.903,1.257,1.257,0.438,21.368,7.657,3.270,16.455,10.450,-6.642,10.474,6.709,12.763,5.889,5.990
Thu Dec 05 12:58:57 2024,495,-22.869,-22.869,1.252,1.252,0.424,21.411,7.697,3.219,16.535,10.470,-6.659,10.488,6.703,12.777,5.870,5.960
Thu Dec 05 12:58:57 2024,500,-22.851,-22.851,1.259,1.259,0.437,21.495,7.711,3.227,16.546,10.454,-6.662,10.558,6.699,12.795,5.875,5.973
Thu Dec 05 12:58:57 2024,505,-22.844,-22.844,1.274,1.274,0.468,21.604,7.707,3.276,16.507,10.413,-6.654,10.664,6.696,12.817,5.894,6.014
Thu Dec 05 12:58:57 2024,510,-22.814,-22.814,1.224,1.224,0.436,21.623,7.778,3.268,16.482,10.433,-6.691,10.669,6.738,12.816,5.919,6.088
Thu Dec 05 12:58:57 2024,515,-22.771,-22.771,1.133,1.133,0.369,21.593,7.894,3.230,16.457,10.488,-6.755,10.620,6.807,12.800,5.948,6.186
Thu Dec 05 12:58:57 2024,520,-22.751,-22.751,1.079,1.079,0.350,21.643,7.957,3.177,16.500,10.482,-6.779,10.692,6.818,12.803,5.951,6.167
Thu Dec 05 12:58:57 2024,525,-22.746,-22.746,1.048,1.048,0.359,21.726,7.984,3.125,16.575,10.445,-6.779,10.819,6.797,12.814,5.940,6.087
Thu Dec 05 12:58:57 2024,530,-22.728,-22.728,1.077,1.077,0.394,21.804,7.980,3.176,16.575,10.454,-6.778,10.852,6.779,12.819,5.948,6.088
Thu Dec 05 12:58:57 2024,535,-22.701,-22.701,1.145,1.145,0.445,21.876,7.955,3.296,16.516,10.495,-6.777,10.819,6.763,12.819,5.971,6.144
Thu Dec 05 12:58:57 2024,540,-22.682,-22.682,1.137,1.137,0.410,21.982,8.051,3.392,16.452,10.601,-6.807,10.853,6.848,12.877,5.955,6.229
Thu Dec 05 12:58:57 2024,545,-22.681,-22.681,1.066,1.066,0.314,22.073,8.210,3.419,16.424,10.713,-6.851,10.929,6.982,12.960,5.911,6.298
Thu Dec 05 12:58:57 2024,550,-22.704,-22.704,1.048,1.048,0.278,22.154,8.334,3.444,16.396,10.788,-6.873,10.954,7.042,13.020,5.849,6.320
Thu Dec 05 12:58:57 2024,555,-22.748,-22.748,1.109,1.109,0.334,22.177,8.354,3.452,16.381,10.776,-6.856,10.906,6.979,13.020,5.792,6.268
Thu Dec 05 12:58:57 2024,560,-22.789,-22.789,1.138,1.138,0.346,22.184,8.368,3.457,16.379,10.777,-6.860,10.858,6.930,12.998,5.764,6.218
Thu Dec 05 12:58:57 2024,565,-22.827,-22.827,1.102,1.102,0.258,22.154,8.372,3.458,16.405,10.805,-6.904,10.811,6.910,12.927,5.800,6.168
Thu Dec 05 12:58:57 2024,570,-22.842,-22.842,1.088,1.088,0.244,22.179,8.403,3.500,16.379,10.848,-6.926,10.795,6.921,12.906,5.817,6.165
Thu Dec 05 12:58:57 2024,575,-22.834,-22.834,1.099,1.099,0.323,22.287,8.485,3.615,16.275,10.929,-6.925,10.815,6.976,12.942,5.816,6.224
Thu Dec 05 12:58:57 2024,580,-22.829,-22.829,1.105,1.105,0.371,22.381,8.567,3.656,16.224,10.965,-6.924,10.827,7.022,12.960,5.804,6.276
Thu Dec 05 12:58:57 2024,585,-22.829,-22.829,1.103,1.103,0.374,22.445,8.642,3.590,16.249,10.936,-6.919,10.828,7.050,12.950,5.779,6.313
Thu Dec 05 12:58:57 2024,590,-22.833,-22.833,1.090,1.090,0.382,22.498,8.706,3.558,16.256,10.934,-6.922,10.818,7.072,12.942,5.758,6.342
Thu Dec 05 12:58:57 2024,595,-22.852,-22.852,1.050,1.050,0.404,22.502,8.718,3.637,16.223,11.014,-6.941,10.780,7.070,12.942,5.754,6.337
Thu Dec 05 12:58:57 2024,600,-22.866,-22.866,1.036,1.036,0.413,22.495,8.716,3.693,16.197,11.066,-6.970,10.741,7.066,12.938,5.768,6.341
Thu Dec 05 12:58:57 2024,605,-22.880,-22.880,1.086,1.086,0.407,22.485,8.703,3.697,16.194,11.044,-7.006,10.707,7.052,12.926,5.809,6.364
Thu Dec 05 12:58:57 2024,610,-22.909,-22.909,1.128,1.128,0.426,22.514,8.732,3.706,16.177,11.017,-7.005,10.691,7.032,12.922,5.808,6.370
Thu Dec 05 12:58:57 2024,615,-22.938,-22.938,1.169,1.169,0.444,22.543,8.760,3.715,16.161,10.991,-7.004,10.676,7.012,12.918,5.807,6.376
Thu Dec 05 12:58:57 2024,620,-22.967,-22.967,1.210,1.210,0.462,22.572,8.789,3.724,16.145,10.965,-7.003,10.660,6.992,12.914,5.806,6.382
Thu Dec 05 12:58:57 2024,625,-22.993,-22.993,1.237,1.237,0.488,22.584,8.808,3.728,16.127,10.950,-7.001,10.638,6.962,12.888,5.802,6.337
Thu Dec 05 12:58:57 2024,630,-23.027,-23.027,1.234,1.234,0.523,22.560,8.806,3.713,16.114,10.954,-6.998,10.601,6.922,12.822,5.800,6.216
Thu Dec 05 12:58:57 2024,635,-23.062,-23.062,1.201,1.201,0.495,22.518,8.767,3.646,16.157,10.953,-6.998,10.589,6.971,12.835,5.830,6.288
Thu Dec 05 12:58:57 2024,640,-23.092,-23.092,1.172,1.172,0.469,22.481,8.731,3.585,16.196,10.952,-6.997,10.580,7.019,12.849,5.857,6.357
Thu Dec 05 12:58:57 2024,645,-23.098,-23.098,1.171,1.171,0.502,22.540,8.729,3.602,16.208,10.898,-6.967,10.676,6.963,12.883,5.836,6.296
Thu Dec 05 12:58:57 2024,650,-23.099,-23.099,1.176,1.176,0.550,22.622,8.734,3.636,16.214,10.829,-6.928,10.798,6.884,12.922,5.803,6.203
Thu Dec 05 12:58:57 2024,655,-23.127,-23.127,1.170,1.170,0.508,22.569,8.756,3.589,16.264,10.901,-6.935,10.773,6.928,12.927,5.813,6.243
Thu Dec 05 12:58:57 2024,660,-23.156,-23.156,1.164,1.164,0.462,22.508,8.779,3.538,16.318,10.978,-6.944,10.741,6.978,12.930,5.824,6.289
Thu Dec 05 12:58:57 2024,665,-23.176,-23.176,1.142,1.142,0.429,22.448,8.699,3.491,16.372,10.968,-6.968,10.723,6.966,12.856,5.920,6.263
Thu Dec 05 12:58:57 2024,670,-23.188,-23.188,1.115,1.115,0.416,22.386,8.545,3.457,16.416,10.883,-7.004,10.703,6.899,12.731,6.076,6.196
Thu Dec 05 12:58:57 2024,675,-23.206,-23.206,1.121,1.121,0.428,22.311,8.459,3.448,16.416,10.826,-7.030,10.627,6.848,12.677,6.170,6.233
Thu Dec 05 12:58:57 2024,680,-23.231,-23.231,1.153,1.153,0.461,22.217,8.414,3.458,16.381,10.780,-7.051,10.495,6.801,12.668,6.229,6.355
Thu Dec 05 12:58:57 2024,685,-23.223,-23.223,1.202,1.202,0.442,22.119,8.375,3.422,16.414,10.743,-7.029,10.531,6.793,12.616,6.251,6.307
Thu Dec 05 12:58:57 2024,690,-23.206,-23.206,1.252,1.252,0.408,22.027,8.340,3.374,16.465,10.712,-6.995,10.617,6.798,12.553,6.259,6.211
Thu Dec 05 12:58:57 2024,695,-23.197,-23.197,1.242,1.242,0.434,21.955,8.302,3.388,16.439,10.691,-6.998,10.562,6.759,12.490,6.307,6.162
Thu Dec 05 12:58:57 2024,700,-23.192,-23.192,1.218,1.218,0.473,21.899,8.267,3.418,16.393,10.674,-7.012,10.475,6.713,12.436,6.359,6.133
Thu Dec 05 12:58:57 2024,705,-23.200,-23.200,1.255,1.255,0.489,21.915,8.267,3.425,16.403,10.676,-7.004,10.524,6.736,12.416,6.407,6.163
Thu Dec 05 12:58:57 2024,710,-23.215,-23.215,1.317,1.317,0.491,21.966,8.282,3.420,16.442,10.689,-6.984,10.640,6.793,12.417,6.446,6.217
Thu Dec 05 12:58:57 2024,715,-23.224,-23.224,1.318,1.318,0.498,21.963,8.264,3.421,16.464,10.715,-6.958,10.686,6.810,12.398,6.458,6.195
Thu Dec 05 12:58:57 2024,720,-23.227,-23.227,1.281,1.281,0.508,21.929,8.227,3.427,16.472,10.743,-6.932,10.683,6.799,12.370,6.452,6.131
Thu Dec 05 12:58:57 2024,725,-23.252,-23.252,1.271,1.271,0.535,21.934,8.184,3.409,16.504,10.758,-6.906,10.700,6.797,12.350,6.486,6.102
Thu Dec 05 12:58:57 2024,730,-23.282,-23.282,1.285,1.285,0.564,21.966,8.152,3.379,16.541,10.760,-6.890,10.722,6.800,12.344,6.536,6.110
Thu Dec 05 12:58:57 2024,735,-23.322,-23.322,1.333,1.333,0.550,21.806,8.101,3.332,16.569,10.729,-6.890,10.665,6.794,12.323,6.586,6.178
Thu Dec 05 12:58:57 2024,740,-23.355,-23.355,1.390,1.390,0.515,21.574,8.052,3.288,16.584,10.686,-6.899,10.574,6.785,12.298,6.623,6.265
Thu Dec 05 12:58:57 2024,745,-23.378,-23.378,1.418,1.418,0.509,21.497,8.066,3.277,16.565,10.662,-6.901,10.570,6.800,12.272,6.661,6.303
Thu Dec 05 12:58:57 2024,750,-23.401,-23.401,1.442,1.442,0.515,21.494,8.112,3.279,16.531,10.642,-6.901,10.612,6.827,12.243,6.702,6.312
Thu Dec 05 12:58:57 2024,755,-23.419,-23.419,1.487,1.487,0.515,21.531,8.137,3.277,16.523,10.619,-6.904,10.668,6.836,12.217,6.723,6.276
Thu Dec 05 12:58:57 2024,760,-23.440,-23.440,1.581,1.581,0.497,21.587,8.120,3.257,16.557,10.577,-6.914,10.730,6.814,12.189,6.723,6.183
Thu Dec 05 12:58:57 2024,765,-23.419,-23.419,1.614,1.614,0.492,21.606,8.088,3.251,16.564,10.544,-6.906,10.746,6.800,12.178,6.724,6.152
Thu Dec 05 12:58:57 2024,770,-23.348,-23.348,1.560,1.560,0.506,21.574,8.043,3.264,16.534,10.529,-6.879,10.699,6.798,12.190,6.727,6.202
Thu Dec 05 12:58:57 2024,775,-23.291,-23.291,1.526,1.526,0.540,21.517,7.984,3.283,16.508,10.493,-6.863,10.623,6.757,12.198,6.735,6.235
Thu Dec 05 12:58:57 2024,780,-23.282,-23.282,1.537,1.537,0.586,21.454,7.936,3.302,16.502,10.444,-6.872,10.545,6.680,12.197,6.749,6.225
Thu Dec 05 12:58:57 2024,785,-23.262,-23.262,1.566,1.566,0.614,21.418,7.882,3.294,16.518,10.418,-6.854,10.530,6.636,12.155,6.765,6.172
Thu Dec 05 12:58:57 2024,790,-23.233,-23.233,1.608,1.608,0.636,21.389,7.818,3.268,16.550,10.400,-6.819,10.549,6.603,12.085,6.783,6.089
Thu Dec 05 12:58:57 2024,795,-23.203,-23.203,1.625,1.625,0.627,21.334,7.771,3.249,16.580,10.418,-6.789,10.596,6.595,12.043,6.809,6.027
Thu Dec 05 12:58:57 2024,800,-23.169,-23.169,1.607,1.607,0.588,21.218,7.734,3.251,16.603,10.473,-6.771,10.658,6.599,12.044,6.857,5.994
Thu Dec 05 12:58:57 2024,805,-23.169,-23.169,1.603,1.603,0.555,21.123,7.730,3.236,16.622,10.512,-6.747,10.710,6.615,12.075,6.870,5.986
Thu Dec 05 12:58:57 2024,810,-23.212,-23.212,1.630,1.630,0.547,21.096,7.761,3.195,16.636,10.509,-6.717,10.734,6.639,12.116,6.834,5.999
Thu Dec 05 12:58:57 2024,815,-23.255,-23.255,1.662,1.662,0.540,21.100,7.792,3.165,16.642,10.491,-6.682,10.759,6.658,12.162,6.789,6.016
Thu Dec 05 12:58:57 2024,820,-23.243,-23.243,1.677,1.677,0.521,21.158,7.778,3.208,16.622,10.456,-6.654,10.806,6.644,12.190,6.769,6.028
Thu Dec 05 12:58:57 2024,825,-23.233,-23.233,1.690,1.690,0.503,21.211,7.766,3.247,16.603,10.425,-6.629,10.849,6.632,12.216,6.751,6.040
Thu Dec 05 12:58:57 2024,830,-23.227,-23.227,1.659,1.659,0.503,21.156,7.753,3.227,16.601,10.382,-6.603,10.836,6.602,12.225,6.757,5.992
Thu Dec 05 12:58:57 2024,835,-23.222,-23.222,1.647,1.647,0.498,21.132,7.735,3.220,16.601,10.355,-6.584,10.836,6.580,12.220,6.777,5.961
Thu Dec 05 12:58:57 2024,840,-23.219,-23.219,1.678,1.678,0.474,21.181,7.687,3.238,16.613,10.348,-6.571,10.878,6.561,12.168,6.862,5.953
Thu Dec 05 12:58:57 2024,845,-23.219,-23.219,1.714,1.714,0.459,21.237,7.657,3.257,16.616,10.352,-6.569,10.899,6.546,12.123,6.927,5.945
Thu Dec 05 12:58:57 2024,850,-23.221,-23.221,1.730,1.730,0.477,21.251,7.678,3.261,16.602,10.363,-6.583,10.855,6.536,12.123,6.915,5.925
Thu Dec 05 12:58:57 2024,855,-23.214,-23.214,1.734,1.734,0.509,21.240,7.700,3.258,16.585,10.379,-6.601,10.792,6.529,12.141,6.880,5.905
Thu Dec 05 12:58:57 2024,860,-23.169,-23.169,1.715,1.715,0.526,21.192,7.648,3.255,16.596,10.390,-6.591,10.804,6.530,12.162,6.888,5.924
Thu Dec 05 12:58:57 2024,865,-23.104,-23.104,1.684,1.684,0.541,21.123,7.559,3.250,16.618,10.404,-6.572,10.841,6.535,12.186,6.910,5.960
Thu Dec 05 12:58:57 2024,870,-23.125,-23.125,1.712,1.712,0.502,21.045,7.556,3.203,16.640,10.368,-6.597,10.760,6.457,12.160,6.935,5.933
Thu Dec 05 12:58:57 2024,875,-23.149,-23.149,1.737,1.737,0.471,20.994,7.562,3.169,16.652,10.340,-6.618,10.695,6.400,12.138,6.952,5.908
Thu Dec 05 12:58:57 2024,880,-23.126,-23.126,1.713,1.713,0.493,20.984,7.539,3.165,16.645,10.331,-6.601,10.717,6.410,12.160,6.920,5.900
Thu Dec 05 12:58:57 2024,885,-23.071,-23.071,1.658,1.658,0.550,21.008,7.497,3.186,16.627,10.339,-6.561,10.800,6.470,12.212,6.860,5.906
Thu Dec 05 12:58:57 2024,890,-23.047,-23.047,1.647,1.647,0.590,21.023,7.497,3.209,16.604,10.359,-6.541,10.835,6.509,12.216,6.854,5.932
Thu Dec 05 12:58:57 2024,895,-23.047,-23.047,1.675,1.675,0.619,21.032,7.533,3.237,16.576,10.393,-6.537,10.832,6.533,12.178,6.897,5.977
Thu Dec 05 12:58:57 2024,900,-23.075,-23.075,1.712,1.712,0.629,21.038,7.546,3.248,16.569,10.390,-6.530,10.846,6.533,12.186,6.910,5.996
Thu Dec 05 12:58:57 2024,905,-23.141,-23.141,1.770,1.770,0.619,21.038,7.534,3.240,16.587,10.338,-6.515,10.884,6.498,12.252,6.890,5.985
Thu Dec 05 12:58:57 2024,910,-23.163,-23.163,1.790,1.790,0.619,21.022,7.514,3.252,16.582,10.313,-6.490,10.886,6.472,12.287,6.876,5.968
Thu Dec 05 12:58:57 2024,915,-23.114,-23.114,1.752,1.752,0.637,20.990,7.488,3.288,16.543,10.333,-6.454,10.832,6.465,12.269,6.877,5.944
Thu Dec 05 12:58:57 2024,920,-23.095,-23.095,1.741,1.741,0.637,20.970,7.496,3.305,16.526,10.375,-6.422,10.816,6.487,12.282,6.873,5.962
Thu Dec 05 12:58:57 2024,925,-23.132,-23.132,1.779,1.779,0.609,20.979,7.554,3.284,16.552,10.437,-6.406,10.870,6.547,12.342,6.861,6.038
Thu Dec 05 12:58:57 2024,930,-23.143,-23.143,1.804,1.804,0.604,20.993,7.569,3.284,16.560,10.466,-6.390,10.895,6.568,12.360,6.863,6.064
Thu Dec 05 12:58:57 2024,935,-23.093,-23.093,1.806,1.806,0.654,21.017,7.490,3.330,16.527,10.426,-6.373,10.858,6.506,12.288,6.896,5.975
Thu Dec 05 12:58:57 2024,940,-23.041,-23.041,1.794,1.794,0.694,21.056,7.429,3.365,16.506,10.400,-6.352,10.860,6.464,12.261,6.908,5.918
Thu Dec 05 12:58:57 2024,945,-22.988,-22.988,1.749,1.749,0.713,21.122,7.413,3.374,16.514,10.407,-6.325,10.948,6.470,12.341,6.870,5.934
Thu Dec 05 12:58:57 2024,950,-22.950,-22.950,1.725,1.725,0.724,21.150,7.399,3.367,16.532,10.422,-6.304,11.009,6.482,12.404,6.824,5.937
Thu Dec 05 12:58:57 2024,955,-22.963,-22.963,1.761,1.761,0.712,21.072,7.391,3.326,16.564,10.453,-6.305,10.978,6.506,12.403,6.781,5.905
Thu Dec 05 12:58:57 2024,960,-22.960,-22.960,1.803,1.803,0.696,20.987,7.375,3.289,16.590,10.472,-6.305,10.950,6.524,12.405,6.744,5.891
Thu Dec 05 12:58:57 2024,965,-22.890,-22.890,1.829,1.829,0.679,20.940,7.335,3.300,16.563,10.423,-6.301,10.968,6.502,12.422,6.773,5.963
Thu Dec 05 12:58:57 2024,970,-22.815,-22.815,1.864,1.864,0.680,20.929,7.313,3.311,16.540,10.376,-6.283,11.014,6.491,12.465,6.774,6.030
Thu Dec 05 12:58:57 2024,975,-22.729,-22.729,1.924,1.924,0.736,21.048,7.355,3.324,16.534,10.342,-6.217,11.157,6.518,12.600,6.681,6.072
Thu Dec 05 12:58:57 2024,980,-22.645,-22.645,1.982,1.982,0.788,21.166,7.386,3.334,16.532,10.304,-6.160,11.290,6.533,12.723,6.591,6.088
Thu Dec 05 12:58:57 2024,985,-22.568,-22.568,2.034,2.034,0.807,21.240,7.351,3.339,16.538,10.254,-6.152,11.345,6.485,12.759,6.551,6.011
Thu Dec 05 12:58:57 2024,990,-22.498,-22.498,2.106,2.106,0.827,21.317,7.316,3.348,16.541,10.210,-6.144,11.396,6.439,12.793,6.522,5.950
Thu Dec 05 12:58:57 2024,995,-22.468,-22.468,2.238,2.238,0.858,21.399,7.341,3.377,16.527,10.230,-6.109,11.454,6.468,12.854,6.521,6.044
Thu Dec 05 12:58:58 2024,0,-22.452,-22.452,2.366,2.366,0.888,21.474,7.375,3.407,16.510,10.261,-6.071,11.506,6.507,12.914,6.524,6.162
Thu Dec 05 12:58:58 2024,5,-22.533,-22.533,2.498,2.498,0.930,21.580,7.405,3.466,16.473,10.248,-6.024,11.611,6.504,12.966,6.485,6.092
Thu Dec 05 12:58:58 2024,10,-22.610,-22.610,2.594,2.594,0.963,21.663,7.425,3.513,16.441,10.232,-5.988,11.695,6.496,13.002,6.451,6.014
Thu Dec 05 12:58:58 2024,15,-22.691,-22.691,2.695,2.695,0.913,21.535,7.359,3.504,16.451,10.208,-5.981,11.712,6.503,13.017,6.453,6.068
Thu Dec 05 12:58:58 2024,20,-22.759,-22.759,2.782,2.782,0.852,21.381,7.284,3.483,16.469,10.185,-5.980,11.712,6.512,13.025,6.463,6.144
Thu Dec 05 12:58:58 2024,25,-22.819,-22.819,2.953,2.953,0.785,21.358,7.299,3.441,16.522,10.208,-5.976,11.792,6.556,13.096,6.414,6.146
Thu Dec 05 12:58:58 2024,30,-22.855,-22.855,3.110,3.110,0.737,21.385,7.335,3.409,16.565,10.236,-5.972,11.868,6.593,13.158,6.370,6.134
Thu Dec 05 12:58:58 2024,35,-22.832,-22.832,3.241,3.241,0.735,21.457,7.364,3.419,16.556,10.245,-5.971,11.892,6.591,13.159,6.384,6.148
Thu Dec 05 12:58:58 2024,40,-22.786,-22.786,3.378,3.378,0.748,21.552,7.396,3.445,16.529,10.250,-5.971,11.902,6.575,13.139,6.418,6.173
Thu Dec 05 12:58:58 2024,45,-22.699,-22.699,3.625,3.625,0.764,21.572,7.416,3.457,16.524,10.319,-5.956,11.905,6.546,13.112,6.429,6.098
Thu Dec 05 12:58:58 2024,50,-22.613,-22.613,3.866,3.866,0.777,21.562,7.431,3.463,16.526,10.398,-5.937,11.905,6.517,13.089,6.430,6.005
Thu Dec 05 12:58:58 2024,55,-22.507,-22.507,4.398,4.398,0.786,21.521,7.449,3.440,16.540,10.349,-5.895,11.926,6.486,13.088,6.405,5.982
Thu Dec 05 12:58:58 2024,60,-22.386,-22.386,5.062,5.062,0.795,21.467,7.470,3.408,16.555,10.261,-5.844,11.954,6.453,13.092,6.369,5.976
Thu Dec 05 12:58:58 2024,65,-22.223,-22.223,5.868,5.868,0.753,21.296,7.557,3.360,16.584,10.284,-5.851,11.906,6.469,13.082,6.355,6.023
Thu Dec 05 12:58:58 2024,70,-22.034,-22.034,6.784,6.784,0.690,21.076,7.671,3.305,16.617,10.344,-5.877,11.830,6.501,13.064,6.346,6.091
Thu Dec 05 12:58:58 2024,75,-21.833,-21.833,7.861,7.861,0.636,20.958,7.782,3.180,16.712,10.266,-5.950,11.776,6.470,13.027,6.339,6.088
Thu Dec 05 12:58:58 2024,80,-21.634,-21.634,8.984,8.984,0.587,20.894,7.889,3.023,16.832,10.119,-6.043,11.734,6.407,12.980,6.332,6.052
Thu Dec 05 12:58:58 2024,85,-21.470,-20.435,10.439,10.439,0.583,20.701,8.083,2.962,16.815,10.153,-6.072,11.603,6.449,13.010,6.268,6.175
Thu Dec 05 12:58:58 2024,90,-21.438,-17.815,11.942,11.942,0.626,20.271,8.301,2.986,16.643,10.350,-5.997,11.394,6.611,13.179,6.097,6.473
Thu Dec 05 12:58:58 2024,95,-21.406,-15.195,13.444,13.444,0.668,19.840,8.518,3.010,16.470,10.547,-5.923,11.186,6.772,13.348,5.925,6.771
Thu Dec 05 12:58:58 2024,100,-21.373,-12.575,14.947,14.947,0.711,19.410,8.736,3.034,16.298,10.744,-5.848,10.977,6.934,13.517,5.754,7.069
Thu Dec 05 12:58:58 2024,105,-21.341,-9.955,16.449,16.449,0.754,18.980,8.953,3.058,16.125,10.941,-5.773,10.769,7.096,13.685,5.583,7.367
Thu Dec 05 12:58:58 2024,110,-21.309,-7.335,17.952,17.952,0.796,18.550,9.171,3.082,15.953,11.138,-5.699,10.561,7.258,13.854,5.412,7.665
Thu Dec 05 12:58:58 2024,115,-21.277,-4.715,19.454,19.454,0.839,18.119,9.389,3.106,15.781,11.335,-5.624,10.352,7.420,14.023,5.241,7.963
Thu Dec 05 12:58:58 2024,120,-21.245,-2.095,20.957,20.957,0.882,17.689,9.606,3.130,15.608,11.532,-5.549,10.144,7.582,14.191,5.070,8.260
Thu Dec 05 12:58:58 2024,125,-21.212,0.525,22.459,22.459,0.924,17.259,9.824,3.154,15.436,11.729,-5.475,9.935,7.744,14.360,4.899,8.558
Thu Dec 05 12:58:58 2024,130,-21.180,3.145,23.962,23.962,0.967,16.829,10.041,3.178,15.263,11.926,-5.400,9.727,7.905,14.529,4.728,8.856
Thu Dec 05 12:58:58 2024,135,-21.148,5.765,25.464,25.464,1.010,16.398,10.259,3.202,15.091,12.123,-5.325,9.519,8.067,14.698,4.557,9.154
Thu Dec 05 12:58:58 2024,140,-21.116,8.385,26.967,26.967,1.052,15.968,10.477,3.226,14.919,12.320,-5.251,9.310,8.229,14.866,4.386,9.452
Thu Dec 05 12:58:58 2024,145,-21.083,11.005,28.469,28.469,1.095,15.538,10.694,3.250,14.746,12.516,-5.176,9.102,8.391,15.035,4.215,9.750
Thu Dec 05 12:58:58 2024,150,-21.051,13.625,29.972,29.972,1.138,15.108,10.912,3.274,14.574,12.713,-5.101,8.894,8.553,15.204,4.044,10.048
Thu Dec 05 12:58:58 2024,155,-21.019,16.245,31.474,31.474,1.180,14.677,11.129,3.298,14.401,12.910,-5.026,8.685,8.715,15.372,3.873,10.346
Thu Dec 05 12:58:58 2024,160,-20.987,18.865,32.977,32.977,1.223,14.247,11.347,3.322,14.229,13.107,-4.952,8.477,8.877,15.541,3.702,10.644
Thu Dec 05 12:58:58 2024,165,-21.022,21.022,34.469,34.469,1.207,13.770,11.450,3.377,13.953,13.222,-4.824,8.270,9.044,15.774,3.439,10.881
Thu Dec 05 12:58:58 2024,170,-20.848,20.848,35.329,35.329,1.042,13.247,11.010,3.544,13.400,12.975,-4.528,7.950,9.103,16.055,3.020,10.802
Thu Dec 05 12:58:58 2024,175,-20.961,20.961,35.705,35.705,0.876,12.774,10.537,3.663,12.952,12.693,-4.274,7.771,9.163,16.344,2.673,10.711
Thu Dec 05 12:58:58 2024,180,-21.478,21.478,34.369,34.369,0.755,12.663,10.125,3.573,13.022,12.411,-4.264,8.140,9.211,16.526,2.721,10.617
Thu Dec 05 12:58:58 2024,185,-22.233,22.233,32.592,32.592,0.565,12.595,9.670,3.429,13.180,12.095,-4.266,8.654,9.288,16.727,2.774,10.513
Thu Dec 05 12:58:58 2024,190,-22.869,22.869,30.467,30.467,0.168,12.995,9.645,3.105,13.771,12.076,-4.319,9.430,9.464,16.776,2.929,10.499
Thu Dec 05 12:58:58 2024,195,-23.599,23.599,28.209,28.209,-0.340,13.365,9.621,2.781,14.362,12.062,-4.359,10.187,9.647,16.824,3.031,10.491
Thu Dec 05 12:58:58 2024,200,-24.028,24.028,26.219,26.219,-0.382,13.498,9.627,2.641,14.605,12.104,-4.184,10.477,9.768,16.830,3.063,10.541
Thu Dec 05 12:58:58 2024,205,-24.518,24.518,24.313,24.313,-0.422,13.646,9.639,2.506,14.840,12.146,-4.021,10.772,9.891,16.833,3.093,10.599
Thu Dec 05 12:58:58 2024,210,-24.734,24.734,22.648,22.648,-0.448,14.028,9.725,2.341,15.108,12.218,-3.914,11.254,10.102,16.802,3.170,10.778
Thu Dec 05 12:58:58 2024,215,-24.978,24.978,21.150,21.150,-0.476,14.395,9.810,2.189,15.356,12.287,-3.825,11.706,10.300,16.769,3.228,10.950
Thu Dec 05 12:58:58 2024,220,-24.800,24.800,19.810,19.810,-0.577,14.573,9.766,2.114,15.591,12.332,-3.836,11.880,10.348,16.662,3.339,10.938
Thu Dec 05 12:58:58 2024,225,-24.672,24.672,18.310,18.310,-0.690,14.776,9.716,2.032,15.855,12.378,-3.845,12.085,10.404,16.542,3.460,10.924
Thu Dec 05 12:58:58 2024,230,-24.529,24.529,17.508,17.508,-0.701,15.005,9.693,2.029,16.037,12.365,-3.778,12.397,10.477,16.462,3.539,10.897
Thu Dec 05 12:58:58 2024,235,-24.405,24.405,16.584,16.584,-0.701,15.301,9.666,2.036,16.253,12.338,-3.685,12.809,10.573,16.365,3.632,10.860
Thu Dec 05 12:58:58 2024,240,-24.337,24.337,15.800,15.800,-0.806,15.663,9.684,2.015,16.449,12.276,-3.618,13.087,10.530,16.282,3.713,10.684
Thu Dec 05 12:58:58 2024,245,-24.289,24.289,14.937,14.937,-0.935,16.069,9.710,1.988,16.663,12.203,-3.546,13.383,10.466,16.191,3.801,10.470
Thu Dec 05 12:58:58 2024,250,-24.300,24.300,14.494,14.494,-1.048,16.150,9.683,1.896,16.769,12.092,-3.516,13.629,10.496,16.119,3.865,10.467
Thu Dec 05 12:58:58 2024,255,-24.323,24.323,14.075,14.075,-1.171,16.181,9.644,1.784,16.867,11.963,-3.491,13.890,10.545,16.043,3.929,10.499
Thu Dec 05 12:58:58 2024,260,-24.283,24.283,13.787,13.787,-1.306,16.294,9.637,1.617,16.847,11.797,-3.477,14.079,10.599,15.993,3.972,10.523
Thu Dec 05 12:58:58 2024,265,-24.238,24.238,13.595,13.595,-1.414,16.398,9.640,1.473,16.790,11.659,-3.468,14.209,10.643,15.961,4.001,10.539
Thu Dec 05 12:58:58 2024,270,24.148,24.148,13.428,13.428,-1.582,16.462,9.647,1.325,16.830,11.537,-3.472,14.299,10.628,15.901,4.053,10.494
Thu Dec 05 12:58:58 2024,275,24.052,24.052,13.313,13.313,-1.752,16.483,9.657,1.205,16.921,11.450,-3.483,14.346,10.580,15.836,4.108,10.422
Thu Dec 05 12:58:58 2024,280,24.150,24.150,13.090,13.090,-1.853,16.511,9.628,1.231,16.926,11.415,-3.464,14.374,10.551,15.808,4.132,10.378
Thu Dec 05 12:58:58 2024,285,24.298,24.298,12.851,12.851,-1.928,16.538,9.589,1.297,16.904,11.396,-3.437,14.394,10.529,15.792,4.146,10.345
Thu Dec 05 12:58:58 2024,290,24.281,24.281,12.758,12.758,-1.965,16.616,9.619,1.321,16.831,11.377,-3.407,14.378,10.538,15.830,4.108,10.331
Thu Dec 05 12:58:58 2024,295,24.186,24.186,12.746,12.746,-1.979,16.707,9.677,1.322,16.744,11.359,-3.379,14.345,10.559,15.889,4.050,10.329
Thu Dec 05 12:58:58 2024,300,24.132,24.132,12.691,12.691,-2.022,16.711,9.714,1.332,16.636,11.343,-3.357,14.256,10.538,15.924,4.018,10.342
Thu Dec 05 12:58:58 2024,305,24.117,24.117,12.601,12.601,-2.087,16.640,9.729,1.347,16.516,11.329,-3.343,14.123,10.479,15.934,4.010,10.366
Thu Dec 05 12:58:58 2024,310,24.073,24.073,12.540,12.540,-2.141,16.568,9.719,1.392,16.474,11.347,-3.320,13.996,10.412,15.966,3.983,10.345
Thu Dec 05 12:58:58 2024,315,24.010,24.010,12.507,12.507,-2.183,16.501,9.692,1.455,16.495,11.388,-3.292,13.885,10.343,16.012,3.943,10.291
Thu Dec 05 12:58:58 2024,320,23.896,23.896,12.583,12.583,-2.228,16.480,9.698,1.502,16.481,11.420,-3.253,13.832,10.320,16.040,3.921,10.254
Thu Dec 05 12:58:58 2024,325,23.688,23.688,12.831,12.831,-2.288,16.519,9.754,1.535,16.415,11.444,-3.188,13.854,10.355,16.047,3.919,10.236
Thu Dec 05 12:58:58 2024,330,-23.481,23.481,13.233,13.233,-2.331,16.468,9.845,1.564,16.326,11.486,-3.174,13.790,10.358,16.041,3.935,10.186
Thu Dec 05 12:58:58 2024,335,-23.199,23.199,13.972,13.972,-2.378,16.304,10.011,1.605,16.177,11.566,-3.206,13.608,10.328,16.017,3.974,10.083
Thu Dec 05 12:58:58 2024,340,-22.993,22.993,14.651,14.651,-2.406,16.202,10.141,1.636,16.031,11.591,-3.211,13.451,10.288,16.021,3.977,10.015
Thu Dec 05 12:58:58 2024,345,-22.891,22.891,15.218,15.218,-2.407,16.180,10.222,1.656,15.898,11.553,-3.183,13.332,10.237,16.057,3.943,9.993
Thu Dec 05 12:58:58 2024,350,-22.732,22.732,16.073,16.073,-2.405,16.172,10.333,1.705,15.794,11.574,-3.148,13.203,10.197,16.092,3.910,9.963
Thu Dec 05 12:58:58 2024,355,-22.506,22.506,17.134,17.134,-2.399,16.196,10.454,1.792,15.790,11.700,-3.113,13.110,10.194,16.107,3.894,9.931
Thu Dec 05 12:58:58 2024,360,-22.327,22.327,18.579,18.579,-2.372,16.212,10.612,1.913,15.762,11.827,-3.098,12.972,10.161,16.136,3.859,9.883
Thu Dec 05 12:58:58 2024,365,-22.314,22.314,20.082,20.082,-2.305,16.196,10.765,2.046,15.698,11.871,-3.145,12.809,10.074,16.188,3.801,9.820
Thu Dec 05 12:58:58 2024,370,-22.433,22.433,21.643,21.643,-2.223,16.180,10.910,2.201,15.597,11.919,-3.190,12.623,9.991,16.247,3.732,9.770
Thu Dec 05 12:58:58 2024,375,-22.876,22.876,23.282,23.282,-2.045,16.168,10.981,2.466,15.297,11.986,-3.217,12.320,9.953,16.352,3.606,9.807
Thu Dec 05 12:58:58 2024,380,-23.236,23.236,24.879,24.879,-1.886,16.130,11.014,2.711,15.000,12.018,-3.264,12.007,9.898,16.449,3.484,9.841
Thu Dec 05 12:58:58 2024,385,-23.228,23.228,26.884,26.884,-1.732,16.031,10.942,2.970,14.628,11.956,-3.378,11.567,9.774,16.554,3.345,9.875
Thu Dec 05 12:58:58 2024,390,-23.246,23.246,28.743,28.743,-1.593,15.921,10.868,3.203,14.285,11.897,-3.493,11.158,9.656,16.639,3.221,9.904
Thu Dec 05 12:58:58 2024,395,-22.888,22.888,30.724,30.724,-1.502,15.747,10.719,3.351,13.974,11.838,-3.661,10.757,9.497,16.597,3.193,9.901
Thu Dec 05 12:58:58 2024,400,-22.532,22.532,32.757,32.757,-1.353,15.538,10.578,3.543,13.591,11.770,-3.798,10.282,9.304,16.562,3.113,9.836
Thu Dec 05 12:58:58 2024,405,-22.042,22.042,34.123,34.123,-1.021,15.276,10.544,3.826,13.076,11.697,-3.724,9.703,9.050,16.566,2.872,9.528
Thu Dec 05 12:58:58 2024,410,-21.608,21.608,35.557,35.557,-0.705,14.995,10.537,4.090,12.579,11.638,-3.663,9.102,8.799,16.548,2.580,9.227
Thu Dec 05 12:58:58 2024,415,-21.466,21.466,36.764,36.764,-0.783,15.100,10.831,3.938,12.661,11.772,-3.786,8.806,8.736,16.301,2.611,9.260
Thu Dec 05 12:58:58 2024,420,-21.394,21.394,37.858,37.858,-0.831,15.210,11.124,3.792,12.753,11.905,-3.930,8.473,8.645,16.050,2.610,9.270
Thu Dec 05 12:58:58 2024,425,-21.490,21.490,37.390,37.390,-0.653,15.282,11.184,3.795,12.864,11.924,-4.099,8.131,8.414,15.984,2.540,9.108
Thu Dec 05 12:58:58 2024,430,-21.649,21.649,36.867,36.867,-0.477,15.335,11.220,3.812,12.960,11.930,-4.251,7.832,8.203,15.938,2.472,8.953
Thu Dec 05 12:58:58 2024,435,-20.260,20.260,35.406,35.406,-0.312,14.940,10.760,3.787,12.679,11.730,-4.466,7.071,7.874,15.701,2.603,8.844
Thu Dec 05 12:58:58 2024,440,-18.672,18.672,33.919,33.919,-0.162,14.465,10.216,3.757,12.322,11.494,-4.675,6.250,7.545,15.434,2.767,8.752
Thu Dec 05 12:58:58 2024,445,-19.282,19.282,32.262,32.262,-0.409,15.937,10.809,3.496,13.218,11.911,-4.989,6.750,7.581,15.242,3.172,8.697
Thu Dec 05 12:58:58 2024,450,-19.863,19.863,30.788,30.788,-0.635,17.292,11.368,3.264,14.055,12.314,-5.274,7.210,7.619,15.075,3.535,8.647
Thu Dec 05 12:58:58 2024,455,-19.593,19.593,29.420,29.420,-0.875,18.115,11.264,3.124,14.814,11.843,-5.528,7.877,7.219,14.893,3.974,8.226
Thu Dec 05 12:58:58 2024,460,-19.289,19.289,28.187,28.187,-1.115,18.639,11.060,3.002,15.526,11.239,-5.769,8.546,6.758,14.718,4.394,7.753
Thu Dec 05 12:58:58 2024,465,-19.447,19.447,26.403,26.403,-1.013,21.062,10.750,3.054,16.154,10.977,-5.742,9.412,6.565,14.759,4.568,7.362
Thu Dec 05 12:58:58 2024,470,-19.715,19.715,24.647,24.647,-0.824,21.613,10.431,3.155,16.554,10.825,-5.640,10.259,6.461,14.861,4.638,7.024
Thu Dec 05 12:58:58 2024,475,-20.114,20.114,22.350,22.350,-0.898,21.977,10.051,3.302,16.620,10.938,-5.546,10.685,6.485,14.920,4.672,6.771
Thu Dec 05 12:58:58 2024,480,-20.540,20.540,20.003,20.003,-1.081,22.110,9.675,3.460,16.534,11.158,-5.462,10.904,6.560,14.957,4.693,6.574
Thu Dec 05 12:58:58 2024,485,-21.005,21.005,17.510,17.510,-1.050,22.438,9.481,3.602,16.399,11.017,-5.314,11.302,6.566,15.117,4.621,6.412
Thu Dec 05 12:58:58 2024,490,-21.587,21.587,14.396,14.396,-0.938,22.943,9.309,3.769,16.231,10.722,-5.110,11.846,6.548,15.354,4.483,6.228
Thu Dec 05 12:58:58 2024,495,-21.841,21.841,11.246,11.246,-0.775,23.247,9.059,3.885,16.111,10.635,-4.890,12.322,6.600,15.470,4.410,6.076
Thu Dec 05 12:58:58 2024,500,-21.863,21.863,8.437,8.437,-0.600,23.391,8.791,3.956,16.036,10.685,-4.687,12.703,6.688,15.498,4.396,5.959
Thu Dec 05 12:58:58 2024,505,-21.906,21.906,5.616,5.616,-0.463,23.671,8.495,3.962,15.997,10.724,-4.505,13.190,6.739,15.667,4.258,5.835
Thu Dec 05 12:58:58 2024,510,-21.945,21.945,3.858,3.858,-0.398,23.918,8.294,3.928,24.032,10.742,-4.404,13.547,6.748,15.851,4.098,5.754
Thu Dec 05 12:58:58 2024,515,-21.986,21.986,1.926,1.926,-0.328,24.146,8.082,3.979,24.150,10.782,-4.262,13.892,6.779,16.081,3.887,5.696
Thu Dec 05 12:58:58 2024,520,-22.015,22.015,-0.571,0.571,-0.276,24.274,7.936,4.094,24.291,10.828,-4.130,14.107,6.820,16.276,3.703,5.681
Thu Dec 05 12:58:58 2024,525,-21.931,21.931,-0.655,-0.655,-0.237,24.420,7.831,4.165,24.393,10.854,-4.089,14.257,6.830,16.347,3.639,5.669
Thu Dec 05 12:58:58 2024,530,-21.775,21.775,-1.184,-1.184,-0.213,24.565,7.773,4.190,24.450,10.859,-4.132,14.330,6.815,16.304,3.686,5.662
Thu Dec 05 12:58:58 2024,535,-21.656,21.656,-1.593,-1.593,-0.211,24.646,7.700,4.211,24.511,10.904,-4.171,14.362,6.846,16.288,3.706,5.715
Thu Dec 05 12:58:58 2024,540,-21.538,21.538,-1.988,-1.988,-0.229,24.687,7.587,4.236,24.601,11.003,-4.221,14.365,6.935,16.295,3.703,5.847
Thu Dec 05 12:58:58 2024,545,-21.402,-21.402,-2.335,-2.335,-0.257,24.676,7.510,4.255,24.654,11.072,-4.262,14.372,7.006,16.283,3.716,5.923
Thu Dec 05 12:58:58 2024,550,-21.216,-21.216,-2.609,-2.609,-0.305,24.576,7.491,4.267,24.642,11.091,-4.291,14.391,7.049,16.239,3.759,5.906
Thu Dec 05 12:58:58 2024,555,-21.052,-21.052,-2.870,-2.870,-0.352,24.481,7.473,4.278,24.631,11.110,-4.317,14.407,7.090,16.198,3.799,5.890
Thu Dec 05 12:58:58 2024,560,-21.023,-21.023,-3.114,-3.114,-0.403,24.313,7.441,4.231,24.577,11.187,-4.385,14.251,7.093,16.156,3.839,5.941
Thu Dec 05 12:58:58 2024,565,-20.987,-20.987,-3.336,-3.336,-0.450,24.174,7.415,4.197,24.535,11.247,-4.440,14.135,7.102,16.119,3.875,5.977
Thu Dec 05 12:58:58 2024,570,-20.947,-20.947,-3.598,-3.598,-0.475,24.032,7.392,4.172,24.497,11.312,-4.494,14.015,7.118,16.096,3.896,6.016
Thu Dec 05 12:58:58 2024,575,-20.891,-20.891,-3.950,-3.950,-0.366,23.937,7.398,4.215,24.496,11.371,-4.515,13.928,7.169,16.160,3.824,6.048
Thu Dec 05 12:58:58 2024,580,-20.873,-20.873,-4.175,-4.175,-0.306,23.806,7.451,4.260,24.529,11.430,-4.482,13.932,7.199,16.211,3.765,5.991
Thu Dec 05 12:58:58 2024,585,-20.855,-20.855,-4.340,-4.340,-0.263,23.664,7.527,4.302,24.572,11.504,-4.432,13.972,7.238,16.251,3.716,5.925
Thu Dec 05 12:58:58 2024,590,-20.785,-20.785,-4.373,-4.373,-0.230,23.632,7.568,4.304,24.574,11.590,-4.447,13.968,7.330,16.252,3.720,6.030
Thu Dec 05 12:58:58 2024,595,-20.727,-20.727,-4.399,-4.399,-0.195,23.620,7.616,4.306,24.584,11.676,-4.469,13.962,7.403,16.243,3.731,6.102
Thu Dec 05 12:58:58 2024,600,-20.682,-20.682,-4.414,-4.414,-0.153,23.661,7.690,4.312,24.617,11.776,-4.509,13.949,7.431,16.208,3.765,6.094
Thu Dec 05 12:58:58 2024,605,-20.651,-20.651,-4.420,-4.420,-0.099,23.709,7.775,4.317,24.650,11.880,-4.551,13.919,7.447,16.167,3.803,6.081
Thu Dec 05 12:58:58 2024,610,-20.690,-20.690,-4.389,-4.389,-0.048,23.737,7.824,4.318,24.643,11.910,-4.563,13.846,7.403,16.139,3.827,6.062
Thu Dec 05 12:58:58 2024,615,-20.724,-20.724,-4.352,-4.352,0.048,23.754,7.867,4.310,24.626,11.939,-4.579,13.766,7.359,16.099,3.861,6.045
Thu Dec 05 12:58:58 2024,620,-20.648,-20.648,-4.297,-4.297,0.059,23.600,7.794,4.225,24.524,11.926,-4.612,13.722,7.377,15.986,3.970,6.051
Thu Dec 05 12:58:58 2024,625,-20.574,-20.574,-4.243,-4.243,0.077,23.451,7.723,4.142,24.424,11.913,-4.644,13.678,7.396,15.874,4.077,6.058
Thu Dec 05 12:58:58 2024,630,-20.524,-20.524,-4.250,-4.250,0.144,23.603,7.834,4.153,24.440,11.971,-4.605,13.745,7.416,15.895,4.050,6.031
Thu Dec 05 12:58:58 2024,635,-20.471,-20.471,-4.258,-4.258,0.217,23.763,7.950,4.167,24.457,12.033,-4.566,13.815,7.438,15.915,4.025,6.003
Thu Dec 05 12:58:58 2024,640,-20.440,-20.440,-4.263,-4.263,0.247,23.854,8.009,4.177,24.460,12.084,-4.577,13.844,7.486,15.891,4.047,5.984
Thu Dec 05 12:58:58 2024,645,-20.398,-20.398,-4.254,-4.254,0.286,23.970,8.081,4.188,24.463,12.148,-4.590,13.886,7.545,15.855,4.082,5.960
Thu Dec 05 12:58:58 2024,650,-20.348,-20.348,-4.066,-4.066,0.308,24.036,8.087,4.152,24.456,12.176,-4.584,13.968,7.559,15.764,4.173,5.952
Thu Dec 05 12:58:58 2024,655,-20.301,-20.301,-3.868,-3.868,0.324,24.089,8.084,4.114,24.448,12.195,-4.577,14.046,7.566,15.674,4.265,5.946
Thu Dec 05 12:58:58 2024,660,-20.286,-20.286,-3.566,-3.566,0.388,24.100,8.092,4.136,24.457,12.189,-4.540,14.091,7.550,15.577,4.355,5.892
Thu Dec 05 12:58:58 2024,665,-20.283,-20.283,-3.322,-3.322,0.446,24.099,8.100,4.165,24.467,12.179,-4.506,14.116,7.534,15.505,4.421,5.841
Thu Dec 05 12:58:58 2024,670,-20.324,-20.324,-2.963,-2.963,0.500,24.085,8.140,4.180,24.470,12.148,-4.525,14.112,7.471,15.462,4.466,5.820
Thu Dec 05 12:58:58 2024,675,-20.373,-20.373,-2.662,-2.662,0.537,24.070,8.180,4.186,24.469,12.117,-4.557,14.098,7.409,15.442,4.491,5.815
Thu Dec 05 12:58:58 2024,680,-20.398,-20.398,-2.410,-2.410,0.596,24.065,8.169,4.249,24.546,12.110,-4.519,14.187,7.428,15.464,4.475,5.841
Thu Dec 05 12:58:58 2024,685,-20.410,-20.410,-2.243,-2.243,0.646,24.065,8.143,4.314,24.628,12.113,-4.467,14.285,7.468,15.495,4.449,5.870
Thu Dec 05 12:58:58 2024,690,-20.420,-20.420,-2.164,-2.164,0.634,24.068,8.182,4.339,24.656,12.166,-4.493,14.295,7.492,15.477,4.468,5.891
Thu Dec 05 12:58:58 2024,695,-20.429,-20.429,-2.124,-2.124,0.604,24.073,8.238,4.347,24.662,12.227,-4.541,14.274,7.508,15.446,4.500,5.906
Thu Dec 05 12:58:58 2024,700,-20.361,-20.361,-2.134,-2.134,0.603,24.096,8.288,4.344,24.638,12.249,-4.577,14.244,7.553,15.420,4.525,5.971
Thu Dec 05 12:58:58 2024,705,-20.266,-20.266,-2.166,-2.166,0.616,24.125,8.325,4.337,24.604,12.248,-4.599,14.215,7.604,15.402,4.541,6.050
Thu Dec 05 12:58:58 2024,710,-20.138,-20.138,-2.182,-2.182,0.588,24.153,8.350,4.320,24.603,12.286,-4.628,14.238,7.680,15.428,4.512,6.118
Thu Dec 05 12:58:58 2024,715,-20.016,-20.016,-2.181,-2.181,0.533,24.175,8.357,4.300,24.631,12.347,-4.655,14.294,7.758,15.486,4.453,6.160
Thu Dec 05 12:58:58 2024,720,-19.932,-19.932,-2.194,-2.194,0.571,24.221,8.410,4.326,24.661,12.396,-4.660,14.297,7.779,15.508,4.423,6.129
Thu Dec 05 12:58:58 2024,725,-19.859,-19.859,-2.216,-2.216,0.674,24.292,8.501,4.387,24.697,12.447,-4.653,14.267,7.765,15.511,4.407,6.045
Thu Dec 05 12:58:58 2024,730,-19.888,-19.888,-2.164,-2.164,0.701,24.312,8.567,4.401,24.698,12.495,-4.687,14.207,7.788,15.495,4.421,6.092
Thu Dec 05 12:58:58 2024,735,-19.968,-19.968,-2.076,-2.076,0.683,24.302,8.613,4.390,24.681,12.537,-4.740,14.137,7.829,15.471,4.450,6.204
Thu Dec 05 12:58:58 2024,740,-20.014,-20.014,-1.972,-1.972,0.682,24.255,8.636,4.387,24.676,12.552,-4.733,14.140,7.851,15.459,4.459,6.232
Thu Dec 05 12:58:58 2024,745,-20.010,-20.010,-1.889,-1.889,0.695,24.188,8.626,4.394,24.687,12.535,-4.671,14.212,7.847,15.464,4.447,6.168
Thu Dec 05 12:58:58 2024,750,-20.040,-20.040,-1.679,-1.679,0.720,24.154,8.661,4.410,24.689,12.511,-4.636,14.255,7.840,15.455,4.448,6.141
Thu Dec 05 12:58:58 2024,755,-20.102,-20.102,-1.363,-1.363,0.751,24.161,8.741,4.432,24.684,12.482,-4.641,14.258,7.832,15.430,4.465,6.159
Thu Dec 05 12:58:58 2024,760,-20.172,-20.172,-1.009,-1.009,0.787,24.171,8.831,4.458,24.679,12.451,-4.646,14.260,7.824,15.402,4.484,6.180
Thu Dec 05 12:58:58 2024,765,-20.207,-20.207,-0.835,-0.835,0.805,24.176,8.876,4.471,24.678,12.436,-4.649,14.261,7.820,15.388,4.493,6.190
Thu Dec 05 12:58:58 2024,770,-19.965,-19.965,-0.635,0.635,0.661,24.024,8.892,4.409,24.639,12.386,-4.656,14.142,7.712,15.249,4.572,6.019
Thu Dec 05 12:58:58 2024,775,-19.887,-19.887,1.330,1.330,0.613,23.963,8.930,4.391,24.622,12.354,-4.661,14.091,7.664,15.181,4.607,5.953
Thu Dec 05 12:58:58 2024,780,-19.836,-19.836,2.096,2.096,0.573,23.902,8.993,4.345,24.565,12.312,-4.695,14.019,7.614,15.097,4.654,5.889
Thu Dec 05 12:58:58 2024,785,-19.866,-19.866,2.884,2.884,0.563,23.848,9.112,4.231,24.417,12.247,-4.802,13.906,7.567,14.990,4.725,5.840
Thu Dec 05 12:58:58 2024,790,-19.955,-19.955,3.685,3.685,0.590,23.815,9.268,4.155,24.303,12.221,-4.882,13.802,7.540,14.900,4.779,5.814
Thu Dec 05 12:58:58 2024,795,-20.225,-20.225,4.465,4.465,0.729,23.854,9.527,4.208,15.691,12.324,-4.871,13.738,7.576,14.875,4.777,5.863
Thu Dec 05 12:58:58 2024,800,-20.628,-20.628,5.608,5.608,0.878,23.911,9.891,4.268,15.668,12.484,-4.855,13.692,7.656,14.860,4.766,5.960
Thu Dec 05 12:58:58 2024,805,-21.077,-21.077,6.879,6.879,0.925,23.963,10.268,4.297,15.635,12.686,-4.837,13.754,7.810,14.889,4.737,6.121
Thu Dec 05 12:58:58 2024,810,-21.523,-21.523,8.128,8.128,0.966,24.007,10.625,4.325,15.606,12.870,-4.827,13.797,7.957,14.913,4.714,6.280
Thu Dec 05 12:58:58 2024,815,-21.904,-21.904,9.192,9.192,0.970,24.000,10.844,4.350,15.594,12.953,-4.858,13.741,8.062,14.900,4.723,6.417
Thu Dec 05 12:58:58 2024,820,-22.314,22.314,10.347,10.347,0.965,23.967,11.086,4.377,15.580,13.054,-4.893,13.672,8.178,14.894,4.727,6.578
Thu Dec 05 12:58:58 2024,825,-22.743,22.743,12.177,12.177,0.847,23.594,11.500,4.408,15.558,13.357,-4.949,13.443,8.389,14.992,4.663,6.965
Thu Dec 05 12:58:58 2024,830,-23.181,23.181,14.005,14.005,0.739,23.290,11.878,4.437,15.533,13.626,-4.996,13.247,8.573,15.099,4.584,7.312
Thu Dec 05 12:58:58 2024,835,-23.648,23.648,16.035,16.035,0.666,23.372,12.088,4.452,15.481,13.714,-5.003,13.240,8.623,15.283,4.411,7.434
Thu Dec 05 12:58:58 2024,840,-24.040,24.040,17.665,17.665,0.609,23.439,12.255,4.464,15.430,13.785,-5.008,13.234,8.663,15.430,4.274,7.533
Thu Dec 05 12:58:58 2024,845,-23.993,23.993,19.848,19.848,0.370,23.000,12.254,4.349,24.517,14.179,-4.970,13.101,8.900,15.540,4.174,7.911
Thu Dec 05 12:58:58 2024,850,-23.897,23.897,22.044,22.044,0.119,22.514,12.230,4.216,24.462,14.610,-4.924,12.950,9.157,15.641,4.083,8.322
Thu Dec 05 12:58:58 2024,855,-23.534,23.534,24.148,24.148,0.179,22.116,12.226,4.062,24.226,14.520,-4.993,12.808,9.165,15.549,4.206,8.662
Thu Dec 05 12:58:58 2024,860,-23.140,23.140,26.410,26.410,0.278,21.706,12.226,3.903,16.015,14.381,-5.076,12.654,9.150,15.432,4.354,9.012
Thu Dec 05 12:58:58 2024,865,-23.135,23.135,28.684,28.684,0.059,20.490,12.303,3.604,16.395,14.274,-5.254,11.919,9.140,15.308,4.443,9.556
Thu Dec 05 12:58:58 2024,870,-23.196,23.196,30.667,30.667,-0.148,19.371,12.373,3.349,16.536,14.187,-5.403,11.223,9.135,15.208,4.504,10.033
Thu Dec 05 12:58:58 2024,875,-23.744,23.744,32.395,32.395,-0.148,18.588,12.382,3.488,16.314,14.585,-5.345,10.585,9.346,15.292,4.330,10.362
Thu Dec 05 12:58:58 2024,880,-24.390,24.390,34.036,34.036,-0.110,17.913,12.381,3.691,16.060,15.045,-5.251,9.977,9.585,15.408,4.111,10.642
Thu Dec 05 12:58:58 2024,885,-24.698,24.698,35.216,35.216,-0.034,16.950,12.169,3.783,15.702,15.048,-5.230,9.341,9.683,15.514,3.854,10.807
Thu Dec 05 12:58:58 2024,890,-24.701,24.701,35.824,35.824,0.091,15.961,11.846,3.782,15.224,14.723,-5.262,8.816,9.659,15.598,3.605,10.859
Thu Dec 05 12:58:58 2024,895,-24.728,24.728,36.345,36.345,0.184,15.165,11.587,3.786,14.760,14.464,-5.285,8.391,9.640,15.672,3.388,10.901
Thu Dec 05 12:58:58 2024,900,-25.853,25.853,36.707,36.707,0.608,16.268,12.236,4.263,14.798,14.399,-4.780,9.611,9.777,16.388,2.753,10.549
Thu Dec 05 12:58:58 2024,905,-26.359,26.359,37.016,37.016,0.741,16.667,12.278,4.433,14.825,14.260,-4.525,10.201,9.786,16.734,2.477,10.333
Thu Dec 05 12:58:58 2024,910,-26.576,26.576,37.161,37.161,0.690,17.038,12.040,4.453,15.014,14.124,-4.363,10.694,9.721,16.916,2.420,10.136
Thu Dec 05 12:58:58 2024,915,-26.844,26.844,37.342,37.342,0.634,17.440,11.764,4.474,15.186,13.965,-4.184,11.247,9.651,17.124,2.338,9.916
Thu Dec 05 12:58:58 2024,920,-27.061,27.061,37.579,37.579,0.675,17.078,11.468,4.522,14.976,13.832,-4.206,11.221,9.690,17.323,2.166,9.888
Thu Dec 05 12:58:58 2024,925,-27.608,27.608,37.930,37.930,0.812,16.778,11.440,4.541,14.678,13.788,-4.203,11.066,9.804,17.482,1.981,10.004
Thu Dec 05 12:58:58 2024,930,-28.548,28.548,38.349,38.349,1.038,16.782,11.790,4.502,14.414,13.865,-4.116,10.904,9.984,17.572,1.811,10.252
Thu Dec 05 12:58:58 2024,935,-29.391,29.391,38.524,38.524,1.214,16.846,12.070,4.469,14.246,13.968,-4.032,10.811,10.172,17.604,1.708,10.448
Thu Dec 05 12:58:58 2024,940,-30.046,30.046,38.328,38.328,1.304,17.015,12.231,4.454,14.267,14.105,-3.955,10.832,10.362,17.552,1.713,10.554
Thu Dec 05 12:58:58 2024,945,-30.676,30.676,37.764,37.764,1.400,17.093,12.331,4.406,14.262,14.248,-3.860,10.866,10.609,17.493,1.751,10.720
Thu Dec 05 12:58:58 2024,950,-30.942,30.942,36.592,36.592,1.469,16.968,12.263,4.308,14.196,14.350,-3.764,10.917,10.885,17.444,1.844,10.944
Thu Dec 05 12:58:58 2024,955,-31.212,31.212,35.534,35.534,1.518,16.937,12.224,4.235,14.188,14.433,-3.673,11.020,11.093,17.410,1.934,11.093
Thu Dec 05 12:58:58 2024,960,-31.540,31.540,34.271,34.271,1.530,17.129,12.246,4.195,14.341,14.510,-3.548,11.307,11.227,17.393,2.054,11.121
Thu Dec 05 12:58:58 2024,965,-31.846,31.846,33.212,33.212,1.553,17.266,12.261,4.159,14.472,14.583,-3.458,11.540,11.319,17.363,2.168,11.138
Thu Dec 05 12:58:58 2024,970,-32.088,32.088,32.534,32.534,1.600,17.303,12.260,4.129,14.566,14.651,-3.434,11.668,11.325,17.304,2.289,11.135
Thu Dec 05 12:58:58 2024,975,-32.304,32.304,31.828,31.828,1.629,17.358,12.252,4.089,14.683,14.717,-3.404,11.830,11.344,17.247,2.410,11.141
Thu Dec 05 12:58:58 2024,980,-32.234,32.234,31.292,31.292,1.547,17.500,12.211,4.010,14.864,14.734,-3.348,12.093,11.419,17.231,2.487,11.190
Thu Dec 05 12:58:58 2024,985,-32.180,32.180,30.837,30.837,1.476,17.622,12.172,3.944,15.017,14.748,-3.302,12.315,11.482,17.216,2.549,11.232
Thu Dec 05 12:58:58 2024,990,-32.274,32.274,30.809,30.809,1.413,17.694,12.050,3.959,15.094,14.712,-3.325,12.341,11.447,17.181,2.599,11.208
Thu Dec 05 12:58:58 2024,995,-32.363,32.363,30.782,30.782,1.351,17.767,11.930,3.973,15.166,14.679,-3.347,12.367,11.414,17.147,2.647,11.182
Thu Dec 05 12:58:59 2024,0,-32.368,32.368,30.772,30.772,1.280,17.850,11.873,3.953,15.219,14.727,-3.335,12.415,11.416,17.138,2.659,11.116
Thu Dec 05 12:58:59 2024,5,-32.377,32.377,30.767,30.767,1.209,17.936,11.816,3.934,15.272,14.772,-3.324,12.462,11.417,17.129,2.669,11.051
Thu Dec 05 12:58:59 2024,10,-32.501,32.501,30.922,30.922,1.135,18.080,11.776,3.958,15.333,14.737,-3.367,12.501,11.367,17.168,2.630,10.998
Thu Dec 05 12:58:59 2024,15,-32.646,32.646,31.103,31.103,1.049,18.248,11.729,3.987,15.398,14.697,-3.415,12.546,11.308,17.213,2.583,10.938
Thu Dec 05 12:58:59 2024,20,-32.490,32.490,31.406,31.406,1.058,18.183,11.706,3.979,15.338,14.636,-3.458,12.413,11.290,17.165,2.603,10.953
Thu Dec 05 12:58:59 2024,25,-32.338,32.338,31.667,31.667,1.073,18.110,11.689,3.970,15.275,14.584,-3.492,12.289,11.278,17.118,2.622,10.971
Thu Dec 05 12:58:59 2024,30,-32.164,32.164,32.165,32.165,1.108,18.114,11.869,4.021,15.183,14.625,-3.536,12.199,11.283,17.164,2.537,11.004
Thu Dec 05 12:58:59 2024,35,-31.996,31.996,32.676,32.676,1.144,18.124,12.066,4.077,15.089,14.674,-3.579,12.116,11.290,17.220,2.439,11.038
Thu Dec 05 12:58:59 2024,40,-31.431,31.431,33.858,33.858,1.085,18.263,12.305,4.120,15.002,14.644,-3.701,11.924,11.214,17.241,2.338,11.011
Thu Dec 05 12:58:59 2024,45,-30.758,30.758,35.227,35.227,1.042,18.345,12.540,4.164,14.910,14.594,-3.854,11.700,11.080,17.284,2.214,11.000
Thu Dec 05 12:58:59 2024,50,-30.140,30.140,36.478,36.478,1.034,18.354,12.749,4.209,14.817,14.555,-3.999,11.494,10.935,17.349,2.086,11.011
Thu Dec 05 12:58:59 2024,55,-29.449,29.449,37.923,37.923,1.103,18.194,12.972,4.274,14.693,14.523,-4.177,11.253,10.714,17.490,1.902,11.084
Thu Dec 05 12:58:59 2024,60,-28.530,28.530,38.370,38.370,1.004,18.019,12.895,4.347,14.518,14.370,-4.421,10.954,10.487,17.463,1.936,10.922
Thu Dec 05 12:58:59 2024,65,-27.512,27.512,38.573,38.573,0.850,17.788,12.724,4.430,14.314,14.170,-4.702,10.614,10.243,17.382,2.038,10.683
Thu Dec 05 12:58:59 2024,70,-26.611,26.611,38.474,38.474,0.720,17.488,12.631,4.393,14.248,14.152,-4.725,10.295,10.137,17.130,2.230,10.651
Thu Dec 05 12:58:59 2024,75,-25.947,25.947,38.304,38.304,0.626,17.226,12.584,4.324,14.243,14.199,-4.654,10.048,10.100,16.874,2.406,10.692
Thu Dec 05 12:58:59 2024,80,-25.789,25.789,37.865,37.865,0.695,17.224,12.911,4.260,14.180,14.380,-4.695,9.783,10.138,16.694,2.514,10.891
Thu Dec 05 12:58:59 2024,85,-25.861,25.861,37.383,37.383,0.824,17.322,13.353,4.205,14.098,14.593,-4.777,9.544,10.202,16.568,2.581,11.132
Thu Dec 05 12:58:59 2024,90,-25.108,25.108,36.421,36.421,0.930,17.035,13.287,4.132,13.895,14.522,-4.956,8.958,10.042,16.296,2.777,11.212
Thu Dec 05 12:58:59 2024,95,-24.002,24.002,35.430,35.430,0.990,16.560,12.873,4.069,13.654,14.268,-5.146,8.297,9.770,16.001,3.004,11.150
Thu Dec 05 12:58:59 2024,100,-23.330,23.330,33.521,33.521,0.789,16.911,12.836,3.918,14.164,14.414,-5.275,8.136,9.602,15.736,3.392,11.126
Thu Dec 05 12:58:59 2024,105,-23.211,23.211,31.604,31.604,0.455,17.770,13.093,3.754,15.029,14.818,-5.320,8.399,9.567,15.585,3.753,11.141
Thu Dec 05 12:58:59 2024,110,-23.227,23.227,29.313,29.313,0.297,18.992,13.302,3.645,15.594,14.721,-5.419,9.071,9.371,15.554,3.999,10.924
Thu Dec 05 12:58:59 2024,115,-23.340,23.340,27.023,27.023,0.283,20.525,13.456,3.588,15.904,14.262,-5.544,9.949,9.080,15.617,4.112,10.560
Thu Dec 05 12:58:59 2024,120,-23.200,23.200,24.013,24.013,0.224,22.011,13.333,3.574,16.246,13.842,-5.475,11.128,8.878,15.674,4.210,10.046
Thu Dec 05 12:58:59 2024,125,-22.800,22.800,21.179,21.179,0.121,23.170,12.906,3.616,16.376,13.628,-5.201,12.266,8.867,15.696,4.269,9.536
Thu Dec 05 12:58:59 2024,130,-22.931,22.931,18.220,18.220,0.059,24.319,12.593,3.786,16.131,13.657,-4.909,13.231,8.937,15.808,4.190,9.085
Thu Dec 05 12:58:59 2024,135,-23.981,23.981,14.888,14.888,0.077,25.417,12.497,4.201,24.619,14.131,-4.573,13.932,9.138,16.092,3.908,8.739
Thu Dec 05 12:58:59 2024,140,-24.883,24.883,11.337,11.337,0.108,26.218,12.317,4.593,25.334,14.469,-4.225,14.543,9.324,16.352,3.635,8.461
Thu Dec 05 12:58:59 2024,145,-25.350,25.350,8.013,8.013,0.164,26.335,12.026,4.840,25.579,14.492,-3.938,14.887,9.442,16.499,3.465,8.358
Thu Dec 05 12:58:59 2024,150,-25.793,25.793,4.532,4.532,0.312,26.524,11.717,5.061,25.787,14.454,-3.615,15.255,9.510,16.684,3.250,8.282
Thu Dec 05 12:58:59 2024,155,-25.972,25.972,-2.539,2.539,0.536,26.746,11.531,5.127,25.830,14.328,-3.390,15.481,9.456,16.844,3.076,8.292
Thu Dec 05 12:58:59 2024,160,-26.062,26.062,-0.890,0.890,0.770,26.993,11.243,5.174,25.861,14.168,-3.199,15.731,9.384,17.015,2.893,8.268
Thu Dec 05 12:58:59 2024,165,-25.879,25.879,-1.574,-1.574,0.861,27.118,10.912,5.146,25.845,14.035,-3.220,15.865,9.314,17.098,2.813,8.180
Thu Dec 05 12:58:59 2024,170,-25.736,25.736,-2.653,-2.653,0.964,27.255,10.626,5.121,25.822,13.913,-3.245,15.983,9.257,17.145,2.770,8.097
Thu Dec 05 12:58:59 2024,175,-25.756,25.756,-3.145,-3.145,1.110,27.427,10.549,5.113,25.772,13.850,-3.286,16.059,9.257,17.037,2.882,8.039
Thu Dec 05 12:58:59 2024,180,-25.738,25.738,-3.617,-3.617,1.246,27.567,10.493,5.124,25.748,13.807,-3.315,16.116,9.259,16.957,2.968,7.990
Thu Dec 05 12:58:59 2024,185,-25.558,25.558,-3.969,-3.969,1.327,27.562,10.532,5.207,25.827,13.847,-3.287,16.121,9.266,16.992,2.939,7.980
Thu Dec 05 12:58:59 2024,190,-25.371,25.371,-4.301,-4.301,1.387,27.563,10.560,5.273,25.900,13.893,-3.268,16.130,9.275,17.025,2.912,7.976
Thu Dec 05 12:58:59 2024,195,-25.065,25.065,-4.571,-4.571,1.320,27.603,10.511,5.225,25.951,13.988,-3.312,16.171,9.291,17.038,2.892,8.009
Thu Dec 05 12:58:59 2024,200,-24.739,24.739,-4.841,-4.841,1.275,27.652,10.459,5.191,26.015,14.076,-3.349,16.204,9.299,17.044,2.881,8.020
Thu Dec 05 12:58:59 2024,205,-24.333,24.333,-5.029,-5.029,1.389,27.746,10.400,5.255,26.102,14.082,-3.327,16.206,9.248,17.002,2.938,7.875
Thu Dec 05 12:58:59 2024,210,-23.911,23.911,-5.218,-5.218,1.506,27.844,10.340,5.320,26.189,14.087,-3.306,16.208,9.197,16.956,2.998,7.731
Thu Dec 05 12:58:59 2024,215,-23.356,23.356,-5.320,-5.320,1.582,27.930,10.334,5.356,26.196,14.082,-3.338,16.195,9.176,16.894,3.066,7.702
Thu Dec 05 12:58:59 2024,220,-22.848,22.848,-5.414,-5.414,1.651,28.009,10.329,5.388,26.202,14.077,-3.368,16.181,9.157,16.837,3.129,7.674
Thu Dec 05 12:58:59 2024,225,-22.177,22.177,-5.519,-5.519,1.686,28.020,10.307,5.415,26.251,14.105,-3.388,16.162,9.142,16.770,3.201,7.676
Thu Dec 05 12:58:59 2024,230,-21.567,21.567,-5.614,-5.614,1.715,28.024,10.285,5.439,26.298,14.133,-3.406,16.145,9.128,16.708,3.266,7.679
Thu Dec 05 12:58:59 2024,235,-20.916,20.916,-5.768,-5.768,1.794,28.146,10.282,5.440,26.304,14.198,-3.450,16.093,9.094,16.630,3.355,7.462
Thu Dec 05 12:58:59 2024,240,-20.407,20.407,-5.895,-5.895,1.863,28.255,10.281,5.438,26.302,14.254,-3.488,16.049,9.066,16.567,3.426,7.266
Thu Dec 05 12:58:59 2024,245,-19.620,19.620,-6.105,-6.105,1.896,28.245,10.248,5.472,26.315,14.320,-3.515,15.963,9.016,16.589,3.407,7.233
Thu Dec 05 12:58:59 2024,250,-18.892,18.892,-6.301,-6.301,1.914,28.202,10.212,5.511,26.331,14.378,-3.534,15.879,8.969,16.630,3.366,7.254
Thu Dec 05 12:58:59 2024,255,-18.114,18.114,-6.372,-6.372,1.932,28.190,10.234,5.513,26.326,14.422,-3.580,15.824,8.938,16.537,3.462,7.184
Thu Dec 05 12:58:59 2024,260,-17.509,17.509,-6.398,-6.398,1.946,28.188,10.264,5.506,26.316,14.454,-3.620,15.788,8.917,16.435,3.565,7.113
Thu Dec 05 12:58:59 2024,265,-16.655,16.655,-6.554,-6.554,1.926,28.098,10.298,5.510,26.281,14.466,-3.577,15.826,8.970,16.387,3.614,7.077
Thu Dec 05 12:58:59 2024,270,-15.900,15.900,-6.719,-6.719,1.900,28.000,10.327,5.517,26.246,14.471,-3.518,15.880,9.034,16.365,3.636,7.060
Thu Dec 05 12:58:59 2024,275,-14.957,14.957,-6.853,-6.853,1.850,27.949,10.387,5.454,26.142,14.480,-3.534,15.863,9.052,16.246,3.755,7.018
Thu Dec 05 12:58:59 2024,280,-14.252,14.252,-6.938,-6.938,1.806,27.926,10.439,5.390,26.050,14.486,-3.567,15.832,9.052,16.134,3.866,6.982
Thu Dec 05 12:58:59 2024,285,-13.364,-13.364,-6.961,-6.961,1.748,27.910,10.519,5.348,25.973,14.463,-3.594,15.816,9.046,16.044,3.954,6.918
Thu Dec 05 12:58:59 2024,290,-12.420,-12.420,-6.932,-6.932,1.681,27.901,10.616,5.327,25.914,14.417,-3.614,15.813,9.039,15.977,4.015,6.836
Thu Dec 05 12:58:59 2024,295,-11.555,-11.555,-6.877,-6.877,1.548,27.914,10.690,5.283,25.837,14.435,-3.661,15.773,9.052,15.900,4.091,6.822
Thu Dec 05 12:58:59 2024,300,-10.706,-10.706,-6.797,-6.797,1.355,27.949,10.753,5.218,25.741,14.505,-3.732,15.700,9.084,15.809,4.185,6.863
Thu Dec 05 12:58:59 2024,305,-10.088,-10.088,-6.682,-6.682,1.238,27.980,10.800,5.206,25.716,14.544,-3.768,15.656,9.080,15.732,4.262,6.845
Thu Dec 05 12:58:59 2024,310,-9.654,-9.654,-6.507,-6.507,1.204,28.008,10.834,5.261,25.779,14.544,-3.762,15.640,9.029,15.660,4.328,6.749
Thu Dec 05 12:58:59 2024,315,-9.224,-9.224,-6.335,-6.335,1.166,28.048,10.875,5.310,25.834,14.550,-3.760,15.626,8.990,15.594,4.390,6.672
Thu Dec 05 12:58:59 2024,320,-8.686,-8.686,-5.972,-5.972,1.174,28.281,11.010,5.449,25.978,14.573,-3.717,15.657,8.994,15.560,4.422,6.648
Thu Dec 05 12:58:59 2024,325,-8.240,-8.240,-5.634,-5.634,1.168,28.462,11.136,5.554,26.076,14.581,-3.679,15.660,9.001,15.527,4.454,6.657
Thu Dec 05 12:58:59 2024,330,-8.014,-8.014,-5.460,-5.460,1.121,28.468,11.195,5.560,26.061,14.561,-3.672,15.606,8.991,15.485,4.492,6.688
Thu Dec 05 12:58:59 2024,335,-7.797,-7.797,-5.413,-5.413,1.085,28.572,11.244,5.596,26.095,14.542,-3.631,15.648,9.002,15.483,4.497,6.707
Thu Dec 05 12:58:59 2024,340,-7.632,-7.632,-5.514,-5.514,1.068,28.762,11.271,5.655,26.174,14.527,-3.562,15.785,9.033,15.522,4.463,6.708
Thu Dec 05 12:58:59 2024,345,-7.514,-7.514,-5.543,-5.543,1.039,28.935,11.293,5.659,26.197,14.502,-3.520,15.859,9.033,15.544,4.444,6.677
Thu Dec 05 12:58:59 2024,350,-7.469,-7.469,-5.471,-5.471,1.000,29.054,11.303,5.590,26.138,14.468,-3.525,15.836,8.989,15.538,4.449,6.610
Thu Dec 05 12:58:59 2024,355,-7.428,-7.428,-5.399,-5.399,0.966,29.150,11.311,5.557,26.113,14.441,-3.510,15.823,8.961,15.531,4.456,6.582
Thu Dec 05 12:58:59 2024,360,-7.391,-7.391,-5.332,-5.332,0.942,29.209,11.313,5.575,26.133,14.422,-3.468,15.826,8.954,15.524,4.462,6.608
Thu Dec 05 12:58:59 2024,365,-7.378,-7.378,-5.259,-5.259,0.939,29.302,11.335,5.589,26.141,14.404,-3.443,15.822,8.955,15.510,4.476,6.625
Thu Dec 05 12:58:59 2024,370,-7.395,-7.395,-5.165,-5.165,0.969,29.474,11.395,5.586,26.119,14.381,-3.448,15.807,8.964,15.480,4.503,6.617
Thu Dec 05 12:58:59 2024,375,-7.403,-7.403,-5.096,-5.096,0.997,29.602,11.436,5.590,26.108,14.363,-3.454,15.788,8.966,15.449,4.532,6.611
Thu Dec 05 12:58:59 2024,380,-7.351,-7.351,-5.144,-5.144,1.014,29.516,11.386,5.631,26.158,14.364,-3.458,15.742,8.935,15.411,4.572,6.610
Thu Dec 05 12:58:59 2024,385,-7.326,-7.326,-5.172,-5.172,1.017,29.453,11.344,5.666,26.209,14.360,-3.454,15.724,8.913,15.396,4.589,6.624
Thu Dec 05 12:58:59 2024,390,-7.364,-7.364,-5.143,-5.143,0.982,29.469,11.335,5.675,26.248,14.341,-3.431,15.781,8.921,15.445,4.544,6.672
Thu Dec 05 12:58:59 2024,395,-7.415,-7.415,-5.103,-5.103,0.954,29.502,11.334,5.688,26.289,14.324,-3.394,15.853,8.930,15.497,4.495,6.696
Thu Dec 05 12:58:59 2024,400,-7.501,-7.501,-5.022,-5.022,0.965,29.603,11.369,5.711,26.319,14.316,-3.302,15.969,8.940,15.545,4.443,6.609
Thu Dec 05 12:58:59 2024,405,-7.574,-7.574,-4.971,-4.971,0.974,29.679,11.395,5.732,26.351,14.311,-3.228,16.060,8.941,15.581,4.404,6.533
Thu Dec 05 12:58:59 2024,410,-7.585,-7.585,-5.037,-5.037,0.984,29.653,11.379,5.751,26.394,14.317,-3.227,16.054,8.902,15.565,4.422,6.496
Thu Dec 05 12:58:59 2024,415,-7.598,-7.598,-5.096,-5.096,0.990,29.619,11.365,5.767,26.429,14.322,-3.229,16.042,8.868,15.550,4.439,6.471
Thu Dec 05 12:58:59 2024,420,-7.728,-7.728,-4.951,-4.951,0.981,29.583,11.428,5.774,26.408,14.294,-3.163,16.099,8.894,15.601,4.385,6.488
Thu Dec 05 12:58:59 2024,425,-7.832,-7.832,-4.856,-4.856,0.976,29.568,11.470,5.782,26.401,14.276,-3.110,16.151,8.913,15.632,4.354,6.488
Thu Dec 05 12:58:59 2024,430,-7.871,-7.871,-4.899,-4.899,0.989,29.619,11.452,5.794,26.439,14.280,-3.089,16.200,8.914,15.601,4.383,6.431
Thu Dec 05 12:58:59 2024,435,-7.892,-7.892,-4.979,-4.979,1.006,29.687,11.419,5.806,26.489,14.291,-3.076,16.247,8.909,15.553,4.430,6.361
Thu Dec 05 12:58:59 2024,440,-8.016,-8.016,-4.903,-4.903,1.029,29.754,11.459,5.816,26.538,14.254,-3.039,16.367,8.918,15.578,4.410,6.375
Thu Dec 05 12:58:59 2024,445,-8.109,-8.109,-4.837,-4.837,1.044,29.799,11.494,5.823,26.570,14.224,-3.013,16.452,8.926,15.601,4.389,6.393
Thu Dec 05 12:58:59 2024,450,-8.226,-8.226,-4.789,-4.789,1.058,29.822,11.489,5.804,26.547,14.187,-2.981,16.458,8.895,15.633,4.360,6.403
Thu Dec 05 12:58:59 2024,455,-8.328,-8.328,-4.757,-4.757,1.068,29.835,11.474,5.782,26.513,14.156,-2.955,16.440,8.860,15.660,4.335,6.409
Thu Dec 05 12:58:59 2024,460,-8.421,-8.421,-4.762,-4.762,1.114,29.846,11.508,5.806,26.518,14.160,-2.926,16.459,8.839,15.663,4.331,6.365
Thu Dec 05 12:58:59 2024,465,-8.502,-8.502,-4.779,-4.779,1.169,29.855,11.556,5.842,26.535,14.175,-2.898,16.489,8.824,15.657,4.334,6.309
Thu Dec 05 12:58:59 2024,470,-8.594,-8.594,-4.731,-4.731,1.221,29.926,11.650,5.856,26.540,14.208,-2.896,16.520,8.877,15.642,4.351,6.359
Thu Dec 05 12:58:59 2024,475,-8.686,-8.686,-4.653,-4.653,1.274,30.027,11.767,5.857,26.537,14.248,-2.906,16.548,8.960,15.624,4.373,6.461
Thu Dec 05 12:58:59 2024,480,-8.728,-8.728,-4.635,-4.635,1.404,30.165,11.923,5.855,26.516,14.262,-2.894,16.548,8.950,15.624,4.373,6.474
Thu Dec 05 12:58:59 2024,485,-8.749,-8.749,-4.638,-4.638,1.549,30.302,12.077,5.851,26.491,14.267,-2.876,16.539,8.911,15.629,4.366,6.457
Thu Dec 05 12:58:59 2024,490,-8.801,-8.801,-4.631,-4.631,1.798,30.606,12.401,5.886,26.504,14.365,-2.881,16.565,8.931,15.649,4.346,6.502
Thu Dec 05 12:58:59 2024,495,-8.853,-8.853,-4.621,-4.621,2.024,30.903,12.710,5.928,26.530,14.477,-2.894,16.597,8.970,15.669,4.327,6.562
Thu Dec 05 12:58:59 2024,500,-8.906,-8.906,-4.574,-4.574,2.326,31.234,13.063,5.957,26.514,14.561,-2.875,16.579,9.012,15.648,4.346,6.603
Thu Dec 05 12:58:59 2024,505,-8.976,-8.976,-4.490,-4.490,2.756,31.676,13.533,5.985,26.469,14.647,-2.829,16.516,9.066,15.593,4.394,6.642
Thu Dec 05 12:58:59 2024,510,-9.025,-9.025,-4.445,-4.445,3.249,32.302,14.018,5.942,26.359,14.682,-2.838,16.444,9.007,15.515,4.465,6.596
Thu Dec 05 12:58:59 2024,515,-9.062,-9.062,-4.423,-4.423,3.726,32.960,14.468,5.869,26.229,14.687,-2.873,16.376,8.898,15.435,4.539,6.515
Thu Dec 05 12:58:59 2024,520,-9.129,-9.129,-4.345,-4.345,4.351,33.680,15.016,5.870,26.176,14.685,-2.894,16.272,8.793,15.342,4.618,6.438
Thu Dec 05 12:58:59 2024,525,-9.236,-9.236,-4.200,-4.200,5.253,34.621,15.813,5.952,26.199,14.670,-2.904,16.112,8.668,15.215,4.716,6.346
Thu Dec 05 12:58:59 2024,530,-9.304,-9.304,-4.106,-4.106,6.120,35.588,16.806,6.064,26.254,14.634,-2.903,15.988,8.540,15.072,4.824,6.243
Thu Dec 05 12:58:59 2024,535,-9.328,-9.328,-4.076,-4.076,7.043,36.704,18.230,6.235,13.632,14.562,-2.884,15.909,8.394,14.888,4.958,6.113
Thu Dec 05 12:58:59 2024,540,-9.379,-9.379,-4.066,-4.066,7.853,37.976,20.210,6.483,13.422,14.457,-2.912,15.842,8.261,14.694,5.108,6.009
Thu Dec 05 12:58:59 2024,545,-9.470,-9.470,-4.073,-4.073,8.738,39.718,23.345,6.876,13.060,14.291,-2.997,15.775,8.110,14.439,5.312,5.909
Thu Dec 05 12:58:59 2024,550,-9.528,-9.528,-4.096,-4.096,9.438,41.688,27.069,7.264,12.693,14.148,-3.083,15.662,8.001,14.224,5.477,5.797
Thu Dec 05 12:58:59 2024,555,-9.558,-9.558,-4.150,-4.150,10.074,44.542,32.966,7.752,12.220,14.000,-3.194,15.454,7.916,14.002,5.634,5.636
Thu Dec 05 12:58:59 2024,560,-9.485,-9.485,-4.369,-4.369,10.466,47.874,40.295,8.130,11.842,14.041,-3.097,15.540,7.999,13.880,5.733,5.542
Thu Dec 05 12:58:59 2024,565,-9.288,-9.288,-4.756,-4.756,10.491,51.409,49.012,8.322,11.630,14.304,-2.750,15.980,8.280,13.899,5.748,5.546
Thu Dec 05 12:58:59 2024,570,-9.086,-9.086,-5.133,-5.133,10.467,54.839,57.996,8.412,11.514,14.487,-2.429,16.487,8.511,13.911,5.747,5.543
Thu Dec 05 12:58:59 2024,575,-8.883,-8.883,-5.465,-5.465,10.256,57.659,65.870,8.245,11.643,14.471,-2.193,17.112,8.595,13.905,5.712,5.512
Thu Dec 05 12:58:59 2024,580,-8.727,-8.727,-5.661,-5.661,10.454,60.344,73.302,8.156,11.668,14.545,-2.078,17.458,8.594,13.798,5.751,5.448
Thu Dec 05 12:58:59 2024,585,-8.742,-8.742,-5.421,-5.421,11.657,61.440,75.692,8.324,28.608,14.872,-2.331,17.024,8.381,13.459,5.976,5.320
Thu Dec 05 12:58:59 2024,590,-8.754,-8.754,-5.217,-5.217,12.540,62.858,78.509,8.465,28.928,15.198,-2.503,16.762,8.272,13.186,6.174,5.306
Thu Dec 05 12:58:59 2024,595,-8.770,-8.770,-5.113,-5.113,12.344,65.291,82.704,8.519,29.390,15.533,-2.435,17.031,8.477,13.111,6.333,5.642
Thu Dec 05 12:58:59 2024,600,-8.801,-8.801,-5.005,-5.005,12.204,67.595,86.427,8.599,29.936,15.866,-2.350,17.282,8.715,13.064,6.446,5.986
Thu Dec 05 12:58:59 2024,605,-8.851,-8.851,-4.862,-4.862,12.182,69.352,88.925,8.846,30.554,16.219,-2.175,17.566,9.110,13.130,6.401,6.405
Thu Dec 05 12:58:59 2024,610,-8.900,-8.900,-4.729,-4.729,12.223,71.130,91.209,9.086,31.186,16.574,-2.021,17.826,9.492,13.189,6.359,6.790
Thu Dec 05 12:58:59 2024,615,-8.873,-8.873,-4.620,-4.620,12.599,73.113,92.929,9.402,31.931,16.983,-1.989,22.012,9.776,13.217,6.333,6.960
Thu Dec 05 12:58:59 2024,620,-8.853,-8.853,-4.518,-4.518,12.975,74.843,94.295,9.670,32.577,17.333,-1.961,21.963,10.016,13.232,6.318,7.106
Thu Dec 05 12:58:59 2024,625,-8.899,-8.899,-4.206,-4.206,13.557,76.548,95.424,9.869,33.009,17.479,-1.942,21.959,10.073,13.046,6.467,7.165
Thu Dec 05 12:58:59 2024,630,-8.952,-8.952,-3.852,-3.852,14.292,78.543,96.586,10.099,33.517,17.652,-1.914,21.964,10.140,12.833,6.633,7.229
Thu Dec 05 12:58:59 2024,635,-8.923,-8.923,-3.618,-3.618,14.822,79.897,97.145,10.252,33.916,17.764,-1.809,21.893,10.204,12.738,6.668,7.201
Thu Dec 05 12:58:59 2024,640,-8.896,-8.896,-3.372,-3.372,15.417,81.314,97.661,10.414,34.347,17.887,-1.701,21.835,10.270,12.633,6.710,7.173
Thu Dec 05 12:58:59 2024,645,-8.905,-8.905,-3.100,-3.100,16.044,82.493,97.904,10.585,34.898,18.036,-1.641,21.865,10.311,12.461,6.876,7.138
Thu Dec 05 12:58:59 2024,650,-8.912,-8.912,-2.880,-2.880,16.587,83.473,98.084,10.726,35.359,18.161,-1.592,21.906,10.345,12.319,7.013,7.110
Thu Dec 05 12:58:59 2024,655,-8.941,-8.941,-2.522,-2.522,17.010,84.218,98.328,10.772,35.742,18.345,-1.555,22.008,10.478,12.025,7.231,7.098
Thu Dec 05 12:58:59 2024,660,-8.966,-8.966,-2.262,-2.262,17.292,84.704,98.504,10.789,36.000,18.483,-1.532,22.098,10.584,11.797,7.390,7.094
Thu Dec 05 12:58:59 2024,665,-8.955,-8.955,-2.058,-2.058,17.835,85.439,98.552,10.894,36.368,18.574,-1.438,22.172,10.632,11.569,7.590,7.061
Thu Dec 05 12:58:59 2024,670,-8.938,-8.938,-1.932,-1.932,18.313,86.046,98.547,10.996,36.668,18.627,-1.350,22.231,10.650,11.404,7.748,7.030
Thu Dec 05 12:58:59 2024,675,-8.953,-8.953,-1.834,-1.834,18.458,86.430,98.564,11.032,36.944,18.658,-1.363,22.384,10.671,11.148,7.950,6.973
Thu Dec 05 12:58:59 2024,680,-8.972,-8.972,-1.762,-1.762,18.497,86.693,98.583,11.046,37.168,18.678,-1.399,22.533,10.690,10.915,8.125,6.922
Thu Dec 05 12:58:59 2024,685,-9.028,-9.028,-1.713,-1.713,18.553,87.006,98.546,11.065,37.381,18.679,-1.386,22.748,10.783,10.809,8.242,6.964
Thu Dec 05 12:58:59 2024,690,-9.094,-9.094,-1.672,-1.672,18.616,87.328,98.493,11.084,37.586,18.675,-1.361,22.989,10.897,10.741,8.340,7.032
Thu Dec 05 12:58:59 2024,695,-9.176,-9.176,-1.629,-1.629,18.632,87.479,98.402,11.084,37.694,18.617,-1.380,23.086,10.924,10.599,8.454,7.019
Thu Dec 05 12:58:59 2024,700,-9.248,-9.248,-1.599,-1.599,18.622,87.519,98.317,11.075,37.733,18.550,-1.414,23.094,10.906,10.458,8.544,6.974
Thu Dec 05 12:58:59 2024,705,-9.281,-9.281,-1.613,-1.613,18.419,87.566,98.333,11.053,37.722,18.475,-1.392,23.176,10.966,10.443,8.558,7.030
Thu Dec 05 12:58:59 2024,710,-9.286,-9.286,-1.644,-1.644,18.186,87.603,98.391,11.030,37.691,18.419,-1.349,23.272,11.046,10.495,8.529,7.119
Thu Dec 05 12:58:59 2024,715,-9.243,-9.243,-1.707,-1.707,18.065,87.387,98.465,11.009,37.562,18.327,-1.413,23.216,10.998,10.522,8.487,7.124
Thu Dec 05 12:58:59 2024,720,-9.187,-9.187,-1.773,-1.773,18.037,87.095,98.527,10.994,37.418,18.240,-1.518,23.103,10.894,10.530,8.449,7.082
Thu Dec 05 12:58:59 2024,725,-9.071,-9.071,-1.856,-1.856,17.793,86.707,98.565,10.946,37.249,18.148,-1.512,23.146,10.896,10.557,8.397,7.070
Thu Dec 05 12:58:59 2024,730,-8.940,-8.940,-1.932,-1.932,17.456,86.334,98.577,10.885,37.100,18.072,-1.432,23.287,10.967,10.592,8.347,7.081
Thu Dec 05 12:58:59 2024,735,-8.814,-8.814,-2.015,-2.015,17.124,85.872,98.518,10.753,36.793,17.946,-1.420,23.342,10.996,10.606,8.344,7.106
Thu Dec 05 12:58:59 2024,740,-8.711,-8.711,-2.093,-2.093,16.853,85.399,98.403,10.575,36.387,17.794,-1.474,23.302,10.979,10.599,8.384,7.139
Thu Dec 05 12:58:59 2024,745,-8.623,-8.623,-2.187,-2.187,16.386,84.626,98.246,10.399,36.050,17.697,-1.510,23.386,11.008,10.654,8.401,7.190
Thu Dec 05 12:58:59 2024,750,-8.551,-8.551,-2.290,-2.290,15.776,83.612,98.041,10.233,35.792,17.656,-1.526,23.580,11.078,10.763,8.391,7.254
Thu Dec 05 12:58:59 2024,755,-8.441,-8.441,-2.426,-2.426,15.331,82.638,97.731,10.083,35.506,17.611,-1.518,23.701,11.146,10.831,8.395,7.285
Thu Dec 05 12:58:59 2024,760,-8.298,-8.298,-2.586,-2.586,15.141,81.838,97.339,9.972,35.222,17.568,-1.478,23.713,11.204,10.838,8.422,7.270
Thu Dec 05 12:58:59 2024,765,-8.184,-8.184,-2.743,-2.743,14.882,81.040,96.950,9.856,34.974,17.535,-1.484,23.740,11.237,10.852,8.443,7.245
Thu Dec 05 12:58:59 2024,770,-8.082,-8.082,-2.956,-2.956,14.363,79.897,96.419,9.679,34.692,17.509,-1.584,23.811,11.237,10.890,8.461,7.188
Thu Dec 05 12:58:59 2024,775,-8.022,-8.022,-3.074,-3.074,13.876,78.647,95.672,9.506,34.422,17.466,-1.708,23.851,11.215,10.875,8.506,7.117
Thu Dec 05 12:58:59 2024,780,-8.032,-8.032,-3.031,-3.031,13.369,77.013,94.408,9.314,34.132,17.388,-1.895,23.847,11.152,10.761,8.611,7.009
Thu Dec 05 12:58:59 2024,785,-8.053,-8.053,-2.962,-2.962,12.889,75.119,92.601,9.143,33.832,17.300,-2.094,23.874,11.084,10.622,8.721,6.854
Thu Dec 05 12:58:59 2024,790,-8.122,-8.122,-2.813,-2.813,12.561,72.790,89.423,9.110,33.593,17.202,-2.270,23.969,11.021,10.430,8.804,6.560
Thu Dec 05 12:58:59 2024,795,-8.179,-8.179,-2.728,-2.728,12.121,70.510,85.986,9.082,33.360,17.081,-2.362,24.031,11.001,10.318,8.817,6.292
Thu Dec 05 12:58:59 2024,800,-8.152,-8.152,-2.932,-2.932,11.008,68.598,82.745,9.091,33.191,16.867,-2.080,23.920,11.166,10.583,8.548,6.174
Thu Dec 05 12:58:59 2024,805,-8.127,-8.127,-3.026,-3.026,10.107,67.308,79.209,9.082,33.059,16.553,-1.837,23.914,11.227,10.742,8.414,5.988
Thu Dec 05 12:58:59 2024,810,-8.096,-8.096,-2.849,-2.849,9.755,67.620,75.935,9.038,33.035,16.079,-1.740,24.121,11.039,10.628,8.616,5.690
Thu Dec 05 12:58:59 2024,815,-8.064,-8.064,-2.636,-2.636,9.193,66.916,70.636,9.000,32.940,15.643,-1.714,24.208,10.820,10.460,8.888,5.420
Thu Dec 05 12:58:59 2024,820,-8.065,-8.065,-2.436,-2.436,8.205,62.291,60.454,9.026,32.610,15.754,-2.025,23.659,10.647,10.182,9.274,5.509
Thu Dec 05 12:58:59 2024,825,-8.116,-8.116,-2.240,-2.240,7.473,57.923,51.123,8.970,32.218,15.760,-2.383,23.304,10.422,9.882,9.674,5.580
Thu Dec 05 12:58:59 2024,830,-8.212,-8.212,-2.060,-2.060,7.016,54.354,43.298,8.495,31.539,15.294,-2.962,23.481,9.975,9.578,10.055,5.575
Thu Dec 05 12:58:59 2024,835,-8.317,-8.317,-1.870,-1.870,6.629,50.509,35.599,7.942,30.752,14.742,-3.583,23.823,9.471,9.250,10.462,5.575
Thu Dec 05 12:58:59 2024,840,-8.182,-8.182,-1.955,-1.955,6.411,48.149,31.298,7.628,30.232,14.604,-3.350,23.524,9.226,9.381,10.370,5.655
Thu Dec 05 12:58:59 2024,845,-8.018,-8.018,-2.077,-2.077,6.177,45.350,26.495,7.245,29.600,14.437,-3.065,23.171,8.940,9.542,10.253,5.751
Thu Dec 05 12:58:59 2024,850,-7.859,-7.859,-2.312,-2.312,5.954,43.376,23.454,6.840,28.978,14.462,-2.755,22.853,8.847,9.772,10.058,5.721
Thu Dec 05 12:58:59 2024,855,-7.711,-7.711,-2.569,-2.569,5.710,41.270,20.333,6.397,28.299,14.478,-2.418,22.509,8.748,10.021,9.844,5.689
Thu Dec 05 12:58:59 2024,860,-7.674,-7.674,-2.656,-2.656,5.382,39.933,18.558,6.115,27.851,14.330,-2.162,22.276,8.807,10.162,9.734,5.700
Thu Dec 05 12:58:59 2024,865,-7.634,-7.634,-2.763,-2.763,4.992,38.332,16.480,5.772,27.307,14.151,-1.850,22.001,8.878,10.333,9.595,5.714
Thu Dec 05 12:58:59 2024,870,-7.595,-7.595,-2.991,-2.991,4.404,36.758,14.951,5.548,26.921,14.071,-1.686,21.861,9.077,10.454,9.504,5.780
Thu Dec 05 12:58:59 2024,875,-7.570,-7.570,-3.167,-3.167,3.971,35.654,13.942,5.402,26.664,14.026,-1.585,21.777,9.234,10.535,9.439,5.831
Thu Dec 05 12:58:59 2024,880,-7.596,-7.596,-3.286,-3.286,3.397,34.481,13.146,5.265,26.506,14.031,-1.396,21.772,9.458,10.756,9.236,5.955
Thu Dec 05 12:58:59 2024,885,-7.655,-7.655,-3.342,-3.342,2.825,33.473,12.644,5.160,26.450,14.073,-1.177,21.928,9.692,11.042,8.958,6.109
Thu Dec 05 12:58:59 2024,890,-7.636,-7.636,-3.478,-3.478,2.357,32.395,12.069,5.152,26.419,14.147,-0.979,22.080,9.916,11.325,8.672,6.252
Thu Dec 05 12:58:59 2024,895,-7.587,-7.587,-3.612,-3.612,2.077,31.604,11.634,5.193,26.410,14.216,-0.851,22.163,10.067,11.522,8.468,6.347
Thu Dec 05 12:58:59 2024,900,-7.569,-7.569,-3.663,-3.663,1.795,30.880,11.224,5.169,26.378,14.206,-0.742,22.260,10.131,11.675,8.304,6.390
Thu Dec 05 12:58:59 2024,905,-7.568,-7.568,-3.663,-3.663,1.524,30.227,10.844,5.109,26.333,14.151,-0.648,22.362,10.140,11.796,8.169,6.401
Thu Dec 05 12:58:59 2024,910,-7.574,-7.574,-3.699,-3.699,1.366,29.709,10.570,5.117,26.270,14.041,-0.575,22.391,10.142,11.830,8.128,6.321
Thu Dec 05 12:58:59 2024,915,-7.585,-7.585,-3.745,-3.745,1.298,29.371,10.411,5.156,26.215,13.929,-0.529,22.376,10.139,11.813,8.144,6.213
Thu Dec 05 12:58:59 2024,920,-7.580,-7.580,-3.768,-3.768,1.236,28.991,10.214,5.150,26.085,13.763,-0.428,22.414,10.141,11.840,8.106,6.190
Thu Dec 05 12:58:59 2024,925,-7.554,-7.554,-3.757,-3.757,1.201,28.688,10.038,5.094,25.914,13.590,-0.297,22.507,10.148,11.909,8.018,6.272
Thu Dec 05 12:58:59 2024,930,-7.552,-7.552,-3.755,-3.755,1.140,28.292,9.870,5.074,25.800,13.474,-0.205,22.520,10.144,11.903,8.017,6.262
Thu Dec 05 12:58:59 2024,935,-7.577,-7.577,-3.763,-3.763,1.050,27.797,9.707,5.092,25.743,13.419,-0.152,22.441,10.129,11.818,8.112,6.153
Thu Dec 05 12:58:59 2024,940,-7.614,-7.614,-3.750,-3.750,0.966,27.381,9.564,5.108,25.704,13.351,-0.091,22.374,10.096,11.802,8.133,6.065
Thu Dec 05 12:58:59 2024,945,-7.688,-7.688,-3.702,-3.702,0.867,26.954,9.400,5.129,25.675,13.236,0.000,22.302,10.023,11.893,8.041,5.978
Thu Dec 05 12:58:59 2024,950,-7.749,-7.749,-3.704,-3.704,0.744,26.561,9.287,5.116,25.615,13.174,0.063,22.276,9.995,11.937,7.993,5.958
Thu Dec 05 12:58:59 2024,955,-7.782,-7.782,-3.754,-3.754,0.615,26.253,9.237,5.073,25.533,13.170,0.057,22.294,10.016,11.930,7.994,6.006
Thu Dec 05 12:58:59 2024,960,-7.820,-7.820,-3.778,-3.778,0.460,25.806,9.129,5.020,25.428,13.136,0.070,22.326,10.056,11.946,7.974,6.054
Thu Dec 05 12:58:59 2024,965,-7.850,-7.850,-3.733,-3.733,0.298,25.215,8.935,4.962,25.308,13.051,0.103,22.376,10.127,12.004,7.912,6.086
Thu Dec 05 12:58:59 2024,970,-7.902,-7.902,-3.722,-3.722,0.128,24.562,8.769,4.908,25.214,12.992,0.176,22.439,10.164,12.071,7.848,6.070
Thu Dec 05 12:58:59 2024,975,-7.973,-7.973,-3.773,-3.773,-0.044,24.067,8.723,4.883,25.193,13.002,0.278,22.502,10.126,12.124,7.804,5.978
Thu Dec 05 12:58:59 2024,980,-8.085,-8.085,-3.812,-3.812,-0.182,23.430,8.664,4.872,25.182,12.991,0.422,22.611,10.073,12.199,7.740,5.838
Thu Dec 05 12:58:59 2024,985,-8.246,-8.246,-3.745,-3.745,-0.366,22.845,8.615,4.948,25.232,12.886,0.598,22.809,10.008,12.292,7.655,5.628
Thu Dec 05 12:58:59 2024,990,-8.381,-8.381,-3.692,-3.692,-0.515,22.399,8.567,5.017,25.285,12.805,0.752,22.971,9.953,12.368,7.586,5.465
Thu Dec 05 12:58:59 2024,995,-8.508,-8.508,-3.652,-3.652,-0.628,22.024,8.452,5.176,25.468,12.757,1.025,23.136,9.885,12.452,7.501,5.348
Thu Dec 05 12:59:00 2024,0,-8.636,-8.636,-3.611,-3.611,-0.745,21.691,8.340,5.325,25.638,12.706,1.278,23.302,9.813,12.524,7.429,5.230
Thu Dec 05 12:59:00 2024,5,-8.758,-8.758,-3.539,-3.539,-0.948,21.415,8.208,5.394,25.677,12.563,1.365,23.334,9.648,12.426,7.544,5.020
Thu Dec 05 12:59:00 2024,10,-8.874,-8.874,-3.468,-3.468,-1.122,21.290,8.097,5.467,25.727,12.438,1.460,23.369,9.500,12.352,7.628,4.832
Thu Dec 05 12:59:00 2024,15,-8.958,-8.958,-3.404,-3.404,-1.159,21.246,8.074,5.549,25.814,12.389,1.577,23.406,9.428,12.376,7.605,4.729
Thu Dec 05 12:59:00 2024,20,-9.065,-9.065,-3.324,-3.324,-1.194,21.220,8.051,5.650,25.921,12.336,1.722,23.459,9.346,12.411,7.569,4.612
Thu Dec 05 12:59:00 2024,25,-9.173,-9.173,-3.198,-3.198,-1.159,21.162,8.039,5.663,25.910,12.289,1.790,23.537,9.321,12.358,7.624,4.569
Thu Dec 05 12:59:00 2024,30,-9.285,-9.285,-3.069,-3.069,-1.126,21.130,8.026,5.676,25.900,12.242,1.859,23.617,9.295,12.305,7.679,4.527
Thu Dec 05 12:59:00 2024,35,-9.378,-9.378,-3.107,-3.107,-1.047,18.905,7.973,5.676,25.878,12.133,1.890,23.594,9.176,12.343,7.642,4.433
Thu Dec 05 12:59:00 2024,40,-9.463,-9.463,-3.155,-3.155,-0.974,18.898,7.923,5.675,25.859,12.031,1.914,23.566,9.063,12.383,7.602,4.345
Thu Dec 05 12:59:00 2024,45,-9.563,-9.563,-3.076,-3.076,-0.961,18.779,7.930,5.687,25.847,11.974,2.030,23.590,8.993,12.407,7.584,4.286
Thu Dec 05 12:59:00 2024,50,-9.660,-9.660,-2.983,-2.983,-0.958,18.628,7.943,5.699,25.837,11.928,2.153,23.625,8.934,12.426,7.569,4.234
Thu Dec 05 12:59:00 2024,55,-9.656,-9.656,-3.071,-3.071,-1.059,18.243,7.823,5.705,25.856,11.892,2.143,23.473,8.803,12.426,7.567,4.226
Thu Dec 05 12:59:00 2024,60,-9.633,-9.633,-3.172,-3.172,-1.152,17.911,7.707,5.707,25.876,11.868,2.110,23.327,8.696,12.423,7.569,4.228
Thu Dec 05 12:59:00 2024,65,-9.743,9.743,-3.133,-3.133,-1.211,17.756,7.656,5.723,25.901,11.830,2.138,23.252,8.567,12.404,7.589,4.148
Thu Dec 05 12:59:00 2024,70,-9.854,9.854,-3.066,-3.066,-1.239,17.712,7.643,5.738,25.919,11.801,2.176,23.226,8.478,12.386,7.607,4.072
Thu Dec 05 12:59:00 2024,75,-9.928,9.928,-3.072,-3.072,-1.294,17.559,7.572,5.789,26.008,11.709,2.245,23.306,8.361,12.443,7.550,3.999
Thu Dec 05 12:59:00 2024,80,-9.976,9.976,-3.109,-3.109,-1.353,17.376,7.483,5.849,26.123,11.601,2.319,23.423,8.248,12.526,7.466,3.938
Thu Dec 05 12:59:00 2024,85,-10.104,10.104,-3.061,-3.061,-1.412,17.148,7.462,5.906,26.210,11.592,2.368,23.458,8.179,12.545,7.450,3.846
Thu Dec 05 12:59:00 2024,90,-10.252,10.252,-2.977,-2.977,-1.462,16.932,7.478,5.954,26.268,11.631,2.396,23.448,8.142,12.529,7.469,3.754
Thu Dec 05 12:59:00 2024,95,-10.375,10.375,-2.919,-2.919,-1.419,16.792,7.485,6.054,26.394,11.638,2.452,23.533,8.111,12.547,7.453,3.660
Thu Dec 05 12:59:00 2024,100,-10.487,10.487,-2.872,-2.872,-1.334,16.682,7.489,6.180,26.551,11.630,2.520,23.663,8.081,12.578,7.422,3.564
Thu Dec 05 12:59:00 2024,105,-10.611,10.611,-2.772,-2.772,-1.280,16.583,7.498,6.343,26.759,11.695,2.596,23.780,8.088,12.612,7.387,3.509
Thu Dec 05 12:59:00 2024,110,-10.734,10.734,-2.647,-2.647,-1.247,16.498,7.508,6.520,26.985,11.799,2.672,23.883,8.114,12.644,7.354,3.480
Thu Dec 05 12:59:00 2024,115,-10.912,10.912,-2.607,-2.607,-1.196,16.487,7.511,6.679,27.212,11.884,2.711,23.930,8.083,12.676,7.320,3.389
Thu Dec 05 12:59:00 2024,120,-11.164,11.164,-2.667,-2.667,-1.124,16.565,7.505,6.819,27.443,11.947,2.707,23.911,7.983,12.706,7.284,3.224
Thu Dec 05 12:59:00 2024,125,-11.315,11.315,-2.687,-2.687,-1.051,16.657,7.522,6.968,27.683,12.058,2.702,23.860,7.934,12.752,7.235,3.156
Thu Dec 05 12:59:00 2024,130,-11.437,11.437,-2.684,-2.684,-0.955,16.790,7.562,7.169,28.006,12.237,2.693,23.772,7.908,12.823,7.164,3.135
Thu Dec 05 12:59:00 2024,135,-11.487,11.487,-2.697,-2.697,-0.908,16.860,7.577,7.298,28.240,12.366,2.657,23.704,7.882,12.865,7.120,3.122
Thu Dec 05 12:59:00 2024,140,-11.454,11.454,-2.735,-2.735,-0.913,16.869,7.566,7.368,28.421,12.466,2.577,23.643,7.850,12.882,7.101,3.115
Thu Dec 05 12:59:00 2024,145,-11.405,11.405,-2.783,-2.783,-0.964,16.876,7.546,7.381,28.554,12.549,2.495,23.541,7.803,12.878,7.103,3.105
Thu Dec 05 12:59:00 2024,150,-11.336,11.336,-2.845,-2.845,-1.075,16.877,7.513,7.322,28.625,12.605,2.411,23.386,7.737,12.844,7.131,3.090
Thu Dec 05 12:59:00 2024,155,-11.210,11.210,-2.909,-2.909,-1.175,16.882,7.448,7.311,28.774,12.713,2.316,23.226,7.684,12.839,7.133,3.082
Thu Dec 05 12:59:00 2024,160,-11.026,11.026,-2.964,-2.964,-1.240,16.897,7.348,7.372,29.006,12.876,2.225,23.094,7.661,12.876,7.096,3.088
Thu Dec 05 12:59:00 2024,165,-10.843,10.843,-3.005,-3.005,-1.260,16.955,7.283,7.467,29.281,13.048,2.149,22.965,7.638,12.906,7.063,3.083
Thu Dec 05 12:59:00 2024,170,-10.670,10.670,-3.012,-3.012,-1.173,17.116,7.306,7.644,29.642,13.230,2.108,22.851,7.615,12.919,7.039,3.054
Thu Dec 05 12:59:00 2024,175,-10.547,10.547,-3.017,-3.017,-1.111,17.242,7.322,7.790,29.998,13.411,2.065,22.786,7.604,12.952,6.997,3.021
Thu Dec 05 12:59:00 2024,180,-10.512,10.512,-3.020,-3.020,-1.096,17.328,7.326,7.919,30.506,13.669,1.996,22.830,7.618,13.058,6.888,2.966
Thu Dec 05 12:59:00 2024,185,-10.477,10.477,-3.018,-3.018,-1.070,17.397,7.320,8.051,30.994,13.872,1.950,22.894,7.635,13.143,6.796,2.915
Thu Dec 05 12:59:00 2024,190,-10.437,10.437,-3.008,-3.008,-1.020,17.432,7.294,8.199,31.421,13.951,1.957,22.997,7.661,13.181,6.740,2.869
Thu Dec 05 12:59:00 2024,195,-10.412,10.412,-2.973,-2.973,-0.957,17.495,7.274,8.380,31.907,14.062,1.974,23.101,7.692,13.204,6.692,2.799
Thu Dec 05 12:59:00 2024,200,-10.426,10.426,-2.871,-2.871,-0.857,17.635,7.272,8.656,32.550,14.266,2.022,23.204,7.733,13.184,6.665,2.666
Thu Dec 05 12:59:00 2024,205,-10.444,10.444,-2.764,-2.764,-0.757,17.780,7.286,8.930,33.197,14.478,2.053,23.292,7.782,13.166,6.630,2.552
Thu Dec 05 12:59:00 2024,210,-10.485,10.485,-2.595,-2.595,-0.643,17.974,7.410,9.243,33.941,14.809,1.982,23.294,7.873,13.160,6.579,2.538
Thu Dec 05 12:59:00 2024,215,-10.529,10.529,-2.464,-2.464,-0.540,18.154,7.530,9.561,34.699,15.149,1.917,23.322,7.959,13.145,6.527,2.501
Thu Dec 05 12:59:00 2024,220,-10.583,10.583,-2.531,-2.531,-0.502,18.239,7.566,9.896,35.483,15.508,1.927,23.519,7.999,13.073,6.494,2.308
Thu Dec 05 12:59:00 2024,225,-10.619,10.619,-2.570,-2.570,-0.456,18.300,7.608,10.204,36.233,15.896,1.919,23.716,8.066,12.990,6.466,2.152
Thu Dec 05 12:59:00 2024,230,-10.513,10.513,-2.384,-2.384,-0.317,18.168,7.713,10.394,37.043,16.774,1.722,23.973,8.402,12.774,6.581,2.234
Thu Dec 05 12:59:00 2024,235,-10.417,10.417,-2.225,-2.225,-0.189,18.039,7.807,10.544,37.738,17.574,1.550,24.227,8.702,12.595,6.673,2.316
Thu Dec 05 12:59:00 2024,240,-10.345,10.345,-2.308,-2.308,0.199,18.016,8.015,11.029,39.195,19.740,1.589,24.986,9.152,12.601,6.625,2.317
Thu Dec 05 12:59:00 2024,245,-10.261,10.261,-2.396,-2.396,0.644,17.899,8.226,11.574,40.906,22.278,1.630,25.883,9.650,12.619,6.570,2.336
Thu Dec 05 12:59:00 2024,250,-10.016,10.016,-2.366,-2.366,1.261,17.539,7.884,12.105,43.559,25.477,1.731,27.567,9.986,12.837,6.522,2.367
Thu Dec 05 12:59:00 2024,255,-9.752,9.752,-2.321,-2.321,1.915,17.065,7.476,12.605,46.431,28.871,1.803,29.373,10.307,13.075,6.456,2.407
Thu Dec 05 12:59:00 2024,260,-9.735,9.735,-2.140,-2.140,2.068,16.107,7.044,12.327,47.605,30.966,2.066,31.476,10.224,13.034,6.356,2.031
Thu Dec 05 12:59:00 2024,265,-9.755,9.755,-1.928,-1.928,2.181,14.913,6.592,11.918,48.767,33.314,2.372,33.809,10.072,12.959,6.209,1.660
Thu Dec 05 12:59:00 2024,270,-9.881,9.881,-1.671,-1.671,2.023,14.494,6.863,11.593,46.841,33.065,2.220,35.967,10.144,12.932,5.987,1.426
Thu Dec 05 12:59:00 2024,275,-9.984,-9.984,-1.501,-1.501,1.870,14.370,7.178,11.381,44.908,32.016,2.057,37.331,10.241,12.924,5.821,1.314
Thu Dec 05 12:59:00 2024,280,-9.874,-9.874,-1.173,-1.173,1.917,15.156,7.696,15.242,43.267,29.023,1.169,38.552,11.436,12.628,6.081,1.516
Thu Dec 05 12:59:00 2024,285,-9.693,-9.693,-0.851,-0.851,2.052,16.196,8.205,20.229,43.898,25.735,-1.038,39.565,13.035,12.236,6.522,1.898
Thu Dec 05 12:59:00 2024,290,-9.785,-9.785,-0.706,0.706,2.244,16.932,8.451,22.452,45.526,24.874,-1.728,40.589,14.500,11.872,6.598,1.792
Thu Dec 05 12:59:00 2024,295,-9.996,-9.996,-0.975,0.975,2.464,17.292,8.576,23.448,46.976,25.003,-2.292,41.553,15.879,11.535,6.470,1.611
Thu Dec 05 12:59:00 2024,300,-10.069,-10.069,-1.245,1.245,2.381,17.323,8.862,24.076,48.369,26.540,-2.980,42.505,17.571,11.286,6.379,1.844
Thu Dec 05 12:59:00 2024,305,-10.150,-10.150,-1.467,1.467,2.210,17.243,9.183,24.546,49.742,28.758,-3.698,43.436,19.384,11.089,6.292,2.483
Thu Dec 05 12:59:00 2024,310,-10.122,-10.122,-1.383,1.383,2.595,16.955,9.897,24.630,51.143,32.601,-3.976,45.270,22.246,11.145,6.170,3.579
Thu Dec 05 12:59:00 2024,315,-10.019,-10.019,-1.152,1.152,3.207,16.547,10.711,24.465,52.414,37.182,-3.999,47.358,25.477,11.322,6.059,4.730
Thu Dec 05 12:59:00 2024,320,-9.932,-9.932,-0.994,0.994,3.805,16.131,11.419,24.390,54.788,42.336,-3.974,50.212,28.990,11.538,6.061,5.581
Thu Dec 05 12:59:00 2024,325,-9.860,-9.860,-0.902,0.902,4.443,15.555,12.129,24.356,58.408,48.997,-4.035,53.949,33.557,11.796,6.125,6.302
Thu Dec 05 12:59:00 2024,330,-9.700,-9.700,-0.865,0.865,5.117,14.775,12.576,23.885,62.899,57.821,-4.416,58.061,39.143,11.873,6.436,6.815
Thu Dec 05 12:59:00 2024,335,-9.488,-9.488,-0.956,-0.956,5.792,26.146,12.796,23.008,68.168,68.403,-5.103,62.283,45.975,11.800,6.916,7.151
Thu Dec 05 12:59:00 2024,340,-9.329,-9.329,-1.030,-1.030,6.273,26.940,12.978,21.996,72.704,76.908,-5.729,65.764,52.760,11.894,7.184,7.478
Thu Dec 05 12:59:00 2024,345,-9.202,-9.202,-1.030,-1.030,6.611,27.636,13.132,20.918,76.596,83.602,-6.368,68.710,59.386,12.109,7.272,7.808
Thu Dec 05 12:59:00 2024,350,-9.052,-9.052,-1.046,-1.046,6.960,28.446,13.408,20.221,80.570,89.496,-7.217,71.679,66.657,12.301,7.342,8.315
Thu Dec 05 12:59:00 2024,355,-8.938,-8.938,-1.083,-1.083,7.173,29.018,13.691,20.236,82.838,92.461,7.823,73.378,71.113,12.388,7.389,8.787
Thu Dec 05 12:59:00 2024,360,-8.838,-8.838,-1.076,-1.076,7.278,29.545,14.034,20.334,84.957,94.713,8.484,74.976,74.871,12.532,7.352,9.197
Thu Dec 05 12:59:00 2024,365,-8.779,-8.779,-1.017,-1.017,7.238,29.847,14.314,20.436,86.205,95.656,8.914,75.925,76.682,12.684,7.255,9.387
Thu Dec 05 12:59:00 2024,370,-8.716,8.716,-0.948,-0.948,7.212,30.214,14.613,20.643,87.504,96.577,9.380,76.916,78.492,12.794,7.179,9.524
Thu Dec 05 12:59:00 2024,375,-8.658,8.658,-0.887,-0.887,7.235,30.541,14.814,20.912,88.326,97.162,9.668,77.548,79.567,12.762,7.220,9.472
Thu Dec 05 12:59:00 2024,380,-8.592,8.592,-0.836,-0.836,7.268,30.853,14.981,21.158,89.152,97.718,9.984,78.194,80.676,12.728,7.259,9.372
Thu Dec 05 12:59:00 2024,385,-8.505,8.505,-0.797,-0.797,7.326,31.138,15.080,21.346,90.016,98.257,10.369,78.895,81.918,12.691,7.297,9.170
Thu Dec 05 12:59:00 2024,390,-8.422,8.422,-0.762,-0.762,7.380,31.382,15.161,21.591,90.785,98.781,10.742,79.536,83.021,12.652,7.336,9.039
Thu Dec 05 12:59:00 2024,395,-8.331,8.331,-0.724,-0.724,7.435,31.591,15.222,21.954,91.514,99.402,11.140,80.181,84.073,12.605,7.384,8.999
Thu Dec 05 12:59:00 2024,400,-8.194,-8.194,-0.697,-0.697,7.523,31.836,15.274,22.394,92.388,100.155,11.637,80.935,85.356,12.548,7.442,8.889
Thu Dec 05 12:59:00 2024,405,-8.022,-8.022,-0.726,-0.726,7.639,31.966,15.244,22.611,92.912,100.681,11.937,81.335,86.285,12.513,7.481,8.643
Thu Dec 05 12:59:00 2024,410,-7.852,-7.852,-0.753,-0.753,7.767,32.111,15.212,22.874,93.547,101.325,12.362,81.857,87.368,12.457,7.539,8.345
Thu Dec 05 12:59:00 2024,415,-7.923,-7.923,-0.660,-0.660,7.802,32.159,15.196,22.988,94.019,101.912,12.973,82.460,88.069,12.348,7.649,8.094
Thu Dec 05 12:59:00 2024,420,-7.983,-7.983,-0.603,-0.603,7.841,32.210,15.181,23.103,94.461,102.461,13.605,83.026,88.701,12.243,7.755,7.863
Thu Dec 05 12:59:00 2024,425,-7.932,-7.932,-0.640,-0.640,7.932,32.310,15.178,23.117,94.721,102.972,14.254,83.372,89.139,12.144,7.855,7.714
Thu Dec 05 12:59:00 2024,430,-7.891,-7.891,-0.678,-0.678,8.018,32.401,15.171,23.156,94.990,103.466,14.930,83.709,89.549,12.046,7.954,7.572
Thu Dec 05 12:59:00 2024,435,-8.042,8.042,-0.711,-0.711,8.025,32.334,15.113,23.599,95.535,103.953,15.505,83.983,90.131,11.934,8.066,7.468
Thu Dec 05 12:59:00 2024,440,-8.186,8.186,-0.743,-0.743,8.032,32.272,15.059,24.025,96.049,104.396,16.065,84.241,90.652,11.830,8.170,7.374
Thu Dec 05 12:59:00 2024,445,-8.242,8.242,-0.766,-0.766,8.075,32.234,15.031,24.255,96.356,104.556,16.342,84.348,90.838,11.821,8.177,7.445
Thu Dec 05 12:59:00 2024,450,-8.296,8.296,-0.790,-0.790,8.114,32.204,15.017,24.466,96.640,104.679,16.592,84.441,90.989,11.808,8.186,7.522
Thu Dec 05 12:59:00 2024,455,-8.326,8.326,-0.814,-0.814,8.116,32.239,15.177,24.489,96.735,104.444,16.559,84.414,90.857,11.734,8.253,7.706
Thu Dec 05 12:59:00 2024,460,-8.353,8.353,-0.836,-0.836,8.113,32.278,15.342,24.493,96.806,104.195,16.503,84.376,90.707,11.661,8.318,7.886
Thu Dec 05 12:59:00 2024,465,-8.311,8.311,-0.849,-0.849,8.034,32.149,15.388,23.725,96.161,103.322,15.712,83.798,89.690,11.465,8.494,7.996
Thu Dec 05 12:59:00 2024,470,-8.272,8.272,-0.856,-0.856,7.967,32.032,15.397,23.090,95.601,102.609,15.074,83.315,88.828,11.312,8.628,8.059
Thu Dec 05 12:59:00 2024,475,-8.028,8.028,-0.884,-0.884,7.921,31.915,15.444,22.366,94.871,101.429,14.300,82.666,87.440,11.064,8.845,8.364
Thu Dec 05 12:59:00 2024,480,-7.721,7.721,-0.921,-0.921,7.877,31.789,15.503,21.599,94.058,100.037,13.482,81.940,85.805,10.776,9.090,8.755
Thu Dec 05 12:59:00 2024,485,-7.496,7.496,-0.843,-0.843,7.812,31.602,15.454,20.498,92.860,98.602,12.794,80.953,83.952,10.430,9.408,8.920
Thu Dec 05 12:59:00 2024,490,-7.302,7.302,-0.791,-0.791,7.750,31.420,15.393,19.481,91.702,97.216,12.195,80.002,82.160,10.100,9.714,9.045
Thu Dec 05 12:59:00 2024,495,-7.012,7.012,-0.789,0.789,7.647,31.215,15.265,18.196,89.615,95.483,11.024,78.083,78.977,9.598,10.174,9.144
Thu Dec 05 12:59:00 2024,500,-6.690,6.690,-0.822,0.822,7.526,31.010,15.106,17.018,87.117,93.466,9.696,75.737,74.977,9.026,29.309,9.258
Thu Dec 05 12:59:00 2024,505,-6.600,-6.600,-0.926,0.926,7.366,30.888,15.058,17.060,82.898,89.083,8.033,72.356,67.456,8.472,28.760,9.152
Thu Dec 05 12:59:00 2024,510,-6.609,-6.609,-1.085,1.085,7.215,30.816,15.058,18.205,78.721,83.612,6.655,69.138,59.840,8.001,28.274,9.004
Thu Dec 05 12:59:00 2024,515,-6.540,-6.540,-1.235,1.235,6.898,30.460,15.090,19.998,72.123,74.014,5.308,64.739,50.901,7.808,28.040,9.577
Thu Dec 05 12:59:00 2024,520,-6.441,-6.441,-1.407,1.407,6.530,30.000,15.135,21.878,65.424,62.904,4.209,60.250,43.628,7.769,12.046,10.409
Thu Dec 05 12:59:00 2024,525,-6.302,-6.302,-1.566,1.566,5.761,29.133,15.052,20.677,60.766,54.528,3.554,56.649,38.470,7.783,12.051,10.646
Thu Dec 05 12:59:00 2024,530,-6.114,-6.114,-1.716,1.716,4.570,27.860,14.857,17.210,56.836,47.519,3.193,53.276,33.801,7.843,11.990,10.456
Thu Dec 05 12:59:00 2024,535,-6.076,-6.076,-1.764,1.764,3.915,27.293,14.702,14.296,53.167,41.719,3.101,49.722,30.143,7.845,12.066,10.351
Thu Dec 05 12:59:00 2024,540,-6.144,-6.144,-1.736,1.736,3.675,27.234,14.590,11.956,49.947,37.158,3.265,46.272,27.332,7.797,12.189,10.304
Thu Dec 05 12:59:00 2024,545,-6.021,-6.021,-1.674,1.674,3.719,27.476,13.831,10.890,48.083,34.142,3.272,43.648,25.226,7.777,12.220,10.042
Thu Dec 05 12:59:00 2024,550,-5.634,-5.634,-1.558,1.558,4.093,28.145,12.030,10.640,46.770,31.103,3.067,40.785,22.723,7.782,12.210,9.439
Thu Dec 05 12:59:00 2024,555,-5.356,-5.356,-1.558,1.558,4.299,28.781,10.673,10.584,45.939,28.264,3.034,38.985,20.449,7.808,12.166,8.717
Thu Dec 05 12:59:00 2024,560,-5.156,-5.156,-1.644,1.644,4.381,29.425,9.614,10.665,45.429,25.345,3.113,37.920,18.192,7.849,12.080,7.871
Thu Dec 05 12:59:00 2024,565,-5.153,5.153,-1.672,1.672,4.280,29.812,8.948,10.550,44.356,22.717,3.218,37.031,16.561,7.902,11.972,7.308
Thu Dec 05 12:59:00 2024,570,-5.350,5.350,-1.641,1.641,4.016,29.923,8.713,10.261,42.835,20.503,3.334,36.378,15.630,7.969,11.859,7.063
Thu Dec 05 12:59:00 2024,575,-5.520,5.520,-1.546,1.546,3.837,29.937,8.502,9.963,41.329,18.693,3.396,35.644,14.803,8.086,28.312,6.999
Thu Dec 05 12:59:00 2024,580,-5.635,5.635,-1.369,1.369,3.787,29.801,8.337,9.673,39.927,17.513,3.383,34.843,14.174,8.269,28.550,7.197
Thu Dec 05 12:59:00 2024,585,-5.817,5.817,-1.219,1.219,3.717,29.609,8.238,9.294,38.288,16.265,3.310,33.869,13.485,8.510,28.857,7.458
Thu Dec 05 12:59:00 2024,590,-6.048,6.048,-1.172,1.172,3.635,29.384,8.337,8.884,36.867,15.436,3.134,32.961,12.978,8.768,29.166,7.720
Thu Dec 05 12:59:00 2024,595,-6.251,6.251,-1.123,1.123,3.566,29.230,8.430,8.539,35.664,14.724,2.957,32.060,12.495,9.007,29.438,7.926
Thu Dec 05 12:59:00 2024,600,-6.372,6.372,-1.068,1.068,3.530,29.281,8.512,8.343,34.970,14.280,2.741,31.052,12.000,9.214,29.624,7.966
Thu Dec 05 12:59:00 2024,605,-6.509,6.509,-1.022,1.022,3.506,29.309,8.606,8.158,34.375,13.939,2.541,30.122,11.534,9.382,29.761,7.960
Thu Dec 05 12:59:00 2024,610,-6.714,6.714,-0.979,0.979,3.510,29.270,8.760,7.978,33.941,13.815,2.358,29.238,11.036,9.465,29.782,7.825
Thu Dec 05 12:59:00 2024,615,-6.928,6.928,-0.956,0.956,3.543,29.274,8.931,7.796,33.504,13.712,2.190,28.362,10.579,9.518,29.780,7.696
Thu Dec 05 12:59:00 2024,620,-7.148,7.148,-0.965,0.965,3.706,29.464,9.152,7.643,33.100,13.700,2.116,27.600,10.285,9.438,10.346,7.609
Thu Dec 05 12:59:00 2024,625,-7.362,7.362,-0.975,0.975,3.863,29.659,9.357,7.476,32.681,13.675,2.050,26.909,10.021,9.352,10.466,7.523
Thu Dec 05 12:59:00 2024,630,-7.542,7.542,-0.990,0.990,3.999,29.930,9.450,7.199,32.092,13.535,2.083,26.640,9.880,9.218,10.576,7.427
Thu Dec 05 12:59:00 2024,635,-7.731,7.731,-1.009,1.009,4.141,30.205,9.552,6.914,31.486,13.399,2.122,26.372,9.743,9.087,29.317,7.328
Thu Dec 05 12:59:00 2024,640,-7.993,7.993,-1.037,1.037,4.311,30.373,9.804,6.723,30.940,13.497,2.323,26.291,9.787,9.083,29.339,7.247
Thu Dec 05 12:59:00 2024,645,-8.244,8.244,-1.064,1.064,4.471,30.533,10.041,6.540,30.424,13.585,2.511,26.224,9.829,9.079,29.362,7.171
Thu Dec 05 12:59:00 2024,650,-8.438,8.438,-1.113,1.113,4.502,30.676,10.216,6.338,29.996,13.636,2.640,26.320,9.922,9.048,29.360,7.090
Thu Dec 05 12:59:00 2024,655,-8.665,8.665,-1.181,1.181,4.536,30.838,10.410,6.107,29.501,13.681,2.790,26.436,10.028,9.006,29.357,6.998
Thu Dec 05 12:59:00 2024,660,-8.842,8.842,-1.152,1.152,4.528,30.899,10.445,5.965,29.156,13.615,2.929,26.561,10.083,8.913,29.303,6.931
Thu Dec 05 12:59:00 2024,665,-9.049,9.049,-1.118,1.118,4.513,30.958,10.469,5.808,28.764,13.521,3.091,26.715,10.145,8.797,29.234,6.856
Thu Dec 05 12:59:00 2024,670,-9.189,9.189,-1.160,1.160,4.467,30.939,10.512,5.678,28.548,13.518,3.145,26.834,10.224,8.698,29.150,6.770
Thu Dec 05 12:59:00 2024,675,-9.329,9.329,-1.213,1.213,4.421,30.920,10.556,5.548,28.332,13.513,3.199,26.953,10.301,8.601,29.065,6.686
Thu Dec 05 12:59:00 2024,680,-9.447,9.447,-1.240,1.240,4.391,30.948,10.556,5.374,28.027,13.390,3.246,26.962,10.264,8.554,29.026,6.556
Thu Dec 05 12:59:00 2024,685,-9.546,9.546,-1.258,1.258,4.367,30.984,10.546,5.208,27.734,13.252,3.287,26.944,10.203,8.525,29.002,6.430
Thu Dec 05 12:59:00 2024,690,-9.626,9.626,-1.267,1.267,4.278,30.981,10.551,5.000,27.452,13.148,3.304,26.990,10.194,8.542,29.052,6.388
Thu Dec 05 12:59:00 2024,695,-9.702,9.702,-1.273,1.273,4.163,30.966,10.561,4.774,27.169,13.054,3.312,27.060,10.203,8.576,29.131,6.377
Thu Dec 05 12:59:00 2024,700,-9.703,9.703,-1.310,1.310,4.106,31.009,10.574,4.584,26.870,12.922,3.366,27.153,10.219,8.579,29.154,6.397
Thu Dec 05 12:59:00 2024,705,-9.675,9.675,-1.374,1.374,4.064,31.084,10.589,4.375,26.513,12.753,3.447,27.273,10.241,8.570,29.156,6.435
Thu Dec 05 12:59:00 2024,710,-9.696,9.696,-1.378,1.378,4.077,31.175,10.676,4.258,26.254,12.696,3.496,27.336,10.294,8.642,29.202,6.382
Thu Dec 05 12:59:00 2024,715,-9.728,9.728,-1.366,1.366,4.102,31.261,10.772,4.173,26.040,12.672,3.534,27.382,10.351,8.728,29.255,6.312
Thu Dec 05 12:59:00 2024,720,-9.739,9.739,-1.383,1.383,4.108,31.276,10.795,4.059,25.763,12.571,3.512,27.428,10.407,8.823,29.309,6.238
Thu Dec 05 12:59:00 2024,725,-9.733,9.733,-1.421,1.421,4.099,31.238,10.764,3.933,25.463,12.421,3.448,27.474,10.459,8.918,29.361,6.168
Thu Dec 05 12:59:00 2024,730,-9.714,9.714,-1.447,1.447,4.140,31.207,10.793,3.894,25.281,12.395,3.495,27.642,10.629,9.055,29.434,6.112
Thu Dec 05 12:59:00 2024,735,-9.684,9.684,-1.474,1.474,4.213,31.171,10.860,3.888,25.121,12.427,3.610,27.910,10.899,9.244,29.543,6.052
Thu Dec 05 12:59:00 2024,740,-9.707,9.707,-1.507,1.507,4.222,31.086,10.977,3.759,24.765,12.360,3.558,28.017,11.064,9.436,10.342,6.017
Thu Dec 05 12:59:00 2024,745,-9.751,9.751,-1.539,1.539,4.202,30.991,11.101,3.594,24.382,12.260,3.444,28.045,11.163,9.604,10.233,5.997
Thu Dec 05 12:59:00 2024,750,-9.832,9.832,-1.634,1.634,4.150,30.882,11.269,3.465,24.098,12.287,3.375,28.346,11.469,9.824,10.069,6.020
Thu Dec 05 12:59:00 2024,755,-9.931,9.931,-1.773,1.773,4.082,30.787,11.440,3.401,23.965,12.428,3.364,28.834,11.901,10.041,9.891,6.078
Thu Dec 05 12:59:00 2024,760,-9.997,9.997,-1.862,1.862,3.981,30.604,11.569,3.374,23.871,12.536,3.343,29.466,12.396,10.274,9.690,6.074
Thu Dec 05 12:59:00 2024,765,-10.017,10.017,-1.879,1.879,3.874,30.382,11.628,3.388,23.838,12.589,3.316,30.085,12.837,10.469,9.514,6.014
Thu Dec 05 12:59:00 2024,770,-10.054,10.054,-1.928,1.928,3.774,30.218,11.727,3.494,23.950,12.742,3.347,31.015,13.497,10.732,9.262,6.016
Thu Dec 05 12:59:00 2024,775,-10.104,10.104,-2.013,2.013,3.709,30.186,11.858,3.707,24.253,13.007,3.459,32.152,14.310,11.023,8.975,6.115
Thu Dec 05 12:59:00 2024,780,-10.116,10.116,-2.043,2.043,3.631,30.165,11.880,3.923,24.593,13.190,3.581,33.132,14.994,11.180,8.819,6.192
Thu Dec 05 12:59:00 2024,785,-10.080,10.080,-2.006,2.006,3.535,30.156,11.771,4.148,24.990,13.280,3.722,33.948,15.540,11.177,8.818,6.249
Thu Dec 05 12:59:00 2024,790,-10.033,10.033,-2.010,2.010,3.440,30.189,11.705,4.436,25.431,13.369,3.954,35.042,16.360,11.123,8.863,6.429
Thu Dec 05 12:59:00 2024,795,-9.994,9.994,-2.093,2.093,3.412,30.282,11.772,4.650,25.638,13.398,4.208,35.916,17.142,11.004,8.966,6.730
Thu Dec 05 12:59:00 2024,800,-9.934,9.934,-2.175,2.175,3.366,30.390,11.802,4.884,25.872,13.393,4.436,36.763,17.917,10.850,9.099,7.015
Thu Dec 05 12:59:00 2024,805,-9.808,9.808,-2.254,2.254,3.262,30.551,11.728,5.182,26.191,13.287,4.590,37.540,18.664,10.591,9.335,7.258
Thu Dec 05 12:59:00 2024,810,-9.676,9.676,-2.330,2.330,3.160,30.691,11.651,5.444,26.498,13.191,4.723,38.279,19.342,10.359,9.541,7.487
