Timestamp,Millis,thumb_tm_aa,thumb_tm_flex,thumb_mcp_aa,thumb_mcp_flex,index_mcp_aa,index_mcp_flex,index_pip,middle_mcp_aa,middle_mcp_flex,middle_pip,ring_mcp_aa,ring_mcp_flex,ring_pip,little_mcp_aa,little_mcp_flex,little_pip
Thu Dec 05 12:35:58 2024,540,-26.028,-26.028,2.970,2.970,0.746,24.720,9.211,3.843,24.429,10.339,-6.074,13.028,6.923,1.778,16.821,6.006
Thu Dec 05 12:35:58 2024,545,-26.048,-26.048,2.988,2.988,0.716,24.670,9.212,3.886,24.450,10.302,-6.123,12.960,6.886,1.781,16.787,6.006
Thu Dec 05 12:35:58 2024,550,-26.060,-26.060,3.056,3.056,0.720,24.670,9.196,3.878,24.426,10.208,-6.204,12.852,6.775,1.720,16.827,5.914
Thu Dec 05 12:35:58 2024,555,-26.069,-26.069,3.122,3.122,0.726,24.679,9.170,3.861,24.404,10.107,-6.276,12.756,6.658,1.660,16.881,5.812
Thu Dec 05 12:35:58 2024,560,-26.082,-26.082,3.080,3.080,0.692,24.692,9.065,3.872,24.479,10.032,-6.228,12.835,6.594,1.739,16.936,5.768
Thu Dec 05 12:35:58 2024,565,-26.093,-26.093,3.028,3.028,0.656,24.703,8.962,3.885,24.562,9.968,-6.169,12.929,6.544,1.827,16.980,5.736
Thu Dec 05 12:35:58 2024,570,-26.117,-26.117,3.043,3.043,0.603,24.685,8.954,3.907,24.597,9.948,-6.169,12.930,6.532,1.848,16.974,5.747
Thu Dec 05 12:35:58 2024,575,-26.140,-26.140,3.096,3.096,0.554,24.652,9.010,3.929,24.590,9.961,-6.208,12.868,6.549,1.820,16.938,5.783
Thu Dec 05 12:35:58 2024,580,-26.166,-26.166,3.128,3.128,0.517,24.666,9.026,3.927,24.588,9.922,-6.265,12.807,6.500,1.782,16.943,5.755
Thu Dec 05 12:35:58 2024,585,-26.178,-26.178,3.109,3.109,0.517,24.739,8.977,3.892,24.595,9.827,-6.317,12.776,6.381,1.749,17.003,5.651
Thu Dec 05 12:35:58 2024,590,-26.184,-26.184,3.091,3.091,0.522,24.787,8.935,3.873,24.609,9.753,-6.354,12.744,6.283,1.727,17.033,5.567
Thu Dec 05 12:35:58 2024,595,-26.168,-26.168,3.069,3.069,0.547,24.771,8.910,3.901,24.643,9.720,-6.355,12.699,6.217,1.735,16.981,5.518
Thu Dec 05 12:35:58 2024,600,-26.149,-26.149,3.044,3.044,0.576,24.746,8.884,3.935,24.681,9.690,-6.351,12.648,6.151,1.746,16.915,5.468
Thu Dec 05 12:35:58 2024,605,-26.189,-26.189,3.154,3.154,0.554,24.793,8.906,3.918,24.651,9.667,-6.384,12.615,6.151,1.737,16.968,5.517
Thu Dec 05 12:35:58 2024,610,-26.236,-26.236,3.284,3.284,0.526,24.849,8.933,3.896,24.613,9.641,-6.422,12.579,6.153,1.726,17.032,5.577
Thu Dec 05 12:35:58 2024,615,-26.257,-26.257,3.314,3.314,0.504,24.861,8.933,3.864,24.580,9.622,-6.475,12.514,6.126,1.707,17.068,5.573
Thu Dec 05 12:35:58 2024,620,-26.268,-26.268,3.312,3.312,0.482,24.856,8.922,3.826,24.547,9.604,-6.537,12.437,6.086,1.685,17.095,5.546
Thu Dec 05 12:35:58 2024,625,-26.258,-26.258,3.298,3.298,0.473,24.844,8.914,3.808,24.536,9.588,-6.567,12.396,6.062,1.678,17.110,5.536
Thu Dec 05 12:35:58 2024,630,-26.197,-26.197,3.259,3.259,0.504,24.813,8.912,3.847,24.589,9.578,-6.508,12.465,6.086,1.711,17.094,5.573
Thu Dec 05 12:35:58 2024,635,-26.152,-26.152,3.230,3.230,0.524,24.791,8.910,3.873,24.626,9.570,-6.469,12.510,6.100,1.734,17.083,5.599
Thu Dec 05 12:35:58 2024,640,-26.087,-26.087,3.191,3.191,0.502,24.784,8.867,3.889,24.568,9.557,-6.539,12.414,6.082,1.668,17.119,5.609
Thu Dec 05 12:35:58 2024,645,-26.022,-26.022,3.153,3.153,0.485,24.774,8.827,3.907,24.524,9.543,-6.598,12.335,6.066,1.612,17.148,5.622
Thu Dec 05 12:35:58 2024,650,-26.037,-26.037,3.152,3.152,0.495,24.863,8.876,3.871,24.500,9.553,-6.574,12.390,6.059,1.611,17.185,5.599
Thu Dec 05 12:35:58 2024,655,-26.051,-26.051,3.153,3.153,0.505,24.936,8.916,3.840,24.483,9.562,-6.554,12.437,6.054,1.612,17.213,5.580
Thu Dec 05 12:35:58 2024,660,-26.053,-26.053,3.149,3.149,0.506,24.916,8.916,3.815,24.460,9.530,-6.537,12.472,6.044,1.658,17.234,5.581
Thu Dec 05 12:35:58 2024,665,-26.048,-26.048,3.144,3.144,0.504,24.857,8.896,3.801,24.442,9.491,-6.527,12.489,6.034,1.711,17.242,5.591
Thu Dec 05 12:35:58 2024,670,-26.049,-26.049,3.140,3.140,0.487,24.834,8.874,3.788,24.449,9.494,-6.533,12.483,6.047,1.711,17.256,5.596
Thu Dec 05 12:35:58 2024,675,-26.053,-26.053,3.137,3.137,0.459,24.837,8.850,3.775,24.478,9.531,-6.552,12.459,6.077,1.669,17.276,5.598
Thu Dec 05 12:35:58 2024,680,-26.058,-26.058,3.143,3.143,0.424,24.854,8.833,3.770,24.516,9.556,-6.572,12.455,6.107,1.630,17.296,5.607
Thu Dec 05 12:35:58 2024,685,-26.061,-26.061,3.169,3.169,0.392,24.887,8.839,3.784,24.552,9.525,-6.580,12.511,6.118,1.628,17.311,5.633
Thu Dec 05 12:35:58 2024,690,-26.064,-26.064,3.194,3.194,0.360,24.920,8.845,3.796,24.587,9.497,-6.589,12.562,6.130,1.626,17.326,5.658
Thu Dec 05 12:35:58 2024,695,-26.068,-26.068,3.220,3.220,0.367,24.875,8.839,3.778,24.505,9.465,-6.598,12.543,6.091,1.656,17.298,5.603
Thu Dec 05 12:35:58 2024,700,-26.070,-26.070,3.237,3.237,0.374,24.840,8.834,3.763,24.442,9.443,-6.604,12.526,6.061,1.679,17.276,5.559
Thu Dec 05 12:35:58 2024,705,-26.093,-26.093,3.251,3.251,0.384,24.872,8.870,3.718,24.363,9.415,-6.626,12.494,6.064,1.629,17.284,5.545
Thu Dec 05 12:35:58 2024,710,-26.114,-26.114,3.259,3.259,0.391,24.914,8.908,3.680,24.305,9.395,-6.646,12.468,6.075,1.574,17.298,5.544
Thu Dec 05 12:35:58 2024,715,-26.105,-26.105,3.243,3.243,0.367,24.844,8.894,3.661,24.277,9.382,-6.667,12.445,6.103,1.515,17.304,5.554
Thu Dec 05 12:35:58 2024,720,-26.074,-26.074,3.214,3.214,0.330,24.715,8.845,3.669,24.289,9.382,-6.679,12.435,6.131,1.484,17.301,5.569
Thu Dec 05 12:35:58 2024,725,-26.049,-26.049,3.201,3.201,0.321,24.653,8.825,3.704,24.343,9.396,-6.686,12.434,6.142,1.486,17.284,5.577
Thu Dec 05 12:35:58 2024,730,-26.044,-26.044,3.222,3.222,0.371,24.755,8.873,3.776,24.454,9.433,-6.681,12.450,6.113,1.555,17.248,5.568
Thu Dec 05 12:35:58 2024,735,-26.040,-26.040,3.244,3.244,0.423,24.858,8.922,3.849,24.568,9.470,-6.675,12.467,6.084,1.625,17.210,5.560
Thu Dec 05 12:35:58 2024,740,-26.054,-26.054,3.276,3.276,0.408,24.872,8.898,3.840,24.531,9.483,-6.696,12.441,6.099,1.598,17.247,5.572
Thu Dec 05 12:35:58 2024,745,-26.067,-26.067,3.304,3.304,0.395,24.882,8.876,3.831,24.496,9.496,-6.716,12.418,6.112,1.572,17.281,5.584
Thu Dec 05 12:35:58 2024,750,-26.054,-26.054,3.279,3.279,0.367,24.858,8.863,3.788,24.451,9.471,-6.703,12.424,6.092,1.566,17.253,5.556
Thu Dec 05 12:35:58 2024,755,-26.036,-26.036,3.245,3.245,0.339,24.828,8.851,3.741,24.406,9.441,-6.684,12.434,6.067,1.563,17.216,5.521
Thu Dec 05 12:35:58 2024,760,-26.065,-26.065,3.264,3.264,0.310,24.810,8.866,3.694,24.352,9.429,-6.704,12.400,6.054,1.556,17.234,5.520
Thu Dec 05 12:35:58 2024,765,-26.108,-26.108,3.308,3.308,0.288,24.803,8.890,3.661,24.307,9.430,-6.740,12.350,6.052,1.550,17.278,5.536
Thu Dec 05 12:35:58 2024,770,-26.136,-26.136,3.330,3.330,0.276,24.796,8.894,3.633,24.282,9.429,-6.758,12.322,6.049,1.558,17.304,5.544
Thu Dec 05 12:35:58 2024,775,-26.107,-26.107,3.293,3.293,0.287,24.792,8.846,3.628,24.322,9.420,-6.728,12.358,6.039,1.604,17.275,5.530
Thu Dec 05 12:35:58 2024,780,-26.084,-26.084,3.262,3.262,0.296,24.788,8.805,3.622,24.354,9.412,-6.703,12.386,6.031,1.643,17.252,5.518
Thu Dec 05 12:35:58 2024,785,-26.092,-26.092,3.254,3.254,0.268,24.746,8.783,3.593,24.328,9.429,-6.733,12.346,6.060,1.612,17.269,5.566
Thu Dec 05 12:35:58 2024,790,-26.104,-26.104,3.247,3.247,0.235,24.699,8.762,3.561,24.296,9.448,-6.769,12.298,6.093,1.573,17.290,5.621
Thu Dec 05 12:35:58 2024,795,-26.110,-26.110,3.200,3.200,0.255,24.688,8.802,3.582,24.298,9.476,-6.766,12.255,6.076,1.526,17.227,5.577
Thu Dec 05 12:35:58 2024,800,-26.116,-26.116,3.153,3.153,0.280,24.683,8.846,3.607,24.303,9.502,-6.758,12.215,6.054,1.482,17.157,5.527
Thu Dec 05 12:35:58 2024,805,-26.111,-26.111,3.138,3.138,0.313,24.699,8.886,3.618,24.311,9.521,-6.754,12.194,6.047,1.495,17.111,5.506
Thu Dec 05 12:35:58 2024,810,-26.098,-26.098,3.149,3.149,0.349,24.729,8.922,3.617,24.320,9.534,-6.752,12.188,6.052,1.553,17.086,5.509
Thu Dec 05 12:35:58 2024,815,-26.098,-26.098,3.164,3.164,0.369,24.724,8.922,3.620,24.320,9.541,-6.744,12.183,6.066,1.568,17.068,5.519
Thu Dec 05 12:35:58 2024,820,-26.121,-26.121,3.192,3.192,0.368,24.643,8.853,3.633,24.305,9.543,-6.721,12.175,6.101,1.501,17.053,5.546
Thu Dec 05 12:35:58 2024,825,-26.144,-26.144,3.224,3.224,0.375,24.602,8.815,3.646,24.302,9.555,-6.697,12.175,6.127,1.469,17.037,5.560
Thu Dec 05 12:35:58 2024,830,-26.173,-26.173,3.268,3.268,0.402,24.655,8.848,3.660,24.330,9.595,-6.669,12.197,6.133,1.516,17.020,5.543
Thu Dec 05 12:35:58 2024,835,-26.198,-26.198,3.306,3.306,0.425,24.706,8.880,3.673,24.356,9.631,-6.645,12.216,6.137,1.562,17.006,5.526
Thu Dec 05 12:35:58 2024,840,-26.166,-26.166,3.251,3.251,0.481,24.788,8.939,3.695,24.394,9.708,-6.634,12.270,6.220,1.582,17.028,5.592
Thu Dec 05 12:35:58 2024,845,-26.134,-26.134,3.195,3.195,0.534,24.868,8.997,3.717,24.432,9.782,-6.624,12.321,6.301,1.600,17.050,5.659
Thu Dec 05 12:35:58 2024,850,-26.132,-26.132,3.180,3.180,0.572,24.909,9.049,3.736,24.447,9.852,-6.596,12.366,6.386,1.623,17.023,5.713
Thu Dec 05 12:35:58 2024,855,-26.141,-26.141,3.185,3.185,0.595,24.927,9.088,3.750,24.451,9.904,-6.568,12.399,6.453,1.642,16.985,5.749
Thu Dec 05 12:35:58 2024,860,-26.149,-26.149,3.188,3.188,0.613,24.942,9.118,3.762,24.454,9.945,-6.547,12.425,6.506,1.657,16.955,5.778
Thu Dec 05 12:35:58 2024,865,-26.164,-26.164,3.211,3.211,0.673,25.041,9.230,3.812,24.506,10.046,-6.482,12.518,6.608,1.781,16.909,5.854
Thu Dec 05 12:35:58 2024,870,-26.176,-26.176,3.227,3.227,0.715,25.110,9.309,3.848,24.540,10.122,-6.435,12.583,6.686,1.864,16.871,5.910
Thu Dec 05 12:35:58 2024,875,-26.173,-26.173,3.204,3.204,0.735,25.072,9.280,3.867,24.514,10.164,-6.416,12.569,6.722,1.833,16.777,5.891
Thu Dec 05 12:35:58 2024,880,-26.172,-26.172,3.191,3.191,0.753,25.055,9.269,3.884,24.501,10.200,-6.397,12.567,6.754,1.820,16.707,5.885
Thu Dec 05 12:35:58 2024,885,-26.139,-26.139,3.149,3.149,0.776,25.127,9.302,3.872,24.505,10.258,-6.397,12.586,6.791,1.851,16.755,5.923
Thu Dec 05 12:35:58 2024,890,-26.103,-26.103,3.105,3.105,0.800,25.205,9.338,3.858,24.510,10.321,-6.396,12.606,6.831,1.883,16.803,5.964
Thu Dec 05 12:35:58 2024,895,-26.091,-26.091,3.134,3.134,0.804,25.205,9.339,3.842,24.500,10.327,-6.407,12.597,6.833,1.868,16.793,5.964
Thu Dec 05 12:35:58 2024,900,-26.083,-26.083,3.176,3.176,0.801,25.186,9.333,3.827,24.489,10.320,-6.421,12.582,6.825,1.844,16.772,5.954
Thu Dec 05 12:35:58 2024,905,-26.078,-26.078,3.196,3.196,0.792,25.162,9.338,3.808,24.474,10.329,-6.430,12.575,6.834,1.833,16.768,5.958
Thu Dec 05 12:35:58 2024,910,-26.081,-26.081,3.142,3.142,0.765,25.132,9.373,3.789,24.457,10.380,-6.422,12.592,6.885,1.868,16.824,6.000
Thu Dec 05 12:35:58 2024,915,-26.080,-26.080,3.114,3.114,0.743,25.099,9.377,3.774,24.451,10.406,-6.417,12.599,6.904,1.872,16.845,6.014
Thu Dec 05 12:35:58 2024,920,-26.066,-26.066,3.112,3.112,0.712,25.039,9.293,3.770,24.488,10.386,-6.408,12.588,6.846,1.808,16.803,5.958
Thu Dec 05 12:35:58 2024,925,-26.055,-26.055,3.108,3.108,0.686,24.988,9.224,3.766,24.518,10.370,-6.401,12.580,6.800,1.755,16.765,5.912
Thu Dec 05 12:35:58 2024,930,-26.080,-26.080,3.130,3.130,0.710,24.955,9.262,3.770,24.483,10.357,-6.410,12.594,6.828,1.772,16.763,5.895
Thu Dec 05 12:35:58 2024,935,-26.101,-26.101,3.149,3.149,0.730,24.928,9.293,3.774,24.456,10.346,-6.418,12.606,6.851,1.785,16.760,5.880
Thu Dec 05 12:35:58 2024,940,-26.116,-26.116,3.177,3.177,0.724,24.938,9.286,3.730,24.412,10.333,-6.432,12.615,6.859,1.771,16.809,5.922
Thu Dec 05 12:35:58 2024,945,-26.128,-26.128,3.202,3.202,0.711,24.960,9.268,3.678,24.371,10.320,-6.445,12.623,6.862,1.752,16.865,5.975
Thu Dec 05 12:35:58 2024,950,-26.123,-26.123,3.181,3.181,0.708,24.992,9.286,3.677,24.374,10.332,-6.438,12.654,6.878,1.747,16.878,5.980
Thu Dec 05 12:35:58 2024,955,-26.107,-26.107,3.131,3.131,0.711,25.024,9.326,3.712,24.408,10.359,-6.417,12.698,6.903,1.754,16.857,5.948
Thu Dec 05 12:35:58 2024,960,-26.101,-26.101,3.109,3.109,0.711,25.050,9.338,3.727,24.422,10.368,-6.404,12.726,6.922,1.768,16.860,5.941
Thu Dec 05 12:35:58 2024,965,-26.112,-26.112,3.136,3.136,0.704,25.063,9.303,3.709,24.402,10.346,-6.404,12.727,6.934,1.797,16.904,5.975
Thu Dec 05 12:35:58 2024,970,-26.121,-26.121,3.158,3.158,0.705,25.080,9.273,3.696,24.386,10.321,-6.405,12.728,6.938,1.822,16.940,6.002
Thu Dec 05 12:35:58 2024,975,-26.110,-26.110,3.133,3.133,0.753,25.110,9.305,3.733,24.409,10.289,-6.400,12.721,6.891,1.810,16.896,5.958
Thu Dec 05 12:35:58 2024,980,-26.100,-26.100,3.110,3.110,0.798,25.138,9.336,3.769,24.432,10.260,-6.396,12.715,6.847,1.798,16.854,5.916
Thu Dec 05 12:35:58 2024,985,-26.093,-26.093,3.121,3.121,0.775,25.110,9.322,3.762,24.427,10.253,-6.432,12.671,6.834,1.793,16.885,5.942
Thu Dec 05 12:35:58 2024,990,-26.086,-26.086,3.140,3.140,0.737,25.071,9.298,3.747,24.417,10.250,-6.476,12.622,6.829,1.788,16.931,5.982
Thu Dec 05 12:35:58 2024,995,-26.098,-26.098,3.144,3.144,0.726,25.045,9.276,3.730,24.378,10.238,-6.487,12.597,6.815,1.792,16.941,5.993
Thu Dec 05 12:35:59 2024,0,-26.118,-26.118,3.141,3.141,0.730,25.027,9.255,3.713,24.326,10.222,-6.482,12.584,6.798,1.801,16.932,5.991
Thu Dec 05 12:35:59 2024,5,-26.124,-26.124,3.128,3.128,0.737,25.013,9.267,3.700,24.301,10.222,-6.462,12.604,6.820,1.817,16.914,5.996
Thu Dec 05 12:35:59 2024,10,-26.109,-26.109,3.108,3.108,0.745,25.012,9.317,3.698,24.320,10.241,-6.433,12.658,6.882,1.836,16.890,6.007
Thu Dec 05 12:35:59 2024,15,-26.103,-26.103,3.100,3.100,0.752,25.016,9.353,3.696,24.334,10.255,-6.413,12.696,6.923,1.848,16.874,6.013
Thu Dec 05 12:35:59 2024,20,-26.146,-26.146,3.162,3.162,0.759,25.058,9.356,3.694,24.342,10.256,-6.429,12.690,6.893,1.841,16.882,5.989
Thu Dec 05 12:35:59 2024,25,-26.188,-26.188,3.223,3.223,0.766,25.099,9.358,3.692,24.350,10.255,-6.445,12.683,6.863,1.833,16.889,5.965
Thu Dec 05 12:35:59 2024,30,-26.164,-26.164,3.207,3.207,0.773,25.093,9.301,3.747,24.392,10.189,-6.447,12.638,6.776,1.821,16.853,5.897
Thu Dec 05 12:35:59 2024,35,-26.134,-26.134,3.188,3.188,0.781,25.085,9.231,3.815,24.445,10.109,-6.450,12.581,6.668,1.806,16.807,5.812
Thu Dec 05 12:35:59 2024,40,-26.136,-26.136,3.161,3.161,0.740,25.080,9.215,3.816,24.462,10.118,-6.439,12.604,6.696,1.831,16.841,5.846
Thu Dec 05 12:35:59 2024,45,-26.146,-26.146,3.139,3.139,0.696,25.078,9.218,3.800,24.465,10.150,-6.428,12.643,6.755,1.860,16.888,5.903
Thu Dec 05 12:35:59 2024,50,-26.143,-26.143,3.117,3.117,0.686,25.112,9.244,3.785,24.462,10.178,-6.413,12.676,6.803,1.885,16.904,5.949
Thu Dec 05 12:35:59 2024,55,-26.128,-26.128,3.108,3.108,0.716,25.167,9.280,3.780,24.454,10.188,-6.401,12.685,6.816,1.894,16.882,5.960
Thu Dec 05 12:35:59 2024,60,-26.126,-26.126,3.109,3.109,0.743,25.212,9.303,3.782,24.459,10.197,-6.403,12.679,6.814,1.884,16.875,5.953
Thu Dec 05 12:35:59 2024,65,-26.158,-26.158,3.137,3.137,0.747,25.207,9.278,3.803,24.495,10.200,-6.438,12.632,6.772,1.829,16.913,5.903
Thu Dec 05 12:35:59 2024,70,-26.188,-26.188,3.166,3.166,0.750,25.200,9.255,3.822,24.523,10.200,-6.476,12.582,6.730,1.773,16.948,5.857
Thu Dec 05 12:35:59 2024,75,-26.170,-26.170,3.180,3.180,0.733,25.170,9.278,3.788,24.417,10.154,-6.508,12.541,6.719,1.755,16.910,5.895
Thu Dec 05 12:35:59 2024,80,-26.151,-26.151,3.189,3.189,0.716,25.144,9.301,3.756,24.320,10.111,-6.535,12.505,6.712,1.742,16.874,5.934
Thu Dec 05 12:35:59 2024,85,-26.168,-26.168,3.173,3.173,0.696,25.154,9.304,3.746,24.336,10.143,-6.529,12.514,6.741,1.761,16.871,5.934
Thu Dec 05 12:35:59 2024,90,-26.192,-26.192,3.150,3.150,0.677,25.175,9.300,3.741,24.383,10.192,-6.515,12.535,6.777,1.788,16.878,5.924
Thu Dec 05 12:35:59 2024,95,-26.186,-26.186,3.127,3.127,0.686,25.214,9.289,3.758,24.425,10.199,-6.498,12.566,6.779,1.805,16.887,5.909
Thu Dec 05 12:35:59 2024,100,-26.156,-26.156,3.107,3.107,0.716,25.264,9.275,3.790,24.458,10.172,-6.480,12.600,6.753,1.811,16.898,5.893
Thu Dec 05 12:35:59 2024,105,-26.137,-26.137,3.106,3.106,0.733,25.281,9.257,3.803,24.468,10.145,-6.475,12.613,6.727,1.811,16.922,5.894
Thu Dec 05 12:35:59 2024,110,-26.149,-26.149,3.150,3.150,0.706,25.215,9.239,3.770,24.419,10.134,-6.502,12.567,6.712,1.798,16.965,5.936
Thu Dec 05 12:35:59 2024,115,-26.161,-26.161,3.192,3.192,0.682,25.153,9.223,3.739,24.374,10.124,-6.528,12.524,6.699,1.786,17.005,5.975
Thu Dec 05 12:35:59 2024,120,-26.154,-26.154,3.212,3.212,0.686,25.160,9.196,3.741,24.398,10.100,-6.528,12.533,6.692,1.788,16.991,5.944
Thu Dec 05 12:35:59 2024,125,-26.148,-26.148,3.233,3.233,0.688,25.164,9.169,3.742,24.421,10.077,-6.529,12.541,6.684,1.789,16.980,5.914
Thu Dec 05 12:35:59 2024,130,-26.135,-26.135,3.202,3.202,0.699,25.235,9.201,3.781,24.485,10.057,-6.502,12.585,6.675,1.804,16.994,5.914
Thu Dec 05 12:35:59 2024,135,-26.123,-26.123,3.168,3.168,0.710,25.300,9.236,3.818,24.541,10.043,-6.477,12.626,6.668,1.819,17.009,5.919
Thu Dec 05 12:35:59 2024,140,-26.112,-26.112,3.134,3.134,0.721,25.368,9.273,3.857,24.599,10.029,-6.451,12.669,6.661,1.834,17.025,5.925
Thu Dec 05 12:35:59 2024,145,-26.150,-26.150,3.177,3.177,0.671,25.217,9.130,3.808,24.514,9.925,-6.544,12.518,6.510,1.818,16.992,5.788
Thu Dec 05 12:35:59 2024,150,-26.170,-26.170,3.194,3.194,0.644,25.145,9.056,3.790,24.479,9.862,-6.591,12.441,6.420,1.813,16.977,5.710
Thu Dec 05 12:35:59 2024,155,-26.186,-26.186,3.221,3.221,0.624,25.087,9.110,3.802,24.515,9.908,-6.595,12.432,6.481,1.787,17.034,5.808
Thu Dec 05 12:35:59 2024,160,-26.200,-26.200,3.241,3.241,0.606,25.037,9.130,3.807,24.531,9.926,-6.607,12.411,6.503,1.769,17.068,5.856
Thu Dec 05 12:35:59 2024,165,-26.182,-26.182,3.170,3.170,0.552,25.042,9.099,3.744,24.452,9.875,-6.656,12.367,6.463,1.774,17.082,5.832
Thu Dec 05 12:35:59 2024,170,-26.166,-26.166,3.108,3.108,0.500,25.044,9.072,3.688,24.380,9.830,-6.700,12.324,6.428,1.776,17.096,5.813
Thu Dec 05 12:35:59 2024,175,-26.152,-26.152,3.094,3.094,0.520,25.063,9.090,3.709,24.391,9.836,-6.666,12.367,6.440,1.802,17.070,5.800
Thu Dec 05 12:35:59 2024,180,-26.141,-26.141,3.093,3.093,0.552,25.086,9.115,3.744,24.417,9.852,-6.619,12.424,6.462,1.832,17.038,5.788
Thu Dec 05 12:35:59 2024,185,-26.141,-26.141,3.108,3.108,0.580,25.084,9.123,3.768,24.431,9.857,-6.598,12.440,6.460,1.833,17.001,5.769
Thu Dec 05 12:35:59 2024,190,-26.175,-26.175,3.179,3.179,0.616,25.021,9.091,3.777,24.420,9.837,-6.630,12.349,6.397,1.756,16.927,5.714
Thu Dec 05 12:35:59 2024,195,-26.189,-26.189,3.201,3.201,0.614,24.994,9.064,3.775,24.426,9.820,-6.634,12.324,6.370,1.758,16.903,5.712
Thu Dec 05 12:35:59 2024,200,-26.194,-26.194,3.195,3.195,0.580,24.982,9.028,3.758,24.443,9.795,-6.628,12.326,6.357,1.814,16.912,5.745
Thu Dec 05 12:35:59 2024,205,-26.198,-26.198,3.185,3.185,0.546,24.972,8.994,3.742,24.458,9.772,-6.622,12.332,6.347,1.869,16.922,5.779
Thu Dec 05 12:35:59 2024,210,-26.213,-26.213,3.186,3.186,0.558,24.981,9.026,3.793,24.519,9.790,-6.614,12.307,6.340,1.815,16.860,5.706
Thu Dec 05 12:35:59 2024,215,-26.223,-26.223,3.186,3.186,0.563,24.986,9.045,3.827,24.559,9.800,-6.609,12.289,6.335,1.782,16.817,5.659
Thu Dec 05 12:35:59 2024,220,-26.198,-26.198,3.131,3.131,0.559,24.886,9.010,3.792,24.483,9.774,-6.655,12.207,6.302,1.747,16.829,5.664
Thu Dec 05 12:35:59 2024,225,-26.171,-26.171,3.073,3.073,0.551,24.781,8.967,3.748,24.394,9.744,-6.705,12.126,6.269,1.716,16.851,5.679
Thu Dec 05 12:35:59 2024,230,-26.169,-26.169,3.079,3.079,0.528,24.720,8.942,3.710,24.348,9.723,-6.732,12.093,6.250,1.716,16.874,5.705
Thu Dec 05 12:35:59 2024,235,-26.206,-26.206,3.182,3.182,0.484,24.732,8.944,3.683,24.371,9.719,-6.725,12.135,6.254,1.759,16.896,5.744
Thu Dec 05 12:35:59 2024,240,-26.228,-26.228,3.248,3.248,0.465,24.736,8.938,3.670,24.375,9.704,-6.723,12.146,6.250,1.785,16.894,5.757
Thu Dec 05 12:35:59 2024,245,-26.240,-26.240,3.302,3.302,0.501,24.770,8.924,3.698,24.370,9.663,-6.711,12.117,6.235,1.804,16.823,5.709
Thu Dec 05 12:35:59 2024,250,-26.252,-26.252,3.348,3.348,0.525,24.795,8.912,3.716,24.368,9.632,-6.703,12.098,6.224,1.820,16.772,5.675
Thu Dec 05 12:35:59 2024,255,-26.252,-26.252,3.357,3.357,0.521,24.779,8.920,3.741,24.439,9.621,-6.658,12.232,6.210,1.842,16.807,5.656
Thu Dec 05 12:35:59 2024,260,-26.252,-26.252,3.366,3.366,0.521,24.772,8.924,3.757,24.481,9.612,-6.630,12.310,6.201,1.856,16.824,5.642
Thu Dec 05 12:35:59 2024,265,-26.273,-26.273,3.396,3.396,0.510,24.799,8.962,3.723,24.432,9.593,-6.657,12.258,6.173,1.772,16.798,5.602
Thu Dec 05 12:35:59 2024,270,-26.294,-26.294,3.424,3.424,0.500,24.826,9.000,3.687,24.376,9.576,-6.688,12.192,6.149,1.687,16.763,5.567
Thu Dec 05 12:35:59 2024,275,-26.338,-26.338,3.478,3.478,0.448,24.763,8.950,3.657,24.319,9.523,-6.721,12.143,6.116,1.682,16.791,5.572
Thu Dec 05 12:35:59 2024,280,-26.390,-26.390,3.541,3.541,0.380,24.659,8.861,3.633,24.264,9.455,-6.752,12.104,6.081,1.716,16.846,5.597
Thu Dec 05 12:35:59 2024,285,-26.416,-26.416,3.569,3.569,0.354,24.602,8.820,3.623,24.237,9.422,-6.765,12.084,6.066,1.740,16.869,5.624
Thu Dec 05 12:35:59 2024,290,-26.372,-26.372,3.506,3.506,0.439,24.661,8.902,3.654,24.278,9.477,-6.734,12.107,6.104,1.748,16.808,5.667
Thu Dec 05 12:35:59 2024,295,-26.348,-26.348,3.468,3.468,0.493,24.692,8.952,3.674,24.300,9.509,-6.715,12.119,6.128,1.756,16.770,5.701
Thu Dec 05 12:35:59 2024,300,-26.412,-26.412,3.523,3.523,0.544,24.688,8.961,3.729,24.301,9.503,-6.725,12.066,6.111,1.742,16.648,5.657
Thu Dec 05 12:35:59 2024,305,-26.458,-26.458,3.562,3.562,0.589,24.688,8.973,3.774,24.306,9.501,-6.732,12.026,6.100,1.732,16.548,5.627
Thu Dec 05 12:35:59 2024,310,-26.440,-26.440,3.526,3.526,0.585,24.716,8.970,3.744,24.294,9.527,-6.724,12.056,6.145,1.756,16.574,5.685
Thu Dec 05 12:35:59 2024,315,-26.417,-26.417,3.487,3.487,0.578,24.743,8.967,3.711,24.282,9.551,-6.717,12.089,6.189,1.779,16.609,5.743
Thu Dec 05 12:35:59 2024,320,-26.399,-26.399,3.494,3.494,0.606,24.764,8.967,3.760,24.351,9.571,-6.691,12.133,6.218,1.821,16.609,5.778
Thu Dec 05 12:35:59 2024,325,-26.383,-26.383,3.513,3.513,0.644,24.784,8.967,3.832,24.441,9.588,-6.660,12.182,6.243,1.867,16.599,5.806
Thu Dec 05 12:35:59 2024,330,-26.378,-26.378,3.504,3.504,0.688,24.841,9.011,3.871,24.479,9.635,-6.609,12.239,6.291,1.891,16.547,5.809
Thu Dec 05 12:35:59 2024,335,-26.387,-26.387,3.469,3.469,0.732,24.929,9.095,3.873,24.460,9.703,-6.546,12.297,6.356,1.889,16.460,5.787
Thu Dec 05 12:35:59 2024,340,-26.394,-26.394,3.437,3.437,0.770,25.005,9.168,3.875,24.443,9.764,-6.489,12.349,6.413,1.886,16.383,5.767
Thu Dec 05 12:35:59 2024,345,-26.404,-26.404,3.444,3.444,0.782,25.032,9.212,3.896,24.531,9.867,-6.464,12.388,6.514,1.989,16.386,5.850
Thu Dec 05 12:35:59 2024,350,-26.413,-26.413,3.446,3.446,0.798,25.064,9.257,3.913,24.598,9.956,-6.436,12.424,6.600,2.068,16.376,5.911
Thu Dec 05 12:35:59 2024,355,-26.385,-26.385,3.442,3.442,0.815,25.026,9.193,3.958,24.626,9.922,-6.444,12.415,6.544,2.021,16.392,5.878
Thu Dec 05 12:35:59 2024,360,-26.362,-26.362,3.439,3.439,0.830,24.997,9.140,3.997,24.651,9.896,-6.448,12.408,6.501,1.983,16.405,5.851
Thu Dec 05 12:35:59 2024,365,-26.354,-26.354,3.402,3.402,0.808,24.930,9.106,3.971,24.626,9.893,-6.477,12.364,6.484,1.977,16.421,5.832
Thu Dec 05 12:35:59 2024,370,-26.352,-26.352,3.359,3.359,0.777,24.859,9.081,3.926,24.587,9.899,-6.511,12.310,6.477,1.983,16.436,5.817
Thu Dec 05 12:35:59 2024,375,-26.353,-26.353,3.337,3.337,0.768,24.831,9.095,3.901,24.532,9.893,-6.507,12.308,6.494,1.961,16.437,5.828
Thu Dec 05 12:35:59 2024,380,-26.355,-26.355,3.327,3.327,0.771,24.826,9.125,3.887,24.476,9.882,-6.487,12.330,6.521,1.929,16.430,5.848
Thu Dec 05 12:35:59 2024,385,-26.356,-26.356,3.318,3.318,0.773,24.822,9.150,3.875,24.430,9.873,-6.471,12.349,6.543,1.902,16.425,5.866
Thu Dec 05 12:35:59 2024,390,-26.349,-26.349,3.385,3.385,0.731,24.798,9.056,3.872,24.476,9.796,-6.524,12.281,6.404,1.851,16.495,5.774
Thu Dec 05 12:35:59 2024,395,-26.345,-26.345,3.426,3.426,0.705,24.784,9.001,3.868,24.497,9.746,-6.556,12.241,6.320,1.814,16.537,5.719
Thu Dec 05 12:35:59 2024,400,-26.328,-26.328,3.440,3.440,0.706,24.724,8.985,3.895,24.522,9.776,-6.567,12.245,6.356,1.831,16.576,5.761
Thu Dec 05 12:35:59 2024,405,-26.314,-26.314,3.454,3.454,0.706,24.672,8.971,3.920,24.544,9.801,-6.579,12.246,6.386,1.844,16.610,5.797
Thu Dec 05 12:35:59 2024,410,-26.337,-26.337,3.450,3.450,0.670,24.637,8.979,3.902,24.542,9.782,-6.563,12.250,6.360,1.841,16.563,5.770
Thu Dec 05 12:35:59 2024,415,-26.359,-26.359,3.446,3.446,0.637,24.610,8.987,3.884,24.539,9.762,-6.548,12.254,6.334,1.838,16.517,5.741
Thu Dec 05 12:35:59 2024,420,-26.367,-26.367,3.434,3.434,0.610,24.608,8.988,3.856,24.516,9.748,-6.542,12.260,6.334,1.826,16.511,5.733
Thu Dec 05 12:35:59 2024,425,-26.341,-26.341,3.415,3.415,0.607,24.659,8.972,3.822,24.462,9.751,-6.555,12.269,6.386,1.803,16.590,5.772
Thu Dec 05 12:35:59 2024,430,-26.344,-26.344,3.412,3.412,0.593,24.711,8.978,3.802,24.439,9.759,-6.568,12.265,6.414,1.792,16.631,5.791
Thu Dec 05 12:35:59 2024,435,-26.391,-26.391,3.442,3.442,0.566,24.777,9.024,3.813,24.477,9.783,-6.590,12.232,6.406,1.806,16.616,5.779
Thu Dec 05 12:35:59 2024,440,-26.437,-26.437,3.472,3.472,0.540,24.845,9.069,3.823,24.511,9.806,-6.612,12.200,6.401,1.817,16.605,5.770
Thu Dec 05 12:35:59 2024,445,-26.399,-26.399,3.480,3.480,0.520,24.755,8.964,3.802,24.475,9.673,-6.653,12.148,6.287,1.785,16.574,5.703
Thu Dec 05 12:35:59 2024,450,-26.373,-26.373,3.488,3.488,0.502,24.689,8.883,3.787,24.449,9.568,-6.688,12.104,6.196,1.760,16.548,5.650
Thu Dec 05 12:35:59 2024,455,-26.387,-26.387,3.504,3.504,0.480,24.686,8.865,3.762,24.421,9.576,-6.679,12.102,6.190,1.715,16.523,5.606
Thu Dec 05 12:35:59 2024,460,-26.402,-26.402,3.518,3.518,0.459,24.686,8.850,3.739,24.396,9.586,-6.671,12.101,6.188,1.673,16.499,5.566
Thu Dec 05 12:35:59 2024,465,-26.406,-26.406,3.508,3.508,0.469,24.666,8.834,3.760,24.394,9.577,-6.689,12.036,6.128,1.655,16.452,5.509
Thu Dec 05 12:35:59 2024,470,-26.402,-26.402,3.488,3.488,0.494,24.641,8.822,3.800,24.406,9.560,-6.719,11.949,6.051,1.654,16.403,5.456
Thu Dec 05 12:35:59 2024,475,-26.394,-26.394,3.468,3.468,0.506,24.669,8.825,3.823,24.432,9.558,-6.712,11.948,6.032,1.691,16.414,5.446
Thu Dec 05 12:35:59 2024,480,-26.377,-26.377,3.445,3.445,0.502,24.775,8.851,3.827,24.483,9.577,-6.653,12.061,6.086,1.789,16.501,5.489
Thu Dec 05 12:35:59 2024,485,-26.367,-26.367,3.439,3.439,0.498,24.838,8.873,3.831,24.522,9.585,-6.620,12.138,6.111,1.837,16.558,5.517
Thu Dec 05 12:35:59 2024,490,-26.377,-26.377,3.477,3.477,0.490,24.804,8.887,3.835,24.534,9.566,-6.643,12.141,6.065,1.770,16.564,5.512
Thu Dec 05 12:35:59 2024,495,-26.386,-26.386,3.516,3.516,0.483,24.771,8.901,3.840,24.545,9.546,-6.667,12.144,6.018,1.702,16.568,5.506
Thu Dec 05 12:35:59 2024,500,-26.350,-26.350,3.442,3.442,0.445,24.729,8.851,3.844,24.581,9.568,-6.718,12.093,6.012,1.737,16.656,5.550
Thu Dec 05 12:35:59 2024,505,-26.324,-26.324,3.387,3.387,0.420,24.702,8.815,3.847,24.604,9.586,-6.751,12.058,6.011,1.767,16.715,5.581
Thu Dec 05 12:35:59 2024,510,-26.352,-26.352,3.369,3.369,0.416,24.737,8.800,3.846,24.600,9.559,-6.765,12.025,5.989,1.767,16.734,5.592
Thu Dec 05 12:35:59 2024,515,-26.404,-26.404,3.375,3.375,0.426,24.799,8.800,3.843,24.581,9.515,-6.763,12.002,5.959,1.751,16.726,5.587
Thu Dec 05 12:35:59 2024,520,-26.441,-26.441,3.414,3.414,0.457,24.859,8.820,3.856,24.587,9.507,-6.747,12.004,5.949,1.766,16.690,5.559
Thu Dec 05 12:35:59 2024,525,-26.457,-26.457,3.460,3.460,0.491,24.901,8.845,3.876,24.606,9.523,-6.726,12.020,5.954,1.794,16.647,5.524
Thu Dec 05 12:35:59 2024,530,-26.478,-26.478,3.510,3.510,0.515,24.944,8.872,3.885,24.602,9.516,-6.725,12.009,5.942,1.782,16.614,5.481
Thu Dec 05 12:35:59 2024,535,-26.501,-26.501,3.549,3.549,0.506,24.973,8.895,3.866,24.544,9.458,-6.769,11.938,5.896,1.680,16.617,5.432
Thu Dec 05 12:35:59 2024,540,-26.520,-26.520,3.578,3.578,0.493,24.994,8.913,3.844,24.489,9.407,-6.807,11.882,5.860,1.597,16.619,5.396
Thu Dec 05 12:35:59 2024,545,-26.515,-26.515,3.569,3.569,0.467,24.998,8.920,3.811,24.463,9.409,-6.798,11.928,5.896,1.656,16.625,5.429
Thu Dec 05 12:35:59 2024,550,-26.508,-26.508,3.556,3.556,0.436,25.001,8.928,3.774,24.435,9.416,-6.784,11.988,5.943,1.734,16.630,5.472
Thu Dec 05 12:35:59 2024,555,-26.510,-26.510,3.544,3.544,0.421,24.916,8.863,3.763,24.408,9.396,-6.816,11.907,5.888,1.645,16.589,5.400
Thu Dec 05 12:35:59 2024,560,-26.513,-26.513,3.536,3.536,0.410,24.836,8.802,3.758,24.388,9.377,-6.848,11.823,5.831,1.551,16.544,5.326
Thu Dec 05 12:35:59 2024,565,-26.542,-26.542,3.574,3.574,0.379,24.777,8.781,3.750,24.386,9.385,-6.861,11.788,5.824,1.513,16.534,5.310
Thu Dec 05 12:35:59 2024,570,-26.595,-26.595,3.647,3.647,0.333,24.737,8.795,3.738,24.398,9.416,-6.857,11.796,5.860,1.521,16.555,5.341
Thu Dec 05 12:35:59 2024,575,-26.642,-26.642,3.712,3.712,0.293,24.701,8.806,3.728,24.410,9.442,-6.854,11.803,5.892,1.529,16.572,5.368
Thu Dec 05 12:35:59 2024,580,-26.670,-26.670,3.752,3.752,0.268,24.680,8.814,3.721,24.417,9.459,-6.852,11.806,5.912,1.534,16.584,5.384
Thu Dec 05 12:35:59 2024,585,-26.682,-26.682,3.738,3.738,0.282,24.702,8.790,3.736,24.426,9.433,-6.858,11.796,5.902,1.549,16.556,5.366
Thu Dec 05 12:35:59 2024,590,-26.702,-26.702,3.715,3.715,0.305,24.736,8.752,3.760,24.442,9.390,-6.866,11.780,5.885,1.574,16.511,5.335
Thu Dec 05 12:35:59 2024,595,-26.724,-26.724,3.722,3.722,0.304,24.742,8.738,3.769,24.452,9.378,-6.869,11.774,5.886,1.588,16.496,5.328
Thu Dec 05 12:35:59 2024,600,-26.744,-26.744,3.728,3.728,0.304,24.749,8.725,3.777,24.460,9.367,-6.872,11.768,5.887,1.600,16.482,5.323
Thu Dec 05 12:35:59 2024,605,-26.720,-26.720,3.622,3.622,0.281,24.839,8.822,3.793,24.502,9.416,-6.802,11.856,5.887,1.575,16.419,5.283
Thu Dec 05 12:35:59 2024,610,-26.720,-26.720,3.605,3.605,0.271,24.840,8.852,3.795,24.520,9.454,-6.813,11.841,5.903,1.571,16.441,5.314
Thu Dec 05 12:35:59 2024,615,-26.722,-26.722,3.608,3.608,0.263,24.818,8.872,3.792,24.534,9.497,-6.845,11.800,5.925,1.571,16.491,5.368
Thu Dec 05 12:35:59 2024,620,-26.718,-26.718,3.602,3.602,0.270,24.830,8.895,3.799,24.552,9.544,-6.854,11.800,5.976,1.583,16.531,5.428
Thu Dec 05 12:35:59 2024,625,-26.692,-26.692,3.573,3.573,0.317,24.934,8.923,3.828,24.578,9.591,-6.797,11.915,6.098,1.626,16.538,5.498
Thu Dec 05 12:35:59 2024,630,-26.676,-26.676,3.556,3.556,0.354,25.006,8.946,3.849,24.606,9.631,-6.760,11.981,6.172,1.661,16.545,5.546
Thu Dec 05 12:35:59 2024,635,-26.680,-26.680,3.567,3.567,0.396,25.038,8.968,3.864,24.658,9.672,-6.751,11.961,6.150,1.699,16.552,5.563
Thu Dec 05 12:35:59 2024,640,-26.682,-26.682,3.576,3.576,0.432,25.066,8.988,3.876,24.704,9.708,-6.744,11.944,6.132,1.732,16.557,5.578
Thu Dec 05 12:35:59 2024,645,-26.693,-26.693,3.562,3.562,0.475,25.190,9.050,3.919,24.766,9.762,-6.729,11.986,6.183,1.791,16.546,5.586
Thu Dec 05 12:35:59 2024,650,-26.703,-26.703,3.549,3.549,0.508,25.292,9.100,3.954,24.813,9.804,-6.718,12.022,6.227,1.837,16.536,5.592
Thu Dec 05 12:35:59 2024,655,-26.671,-26.671,3.489,3.489,0.545,25.327,9.128,3.975,24.808,9.844,-6.689,12.046,6.271,1.892,16.508,5.623
Thu Dec 05 12:35:59 2024,660,-26.618,-26.618,3.409,3.409,0.579,25.312,9.134,3.984,24.772,9.877,-6.653,12.059,6.306,1.943,16.473,5.666
Thu Dec 05 12:35:59 2024,665,-26.613,-26.613,3.401,3.401,0.634,25.344,9.175,3.996,24.753,9.937,-6.610,12.107,6.379,1.962,16.416,5.690
Thu Dec 05 12:35:59 2024,670,-26.652,-26.652,3.458,3.458,0.717,25.426,9.256,4.011,24.746,10.033,-6.553,12.199,6.500,1.955,16.329,5.702
Thu Dec 05 12:35:59 2024,675,-26.681,-26.681,3.500,3.500,0.779,25.486,9.315,4.023,24.741,10.103,-6.510,12.266,6.589,1.950,16.265,5.711
Thu Dec 05 12:35:59 2024,680,-26.645,-26.645,3.478,3.478,0.767,25.375,9.241,4.067,24.822,10.123,-6.471,12.305,6.627,2.000,16.239,5.740
Thu Dec 05 12:35:59 2024,685,-26.613,-26.613,3.461,3.461,0.762,25.273,9.175,4.110,24.900,10.148,-6.430,12.348,6.672,2.049,16.208,5.769
Thu Dec 05 12:35:59 2024,690,-26.590,-26.590,3.386,3.386,0.792,25.288,9.208,4.105,24.868,10.199,-6.396,12.390,6.719,2.031,16.188,5.798
Thu Dec 05 12:35:59 2024,695,-26.564,-26.564,3.305,3.305,0.825,25.305,9.244,4.100,24.833,10.256,-6.358,12.437,6.771,2.012,16.166,5.832
Thu Dec 05 12:35:59 2024,700,-26.528,-26.528,3.234,3.234,0.793,25.327,9.247,4.074,24.819,10.300,-6.381,12.420,6.784,2.005,16.253,5.858
Thu Dec 05 12:35:59 2024,705,-26.488,-26.488,3.166,3.166,0.741,25.351,9.240,4.040,24.813,10.341,-6.423,12.384,6.785,2.000,16.374,5.881
Thu Dec 05 12:35:59 2024,710,-26.460,-26.460,3.116,3.116,0.703,25.369,9.234,4.015,24.809,10.372,-6.454,12.357,6.785,1.997,16.462,5.899
Thu Dec 05 12:35:59 2024,715,-26.472,-26.472,3.076,3.076,0.829,25.412,9.313,4.031,24.772,10.477,-6.423,12.383,6.903,2.008,16.240,5.897
Thu Dec 05 12:35:59 2024,720,-26.472,-26.472,3.051,3.051,0.885,25.432,9.345,4.036,24.753,10.533,-6.407,12.399,6.964,2.019,16.144,5.903
Thu Dec 05 12:35:59 2024,725,-26.475,-26.475,3.069,3.069,0.926,25.418,9.336,4.052,24.745,10.547,-6.370,12.444,7.006,2.052,16.073,5.917
Thu Dec 05 12:35:59 2024,730,-26.477,-26.477,3.085,3.085,0.963,25.406,9.328,4.067,24.737,10.559,-6.337,12.485,7.044,2.082,16.009,5.930
Thu Dec 05 12:35:59 2024,735,-26.452,-26.452,3.014,3.014,0.958,25.399,9.343,4.062,24.722,10.573,-6.319,12.480,7.051,2.062,15.988,5.939
Thu Dec 05 12:35:59 2024,740,-26.423,-26.423,2.935,2.935,0.956,25.391,9.359,4.058,24.705,10.591,-6.296,12.476,7.063,2.040,15.958,5.950
Thu Dec 05 12:35:59 2024,745,-26.397,-26.397,2.857,2.857,0.951,25.393,9.337,4.052,24.756,10.711,-6.307,12.476,7.141,2.068,16.014,6.071
Thu Dec 05 12:35:59 2024,750,-26.376,-26.376,2.792,2.792,0.948,25.396,9.314,4.047,24.809,10.826,-6.320,12.476,7.215,2.096,16.071,6.188
Thu Dec 05 12:35:59 2024,755,-26.358,-26.358,2.733,2.733,0.945,25.399,9.293,4.042,24.860,10.933,-6.333,12.476,7.283,2.123,16.122,6.296
Thu Dec 05 12:35:59 2024,760,-26.404,-26.404,2.789,2.789,1.093,25.505,9.416,4.061,24.655,10.849,-6.150,12.634,7.306,2.095,15.804,6.066
Thu Dec 05 12:35:59 2024,765,-26.420,-26.420,2.801,2.801,1.140,25.554,9.440,4.052,24.585,10.825,-6.093,12.684,7.316,2.076,15.703,5.990
Thu Dec 05 12:35:59 2024,770,-26.416,-26.416,2.800,2.800,1.074,25.574,9.332,3.983,24.577,10.775,-6.169,12.611,7.260,2.019,15.813,5.983
Thu Dec 05 12:35:59 2024,775,-26.412,-26.412,2.796,2.796,1.023,25.586,9.252,3.929,24.560,10.732,-6.220,12.570,7.224,1.968,15.890,5.974
Thu Dec 05 12:35:59 2024,780,-26.412,-26.412,2.776,2.776,1.005,25.562,9.244,3.903,24.474,10.692,-6.188,12.641,7.256,1.908,15.871,5.948
Thu Dec 05 12:35:59 2024,785,-26.411,-26.411,2.752,2.752,0.982,25.531,9.235,3.870,24.370,10.641,-6.147,12.731,7.296,1.832,15.844,5.916
Thu Dec 05 12:35:59 2024,790,-26.453,-26.453,2.776,2.776,1.019,25.667,9.276,3.879,24.375,10.589,-6.085,12.820,7.299,1.861,15.844,5.861
Thu Dec 05 12:35:59 2024,795,-26.491,-26.491,2.800,2.800,1.053,25.789,9.313,3.890,24.386,10.546,-6.032,12.893,7.298,1.892,15.845,5.816
Thu Dec 05 12:35:59 2024,800,-26.485,-26.485,2.772,2.772,1.026,25.801,9.300,3.850,24.352,10.524,-6.047,12.888,7.312,1.852,15.848,5.803
Thu Dec 05 12:35:59 2024,805,-26.454,-26.454,2.725,2.725,0.974,25.739,9.262,3.796,24.306,10.523,-6.096,12.836,7.328,1.785,15.849,5.817
Thu Dec 05 12:35:59 2024,810,-26.424,-26.424,2.677,2.677,0.919,25.676,9.224,3.742,24.259,10.523,-6.146,12.783,7.344,1.717,15.849,5.831
Thu Dec 05 12:35:59 2024,815,-26.477,-26.477,2.709,2.709,0.943,25.688,9.224,3.732,24.223,10.482,-6.070,12.916,7.403,1.760,15.825,5.807
Thu Dec 05 12:35:59 2024,820,-26.509,-26.509,2.721,2.721,0.947,25.682,9.215,3.712,24.186,10.451,-6.027,13.000,7.449,1.775,15.807,5.793
Thu Dec 05 12:35:59 2024,825,-26.531,-26.531,2.757,2.757,0.929,25.632,9.254,3.679,24.103,10.473,-6.056,12.931,7.476,1.766,15.825,5.892
Thu Dec 05 12:35:59 2024,830,-26.547,-26.547,2.762,2.762,0.916,25.609,9.247,3.678,24.092,10.454,-6.060,12.916,7.455,1.739,15.798,5.855
Thu Dec 05 12:35:59 2024,835,-26.563,-26.563,2.767,2.767,0.904,25.585,9.241,3.678,24.082,10.435,-6.064,12.901,7.435,1.713,15.771,5.818
Thu Dec 05 12:35:59 2024,840,-26.578,-26.578,2.773,2.773,0.892,25.561,9.234,3.677,24.071,10.417,-6.069,12.885,7.414,1.687,15.744,5.781
Thu Dec 05 12:35:59 2024,845,-26.594,-26.594,2.778,2.778,0.880,25.537,9.228,3.677,24.061,10.398,-6.073,12.870,7.394,1.661,15.717,5.744
Thu Dec 05 12:35:59 2024,850,-26.610,-26.610,2.783,2.783,0.867,25.514,9.221,3.676,24.050,10.379,-6.077,12.855,7.373,1.634,15.690,5.707
Thu Dec 05 12:35:59 2024,855,-26.588,-26.588,2.738,2.738,0.863,25.448,9.174,3.691,24.071,10.398,-6.107,12.793,7.373,1.651,15.703,5.729
Thu Dec 05 12:35:59 2024,860,-26.557,-26.557,2.680,2.680,0.860,25.373,9.116,3.709,24.100,10.426,-6.142,12.719,7.378,1.678,15.726,5.766
Thu Dec 05 12:35:59 2024,865,-26.525,-26.525,2.621,2.621,0.857,25.301,9.062,3.727,24.128,10.456,-6.177,12.648,7.386,1.707,15.749,5.807
Thu Dec 05 12:35:59 2024,870,-26.528,-26.528,2.665,2.665,0.903,25.293,9.056,3.777,24.166,10.431,-6.155,12.682,7.379,1.655,15.686,5.758
Thu Dec 05 12:35:59 2024,875,-26.526,-26.526,2.690,2.690,0.936,25.279,9.045,3.816,24.197,10.417,-6.144,12.699,7.376,1.621,15.640,5.728
Thu Dec 05 12:35:59 2024,880,-26.527,-26.527,2.686,2.686,0.936,25.246,9.050,3.831,24.216,10.436,-6.155,12.670,7.360,1.633,15.658,5.741
Thu Dec 05 12:35:59 2024,885,-26.534,-26.534,2.644,2.644,0.892,25.180,9.075,3.820,24.224,10.502,-6.199,12.578,7.322,1.706,15.757,5.810
Thu Dec 05 12:35:59 2024,890,-26.529,-26.529,2.610,2.610,0.873,25.120,9.055,3.828,24.235,10.518,-6.222,12.512,7.272,1.732,15.776,5.817
Thu Dec 05 12:35:59 2024,895,-26.509,-26.509,2.589,2.589,0.874,25.072,9.008,3.852,24.250,10.495,-6.227,12.479,7.229,1.716,15.738,5.784
Thu Dec 05 12:35:59 2024,900,-26.489,-26.489,2.564,2.564,0.862,25.032,9.005,3.872,24.268,10.497,-6.248,12.447,7.212,1.716,15.772,5.809
Thu Dec 05 12:35:59 2024,905,-26.466,-26.466,2.538,2.538,0.836,25.001,9.051,3.887,24.286,10.525,-6.284,12.421,7.230,1.733,15.884,5.902
Thu Dec 05 12:35:59 2024,910,-26.439,-26.439,2.508,2.508,0.806,24.965,9.105,3.905,24.308,10.558,-6.325,12.390,7.250,1.751,16.014,6.010
Thu Dec 05 12:35:59 2024,915,-26.428,-26.428,2.516,2.516,0.800,24.964,9.151,3.871,24.306,10.680,-6.373,12.340,7.286,1.782,16.108,6.111
Thu Dec 05 12:35:59 2024,920,-26.415,-26.415,2.526,2.526,0.803,24.958,9.200,3.850,24.304,10.768,-6.419,12.282,7.301,1.802,16.176,6.185
Thu Dec 05 12:35:59 2024,925,-26.404,-26.404,2.562,2.562,0.848,24.956,9.250,3.859,24.287,10.734,-6.459,12.183,7.231,1.774,16.114,6.126
Thu Dec 05 12:35:59 2024,930,-26.395,-26.395,2.597,2.597,0.876,24.949,9.296,3.875,24.282,10.694,-6.488,12.126,7.172,1.747,16.069,6.073
Thu Dec 05 12:35:59 2024,935,-26.390,-26.390,2.628,2.628,0.876,24.936,9.337,3.894,24.290,10.662,-6.506,12.122,7.136,1.729,16.062,6.046
Thu Dec 05 12:35:59 2024,940,-26.393,-26.393,2.654,2.654,0.829,24.914,9.371,3.919,24.320,10.645,-6.503,12.207,7.138,1.725,16.123,6.060
Thu Dec 05 12:35:59 2024,945,-26.395,-26.395,2.673,2.673,0.792,24.888,9.390,3.918,24.331,10.641,-6.511,12.261,7.148,1.720,16.186,6.086
Thu Dec 05 12:35:59 2024,950,-26.397,-26.397,2.686,2.686,0.762,24.820,9.374,3.836,24.285,10.671,-6.550,12.257,7.181,1.709,16.304,6.163
Thu Dec 05 12:35:59 2024,955,-26.400,-26.400,2.698,2.698,0.736,24.769,9.364,3.775,24.254,10.693,-6.579,12.259,7.207,1.700,16.397,6.223
Thu Dec 05 12:35:59 2024,960,-26.491,-26.491,2.866,2.866,0.728,24.751,9.350,3.779,24.237,10.505,-6.655,12.134,7.050,1.720,16.373,6.180
Thu Dec 05 12:35:59 2024,965,-26.552,-26.552,2.980,2.980,0.716,24.736,9.335,3.780,24.228,10.372,-6.706,12.048,6.938,1.726,16.365,6.145
Thu Dec 05 12:35:59 2024,970,-26.568,-26.568,3.006,3.006,0.687,24.770,9.277,3.818,24.266,10.262,-6.706,12.029,6.840,1.668,16.349,6.040
Thu Dec 05 12:35:59 2024,975,-26.581,-26.581,3.025,3.025,0.659,24.806,9.220,3.854,24.305,10.161,-6.703,12.015,6.749,1.610,16.332,5.936
Thu Dec 05 12:35:59 2024,980,-26.596,-26.596,3.050,3.050,0.607,24.821,9.202,3.836,24.307,10.134,-6.704,12.058,6.741,1.606,16.435,5.958
Thu Dec 05 12:35:59 2024,985,-26.612,-26.612,3.075,3.075,0.552,24.830,9.192,3.805,24.301,10.124,-6.708,12.110,6.754,1.614,16.562,6.008
Thu Dec 05 12:35:59 2024,990,-26.604,-26.604,3.102,3.102,0.544,24.804,9.174,3.830,24.339,10.071,-6.739,12.072,6.696,1.621,16.580,5.997
Thu Dec 05 12:35:59 2024,995,-26.579,-26.579,3.137,3.137,0.562,24.745,9.144,3.897,24.415,9.973,-6.798,11.962,6.578,1.629,16.534,5.943
Thu Dec 05 12:36:00 2024,0,-26.558,-26.558,3.166,3.166,0.576,24.695,9.119,3.953,24.478,9.891,-6.848,11.871,6.480,1.635,16.495,5.899
Thu Dec 05 12:36:00 2024,5,-26.598,-26.598,3.197,3.197,0.577,24.789,9.076,3.919,24.381,9.820,-6.824,11.850,6.421,1.602,16.445,5.826
Thu Dec 05 12:36:00 2024,10,-26.615,-26.615,3.212,3.212,0.571,24.839,9.042,3.903,24.338,9.762,-6.818,11.832,6.368,1.578,16.419,5.773
Thu Dec 05 12:36:00 2024,15,-26.586,-26.586,3.154,3.154,0.520,24.841,9.020,3.874,24.372,9.758,-6.822,11.898,6.376,1.550,16.500,5.775
Thu Dec 05 12:36:00 2024,20,-26.553,-26.553,3.090,3.090,0.466,24.839,8.999,3.843,24.417,9.759,-6.829,11.968,6.388,1.522,16.590,5.782
Thu Dec 05 12:36:00 2024,25,-26.558,-26.558,3.119,3.119,0.489,24.870,9.046,3.875,24.446,9.774,-6.847,11.922,6.382,1.573,16.586,5.819
Thu Dec 05 12:36:00 2024,30,-26.566,-26.566,3.158,3.158,0.520,24.905,9.103,3.915,24.476,9.793,-6.865,11.864,6.374,1.635,16.572,5.861
Thu Dec 05 12:36:00 2024,35,-26.571,-26.571,3.184,3.184,0.541,24.929,9.142,3.942,24.496,9.805,-6.879,11.824,6.369,1.677,16.562,5.890
Thu Dec 05 12:36:00 2024,40,-26.482,-26.482,3.148,3.148,0.531,24.854,9.071,3.932,24.493,9.682,-6.955,11.692,6.201,1.565,16.629,5.787
Thu Dec 05 12:36:00 2024,45,-26.451,-26.451,3.146,3.146,0.530,24.860,9.043,3.930,24.474,9.616,-6.978,11.642,6.124,1.497,16.617,5.715
Thu Dec 05 12:36:00 2024,50,-26.451,-26.451,3.157,3.157,0.529,24.913,9.023,3.919,24.432,9.568,-6.967,11.648,6.090,1.425,16.552,5.636
Thu Dec 05 12:36:00 2024,55,-26.450,-26.450,3.167,3.167,0.529,24.965,9.001,3.909,24.390,9.519,-6.956,11.653,6.054,1.353,16.484,5.555
Thu Dec 05 12:36:00 2024,60,-26.499,-26.499,3.182,3.182,0.419,24.925,8.953,3.852,24.390,9.519,-6.981,11.717,6.078,1.407,16.707,5.648
Thu Dec 05 12:36:00 2024,65,-26.530,-26.530,3.191,3.191,0.352,24.901,8.922,3.816,24.392,9.519,-6.996,11.754,6.091,1.438,16.839,5.704
Thu Dec 05 12:36:00 2024,70,-26.514,-26.514,3.144,3.144,0.340,24.928,8.946,3.836,24.454,9.576,-7.008,11.762,6.120,1.486,16.895,5.730
Thu Dec 05 12:36:00 2024,75,-26.491,-26.491,3.094,3.094,0.346,24.960,8.978,3.866,24.520,9.634,-7.016,11.760,6.147,1.528,16.920,5.744
Thu Dec 05 12:36:00 2024,80,-26.471,-26.471,3.052,3.052,0.350,24.987,9.004,3.890,24.574,9.683,-7.024,11.758,6.169,1.563,16.940,5.755
Thu Dec 05 12:36:00 2024,85,-26.487,-26.487,3.126,3.126,0.403,25.067,9.133,3.881,24.509,9.667,-7.053,11.683,6.107,1.573,16.803,5.704
Thu Dec 05 12:36:00 2024,90,-26.489,-26.489,3.155,3.155,0.437,25.126,9.220,3.884,24.490,9.675,-7.072,11.637,6.079,1.592,16.728,5.678
Thu Dec 05 12:36:00 2024,95,-26.497,-26.497,3.142,3.142,0.441,25.204,9.144,3.884,24.521,9.599,-7.080,11.634,6.004,1.563,16.811,5.620
Thu Dec 05 12:36:00 2024,100,-26.502,-26.502,3.139,3.139,0.453,25.272,9.112,3.885,24.538,9.548,-7.090,11.622,5.946,1.548,16.851,5.574
Thu Dec 05 12:36:00 2024,105,-26.490,-26.490,3.124,3.124,0.404,25.123,9.053,3.797,24.374,9.497,-7.126,11.573,5.956,1.434,16.787,5.542
Thu Dec 05 12:36:00 2024,110,-26.480,-26.480,3.111,3.111,0.365,25.007,9.003,3.726,24.245,9.451,-7.157,11.532,5.959,1.340,16.732,5.512
Thu Dec 05 12:36:00 2024,115,-26.490,-26.490,3.134,3.134,0.338,25.009,9.003,3.718,24.232,9.450,-7.128,11.592,5.989,1.388,16.747,5.531
Thu Dec 05 12:36:00 2024,120,-26.504,-26.504,3.161,3.161,0.312,25.014,9.006,3.712,24.220,9.451,-7.097,11.660,6.022,1.444,16.765,5.554
Thu Dec 05 12:36:00 2024,125,-26.500,-26.500,3.145,3.145,0.300,25.035,9.025,3.740,24.284,9.488,-7.065,11.709,6.041,1.479,16.764,5.550
Thu Dec 05 12:36:00 2024,130,-26.490,-26.490,3.115,3.115,0.298,25.059,9.048,3.778,24.368,9.535,-7.039,11.742,6.051,1.500,16.756,5.537
Thu Dec 05 12:36:00 2024,135,-26.482,-26.482,3.090,3.090,0.295,25.078,9.068,3.809,24.441,9.575,-7.017,11.771,6.059,1.519,16.750,5.526
Thu Dec 05 12:36:00 2024,140,-26.482,-26.482,3.091,3.091,0.298,25.045,9.098,3.797,24.444,9.664,-7.004,11.801,6.157,1.570,16.798,5.654
Thu Dec 05 12:36:00 2024,145,-26.488,-26.488,3.103,3.103,0.300,25.039,9.128,3.787,24.448,9.720,-6.992,11.823,6.212,1.592,16.816,5.716
Thu Dec 05 12:36:00 2024,150,-26.510,-26.510,3.157,3.157,0.304,25.061,9.176,3.758,24.414,9.736,-6.990,11.830,6.234,1.572,16.804,5.720
Thu Dec 05 12:36:00 2024,155,-26.533,-26.533,3.216,3.216,0.307,25.084,9.227,3.727,24.379,9.754,-6.988,11.839,6.258,1.549,16.792,5.727
Thu Dec 05 12:36:00 2024,160,-26.528,-26.528,3.229,3.229,0.293,25.014,9.187,3.755,24.410,9.725,-6.970,11.833,6.246,1.567,16.799,5.751
Thu Dec 05 12:36:00 2024,165,-26.523,-26.523,3.239,3.239,0.283,24.954,9.152,3.779,24.436,9.701,-6.955,11.827,6.235,1.582,16.805,5.772
Thu Dec 05 12:36:00 2024,170,-26.537,-26.537,3.236,3.236,0.296,24.928,9.144,3.786,24.442,9.706,-6.956,11.772,6.224,1.582,16.815,5.781
Thu Dec 05 12:36:00 2024,175,-26.554,-26.554,3.229,3.229,0.315,24.924,9.150,3.784,24.438,9.721,-6.963,11.716,6.216,1.576,16.824,5.784
Thu Dec 05 12:36:00 2024,180,-26.564,-26.564,3.238,3.238,0.331,24.917,9.151,3.776,24.423,9.724,-6.958,11.686,6.211,1.569,16.788,5.772
Thu Dec 05 12:36:00 2024,185,-26.562,-26.562,3.280,3.280,0.342,24.905,9.140,3.756,24.388,9.707,-6.932,11.708,6.209,1.562,16.666,5.732
Thu Dec 05 12:36:00 2024,190,-26.556,-26.556,3.300,3.300,0.356,24.908,9.147,3.746,24.368,9.695,-6.907,11.734,6.210,1.562,16.594,5.708
Thu Dec 05 12:36:00 2024,195,-26.532,-26.532,3.252,3.252,0.382,24.974,9.221,3.778,24.390,9.697,-6.867,11.808,6.226,1.591,16.669,5.729
Thu Dec 05 12:36:00 2024,200,-26.513,-26.513,3.219,3.219,0.400,25.022,9.276,3.801,24.405,9.698,-6.835,11.865,6.238,1.613,16.717,5.742
Thu Dec 05 12:36:00 2024,205,-26.521,-26.521,3.267,3.267,0.418,24.988,9.260,3.821,24.429,9.711,-6.836,11.824,6.225,1.666,16.698,5.758
Thu Dec 05 12:36:00 2024,210,-26.528,-26.528,3.307,3.307,0.431,24.959,9.245,3.837,24.448,9.722,-6.838,11.789,6.215,1.709,16.680,5.771
Thu Dec 05 12:36:00 2024,215,-26.543,-26.543,3.315,3.315,0.391,24.929,9.213,3.795,24.395,9.662,-6.826,11.806,6.185,1.681,16.681,5.708
Thu Dec 05 12:36:00 2024,220,-26.558,-26.558,3.310,3.310,0.342,24.908,9.183,3.744,24.330,9.593,-6.811,11.838,6.155,1.637,16.688,5.633
Thu Dec 05 12:36:00 2024,225,-26.582,-26.582,3.325,3.325,0.311,24.901,9.166,3.719,24.291,9.545,-6.801,11.848,6.124,1.614,16.683,5.578
Thu Dec 05 12:36:00 2024,230,-26.637,-26.637,3.398,3.398,0.318,24.928,9.179,3.758,24.307,9.534,-6.799,11.804,6.083,1.639,16.647,5.557
Thu Dec 05 12:36:00 2024,235,-26.675,-26.675,3.446,3.446,0.315,24.941,9.183,3.776,24.308,9.517,-6.796,11.779,6.052,1.649,16.624,5.533
Thu Dec 05 12:36:00 2024,240,-26.637,-26.637,3.413,3.413,0.230,24.916,9.146,3.757,24.359,9.545,-6.737,11.912,6.093,1.636,16.712,5.547
Thu Dec 05 12:36:00 2024,245,-26.615,-26.615,3.396,3.396,0.166,24.900,9.119,3.746,24.402,9.564,-6.691,12.008,6.119,1.627,16.774,5.552
Thu Dec 05 12:36:00 2024,250,-26.595,-26.595,3.344,3.344,0.139,24.837,9.078,3.719,24.341,9.524,-6.668,12.016,6.103,1.629,16.762,5.534
Thu Dec 05 12:36:00 2024,255,-26.574,-26.574,3.293,3.293,0.111,24.776,9.038,3.694,24.289,9.489,-6.644,12.031,6.090,1.630,16.754,5.516
Thu Dec 05 12:36:00 2024,260,-26.579,-26.579,3.288,3.288,0.114,24.834,9.024,3.722,24.348,9.488,-6.625,12.046,6.046,1.672,16.768,5.493
Thu Dec 05 12:36:00 2024,265,-26.588,-26.588,3.291,3.291,0.121,24.904,9.015,3.756,24.420,9.492,-6.608,12.060,6.004,1.716,16.784,5.472
Thu Dec 05 12:36:00 2024,270,-26.588,-26.588,3.296,3.296,0.116,24.932,9.027,3.764,24.458,9.503,-6.600,12.086,6.004,1.745,16.804,5.490
Thu Dec 05 12:36:00 2024,275,-26.578,-26.578,3.307,3.307,0.090,24.899,9.079,3.732,24.448,9.530,-6.607,12.141,6.077,1.758,16.839,5.580
Thu Dec 05 12:36:00 2024,280,-26.571,-26.571,3.315,3.315,0.077,24.882,9.114,3.713,24.449,9.550,-6.609,12.181,6.124,1.772,16.866,5.642
Thu Dec 05 12:36:00 2024,285,-26.588,-26.588,3.302,3.302,0.082,24.923,9.121,3.717,24.443,9.540,-6.702,12.032,6.066,1.728,16.882,5.628
Thu Dec 05 12:36:00 2024,290,-26.598,-26.598,3.296,3.296,0.082,24.946,9.133,3.715,24.440,9.539,-6.763,11.944,6.039,1.702,16.899,5.634
Thu Dec 05 12:36:00 2024,295,-26.624,-26.624,3.347,3.347,0.090,24.931,9.126,3.730,24.438,9.507,-6.807,11.820,5.963,1.714,16.814,5.571
Thu Dec 05 12:36:00 2024,300,-26.650,-26.650,3.396,3.396,0.101,24.918,9.119,3.745,24.435,9.475,-6.854,11.694,5.889,1.724,16.733,5.511
Thu Dec 05 12:36:00 2024,305,-26.656,-26.656,3.410,3.410,0.100,24.911,9.115,3.747,24.428,9.463,-6.865,11.657,5.868,1.728,16.704,5.492
Thu Dec 05 12:36:00 2024,310,-26.650,-26.650,3.404,3.404,0.099,24.905,9.109,3.739,24.413,9.460,-6.853,11.674,5.876,1.727,16.700,5.494
Thu Dec 05 12:36:00 2024,315,-26.644,-26.644,3.398,3.398,0.098,24.899,9.104,3.730,24.397,9.456,-6.841,11.692,5.885,1.726,16.696,5.495
Thu Dec 05 12:36:00 2024,320,-26.638,-26.638,3.392,3.392,0.096,24.892,9.098,3.722,24.382,9.452,-6.828,11.709,5.894,1.725,16.693,5.497
Thu Dec 05 12:36:00 2024,325,-26.633,-26.633,3.386,3.386,0.095,24.886,9.092,3.714,24.367,9.448,-6.816,11.726,5.903,1.724,16.689,5.499
Thu Dec 05 12:36:00 2024,330,-26.627,-26.627,3.381,3.381,0.094,24.880,9.087,3.706,24.352,9.444,-6.804,11.744,5.912,1.724,16.686,5.501
Thu Dec 05 12:36:00 2024,335,-26.621,-26.621,3.375,3.375,0.092,24.873,9.081,3.698,24.336,9.440,-6.791,11.761,5.920,1.723,16.682,5.502
Thu Dec 05 12:36:00 2024,340,-26.616,-26.616,3.369,3.369,0.091,24.867,9.075,3.690,24.321,9.436,-6.779,11.778,5.929,1.722,16.679,5.504
Thu Dec 05 12:36:00 2024,345,-26.610,-26.610,3.363,3.363,0.090,24.861,9.070,3.682,24.306,9.432,-6.767,11.796,5.938,1.721,16.675,5.506
Thu Dec 05 12:36:00 2024,350,-26.604,-26.604,3.357,3.357,0.088,24.854,9.064,3.673,24.291,9.428,-6.755,11.813,5.947,1.720,16.671,5.508
Thu Dec 05 12:36:00 2024,355,-26.598,-26.598,3.352,3.352,0.087,24.848,9.059,3.665,24.275,9.425,-6.742,11.830,5.956,1.720,16.668,5.510
Thu Dec 05 12:36:00 2024,360,-26.593,-26.593,3.346,3.346,0.086,24.842,9.053,3.657,24.260,9.421,-6.730,11.848,5.965,1.719,16.664,5.511
Thu Dec 05 12:36:00 2024,365,-26.587,-26.587,3.340,3.340,0.084,24.835,9.047,3.649,24.245,9.417,-6.718,11.865,5.973,1.718,16.661,5.513
Thu Dec 05 12:36:00 2024,370,-26.581,-26.581,3.334,3.334,0.083,24.829,9.042,3.641,24.230,9.413,-6.705,11.882,5.982,1.717,16.657,5.515
Thu Dec 05 12:36:00 2024,375,-26.575,-26.575,3.328,3.328,0.081,24.822,9.036,3.633,24.214,9.409,-6.693,11.900,5.991,1.716,16.653,5.517
Thu Dec 05 12:36:00 2024,380,-26.570,-26.570,3.323,3.323,0.080,24.816,9.030,3.625,24.199,9.405,-6.681,11.917,6.000,1.716,16.650,5.519
Thu Dec 05 12:36:00 2024,385,-26.562,-26.562,3.317,3.317,0.069,24.818,9.016,3.609,24.183,9.398,-6.678,11.936,6.011,1.720,16.675,5.533
Thu Dec 05 12:36:00 2024,390,-26.550,-26.550,3.314,3.314,0.052,24.843,8.980,3.577,24.171,9.382,-6.702,11.951,6.023,1.737,16.772,5.577
Thu Dec 05 12:36:00 2024,395,-26.554,-26.554,3.324,3.324,0.066,24.893,9.013,3.634,24.268,9.382,-6.648,11.998,5.999,1.804,16.724,5.546
Thu Dec 05 12:36:00 2024,400,-26.558,-26.558,3.332,3.332,0.093,24.932,9.040,3.681,24.345,9.382,-6.603,12.035,5.980,1.856,16.680,5.518
Thu Dec 05 12:36:00 2024,405,-26.554,-26.554,3.337,3.337,0.093,24.898,9.036,3.671,24.334,9.409,-6.592,12.026,5.986,1.857,16.667,5.546
Thu Dec 05 12:36:00 2024,410,-26.548,-26.548,3.340,3.340,0.088,24.840,9.020,3.641,24.291,9.444,-6.594,12.000,6.000,1.840,16.667,5.591
Thu Dec 05 12:36:00 2024,415,-26.558,-26.558,3.368,3.368,0.166,24.988,9.077,3.609,24.245,9.454,-6.590,11.994,5.995,1.813,16.696,5.594
Thu Dec 05 12:36:00 2024,420,-26.584,-26.584,3.425,3.425,0.339,25.345,9.209,3.566,24.184,9.445,-6.581,12.002,5.971,1.770,16.755,5.563
Thu Dec 05 12:36:00 2024,425,-26.587,-26.587,3.448,3.448,0.510,25.650,9.306,3.533,24.123,9.425,-6.586,11.996,5.934,1.735,16.811,5.536
Thu Dec 05 12:36:00 2024,430,-26.539,-26.539,3.420,3.420,0.861,26.158,9.426,3.483,23.994,9.353,-6.628,11.949,5.824,1.674,16.919,5.488
Thu Dec 05 12:36:00 2024,435,-26.498,-26.498,3.401,3.401,1.228,26.686,9.574,3.436,23.865,9.300,-6.678,11.888,5.725,1.604,17.004,5.443
Thu Dec 05 12:36:00 2024,440,-26.462,-26.462,3.405,3.405,1.801,27.438,9.894,3.382,23.679,9.301,-6.778,11.737,5.629,1.468,17.014,5.396
Thu Dec 05 12:36:00 2024,445,-26.427,-26.427,3.411,3.411,2.360,28.188,10.206,3.329,23.517,9.304,-6.877,11.589,5.538,1.335,17.013,5.351
Thu Dec 05 12:36:00 2024,450,-26.462,-26.462,3.516,3.516,3.353,29.717,11.354,3.363,23.466,9.416,-6.979,11.447,5.470,1.129,16.905,5.337
Thu Dec 05 12:36:00 2024,455,-26.518,-26.518,3.650,3.650,4.465,31.464,12.756,3.422,16.534,9.558,-7.078,11.312,5.415,0.906,16.747,5.333
Thu Dec 05 12:36:00 2024,460,-26.674,-26.674,3.873,3.873,5.392,33.786,15.102,3.548,16.439,9.502,-7.258,11.082,5.204,0.619,16.538,5.170
Thu Dec 05 12:36:00 2024,465,-26.869,-26.869,4.121,4.121,6.120,36.201,17.844,3.699,16.300,9.336,-7.467,10.823,4.936,0.326,16.311,4.935
Thu Dec 05 12:36:00 2024,470,-27.051,-27.051,4.298,4.298,6.534,39.769,22.333,3.969,16.031,8.978,-7.889,10.175,4.506,-0.148,15.948,4.483
Thu Dec 05 12:36:00 2024,475,-27.149,-27.149,4.332,4.332,6.427,43.275,27.277,4.266,15.732,8.550,-8.382,9.351,4.078,-0.623,15.561,3.980
Thu Dec 05 12:36:00 2024,480,-27.251,-27.251,4.367,4.367,6.346,46.990,32.639,4.573,15.423,8.108,-8.899,8.491,3.671,-1.118,15.121,3.492
Thu Dec 05 12:36:00 2024,485,-27.077,-27.077,3.621,3.621,4.370,52.315,42.255,4.671,15.329,8.196,-8.365,8.599,3.806,-1.718,13.952,3.115
Thu Dec 05 12:36:00 2024,490,-26.965,-26.965,3.121,3.121,3.508,56.453,49.664,4.757,15.240,8.245,-8.040,8.586,3.871,-2.166,13.124,2.836
Thu Dec 05 12:36:00 2024,495,-27.034,-27.034,2.575,2.575,4.497,63.031,60.984,4.483,24.595,8.187,-8.113,8.808,3.425,-2.305,13.465,2.683
Thu Dec 05 12:36:00 2024,500,-27.119,-27.119,-2.097,2.097,6.104,69.705,72.258,4.199,24.757,8.116,-8.228,9.029,2.973,-2.385,13.918,2.580
Thu Dec 05 12:36:00 2024,505,-26.850,-26.850,-1.686,1.686,7.488,74.093,78.800,4.102,24.793,8.607,-8.365,8.818,2.984,-2.398,14.034,2.757
Thu Dec 05 12:36:00 2024,510,-26.531,-26.531,-1.347,1.347,8.725,77.436,83.347,4.067,24.729,9.231,-8.489,8.501,3.135,-2.390,14.041,3.015
Thu Dec 05 12:36:00 2024,515,-26.290,-26.290,-1.088,1.088,9.918,80.283,86.789,4.037,24.676,9.759,-8.587,8.236,3.267,-2.383,14.046,3.244
Thu Dec 05 12:36:00 2024,520,-26.121,-26.121,-1.295,1.295,11.056,82.133,89.568,4.562,25.130,10.053,-8.299,8.131,3.428,-2.274,13.482,3.471
Thu Dec 05 12:36:00 2024,525,-25.945,-25.945,-1.392,1.392,12.584,84.414,92.378,4.944,25.463,10.434,-8.107,7.961,3.601,-2.185,13.051,3.717
Thu Dec 05 12:36:00 2024,530,-25.930,-25.930,-1.580,1.580,12.996,85.527,93.189,5.585,26.345,10.948,-7.620,8.479,4.103,-1.640,12.984,4.187
Thu Dec 05 12:36:00 2024,535,-25.905,-25.905,-1.739,1.739,13.585,86.709,94.199,6.123,27.078,11.411,-7.221,8.857,4.540,-1.203,12.842,4.613
Thu Dec 05 12:36:00 2024,540,-25.933,-25.933,-2.142,2.142,14.573,87.996,94.487,6.399,27.548,11.583,-7.077,9.015,4.570,-1.159,12.554,4.579
Thu Dec 05 12:36:00 2024,545,-25.956,-25.956,-2.514,2.514,15.501,89.120,94.723,6.639,27.964,11.737,-6.951,9.153,4.598,-1.120,12.303,4.549
Thu Dec 05 12:36:00 2024,550,-25.867,-25.867,-2.733,2.733,16.270,89.919,94.761,6.832,28.564,12.000,-6.834,9.649,4.762,-1.178,12.237,4.476
Thu Dec 05 12:36:00 2024,555,-25.748,-25.748,-2.934,2.934,17.073,90.697,94.756,7.028,29.268,12.306,-6.711,10.242,4.971,-1.259,12.206,4.391
Thu Dec 05 12:36:00 2024,560,-25.652,-25.652,-3.085,3.085,17.715,91.285,94.740,7.177,29.845,12.549,-6.617,10.703,5.143,-1.326,12.189,4.323
Thu Dec 05 12:36:00 2024,565,-25.564,-25.564,-3.117,3.117,18.258,91.705,94.804,7.163,30.404,12.899,-6.668,11.207,5.421,-1.670,12.226,4.286
Thu Dec 05 12:36:00 2024,570,-25.483,-25.483,-3.180,3.180,18.794,92.129,94.837,7.195,30.940,13.186,-6.673,11.612,5.647,-1.902,12.235,4.244
Thu Dec 05 12:36:00 2024,575,-25.389,-25.389,-3.200,3.200,19.709,92.825,94.827,7.437,31.708,13.568,-6.670,11.941,5.705,-2.139,12.226,4.079
Thu Dec 05 12:36:00 2024,580,-25.307,-25.307,-3.223,3.223,20.534,93.427,94.819,7.641,32.392,13.906,-6.665,12.224,5.774,-2.352,12.215,3.944
Thu Dec 05 12:36:00 2024,585,-25.270,-25.270,-3.254,3.254,21.274,94.053,94.628,7.750,33.007,14.125,-6.526,12.742,6.035,-2.698,12.138,3.817
Thu Dec 05 12:36:00 2024,590,-25.237,-25.237,-3.280,3.280,21.926,94.586,94.467,7.846,33.541,14.316,-6.411,13.130,6.261,-2.990,12.065,3.710
Thu Dec 05 12:36:00 2024,595,-25.202,-25.202,-3.308,3.308,22.636,95.152,94.295,7.950,34.118,14.522,-6.287,13.484,6.509,-3.300,11.977,3.599
Thu Dec 05 12:36:00 2024,600,-25.187,-25.187,-3.319,3.319,22.924,95.378,94.230,7.992,34.349,14.604,-6.237,13.606,6.610,-3.423,11.939,3.555
Thu Dec 05 12:36:00 2024,605,-25.181,-25.181,-3.322,3.322,23.020,95.454,94.214,8.006,34.426,14.632,-6.220,13.643,6.643,-3.464,11.926,3.540
Thu Dec 05 12:36:00 2024,610,-25.120,-25.120,-3.174,3.174,23.123,95.265,94.074,7.647,35.274,15.255,-6.551,13.362,6.636,-3.114,13.094,3.771
Thu Dec 05 12:36:00 2024,615,-25.094,-25.094,-3.146,3.146,23.364,95.386,93.990,7.586,35.670,15.474,-6.598,26.645,6.708,-3.119,13.351,3.795
Thu Dec 05 12:36:00 2024,620,-25.097,-25.097,-3.308,3.308,23.760,95.650,93.938,7.560,36.032,15.631,-6.529,26.534,6.829,-3.190,13.392,3.796
Thu Dec 05 12:36:00 2024,625,-25.097,-25.097,-3.422,3.422,24.064,95.849,93.896,7.534,36.327,15.762,-6.486,26.483,6.922,-3.240,13.443,3.800
Thu Dec 05 12:36:00 2024,630,-25.092,-25.092,-3.468,3.468,24.321,95.956,93.805,7.471,36.708,16.058,-6.489,26.495,7.004,-3.261,13.606,3.811
Thu Dec 05 12:36:00 2024,635,-25.089,-25.089,-3.508,3.508,24.537,96.048,93.732,7.418,37.025,16.299,-6.490,26.516,7.072,-3.280,13.736,3.819
Thu Dec 05 12:36:00 2024,640,-25.078,-25.078,-3.469,3.469,24.558,96.038,93.582,7.281,37.296,16.591,-6.523,26.568,7.144,-3.294,13.940,3.887
Thu Dec 05 12:36:00 2024,645,-25.066,-25.066,-3.416,3.416,24.533,96.007,93.430,7.136,37.534,16.868,-6.560,26.623,7.210,-3.308,14.138,3.962
Thu Dec 05 12:36:00 2024,650,-25.056,-25.056,-3.372,3.372,24.512,95.981,93.307,7.016,37.728,17.093,-6.590,26.670,7.263,-3.321,14.295,4.024
Thu Dec 05 12:36:00 2024,655,-25.041,-25.041,-3.391,3.391,24.547,96.046,93.026,6.771,38.159,17.439,-6.743,26.872,7.271,-3.288,14.610,4.099
Thu Dec 05 12:36:00 2024,660,-25.032,-25.032,-3.388,3.388,24.559,96.071,92.858,6.618,38.424,17.667,-6.826,26.988,7.288,-3.278,14.797,4.152
Thu Dec 05 12:36:00 2024,665,-24.976,-24.976,-3.257,3.257,24.232,95.957,92.717,6.462,38.597,17.697,-6.788,26.999,7.346,-3.338,14.905,4.214
Thu Dec 05 12:36:00 2024,670,-24.932,-24.932,-3.157,3.157,23.989,95.875,92.574,6.308,38.789,17.770,-6.779,27.040,7.393,-3.383,15.020,4.273
Thu Dec 05 12:36:00 2024,675,-24.966,-24.966,-3.198,3.198,23.946,95.858,92.321,6.241,38.974,17.818,-6.812,27.102,7.368,-3.481,15.048,4.302
Thu Dec 05 12:36:00 2024,680,-24.994,-24.994,-3.230,3.230,23.907,95.842,92.113,6.184,39.126,17.859,-6.839,27.156,7.349,-3.562,15.069,4.327
Thu Dec 05 12:36:00 2024,685,-24.984,-24.984,-3.180,3.180,23.806,95.810,92.005,6.084,39.242,17.887,-6.864,27.221,7.404,-3.617,15.116,4.408
Thu Dec 05 12:36:00 2024,690,-24.969,-24.969,-3.120,3.120,23.694,95.776,91.902,5.976,39.359,17.914,-6.889,27.294,7.468,-3.673,15.165,4.499
Thu Dec 05 12:36:00 2024,695,-24.954,-24.954,-3.065,3.065,23.679,95.764,91.770,5.929,39.489,17.948,-6.893,27.313,7.444,-3.719,15.175,4.490
Thu Dec 05 12:36:00 2024,700,-24.938,-24.938,-3.013,3.013,23.710,95.764,91.625,5.913,39.624,17.983,-6.886,27.304,7.377,-3.758,15.166,4.433
Thu Dec 05 12:36:00 2024,705,-24.922,-24.922,-2.962,2.962,23.741,95.764,91.483,5.898,39.755,18.018,-6.879,27.296,7.311,-3.796,15.159,4.377
Thu Dec 05 12:36:00 2024,710,-24.948,-24.948,-3.036,3.036,23.540,95.719,91.341,5.806,39.701,17.890,-6.838,27.332,7.363,-3.987,14.994,4.380
Thu Dec 05 12:36:00 2024,715,-24.960,-24.960,-3.069,3.069,23.431,95.693,91.235,5.751,39.693,17.823,-6.813,27.355,7.381,-4.104,14.896,4.372
Thu Dec 05 12:36:00 2024,720,-24.917,-24.917,-3.050,3.050,23.382,95.566,91.162,5.728,39.704,17.923,-6.814,27.357,7.467,-4.143,14.880,4.405
Thu Dec 05 12:36:00 2024,725,-24.889,-24.889,-3.040,3.040,23.339,95.479,91.102,5.707,39.711,17.984,-6.812,27.361,7.525,-4.181,14.860,4.426
Thu Dec 05 12:36:00 2024,730,-24.865,-24.865,-3.093,3.093,23.341,95.472,91.084,5.685,39.730,17.985,-6.739,27.296,7.527,-4.208,14.906,4.454
Thu Dec 05 12:36:00 2024,735,-24.846,-24.846,-3.148,3.148,23.352,95.481,91.078,5.668,39.748,17.976,-6.666,27.232,7.518,-4.228,14.952,4.478
Thu Dec 05 12:36:00 2024,740,-24.840,-24.840,-3.182,3.182,23.312,95.446,91.014,5.643,39.848,18.018,-6.629,27.213,7.534,-4.282,14.930,4.492
Thu Dec 05 12:36:00 2024,745,-24.859,-24.859,-3.175,3.175,23.194,95.342,90.865,5.613,40.070,18.140,-6.652,27.270,7.587,-4.383,14.804,4.491
Thu Dec 05 12:36:00 2024,750,-24.869,-24.869,-3.195,3.195,23.104,95.262,90.728,5.564,40.236,18.220,-6.645,27.303,7.620,-4.462,14.741,4.484
Thu Dec 05 12:36:00 2024,755,-24.878,-24.878,-3.252,3.252,23.010,95.175,90.541,5.458,40.391,18.274,-6.607,27.332,7.635,-4.536,14.738,4.454
Thu Dec 05 12:36:00 2024,760,-24.886,-24.886,-3.295,3.295,22.936,95.107,90.396,5.377,40.518,18.320,-6.578,27.358,7.649,-4.597,14.726,4.431
Thu Dec 05 12:36:00 2024,765,-24.892,-24.892,-3.225,3.225,23.014,95.179,90.426,5.352,40.624,18.400,-6.515,27.374,7.728,-4.596,14.736,4.457
Thu Dec 05 12:36:00 2024,770,-24.900,-24.900,-3.176,3.176,23.064,95.226,90.426,5.318,40.732,18.473,-6.460,27.395,7.793,-4.605,14.742,4.474
Thu Dec 05 12:36:00 2024,775,-24.949,-24.949,-3.272,3.272,23.195,95.273,90.309,5.302,40.820,18.536,-6.461,27.442,7.826,-4.666,14.719,4.499
Thu Dec 05 12:36:00 2024,780,-24.986,-24.986,-3.348,3.348,23.299,95.310,90.217,5.289,40.891,18.585,-6.462,27.480,7.852,-4.713,14.700,4.520
Thu Dec 05 12:36:00 2024,785,-25.030,-25.030,-3.356,3.356,23.234,95.301,90.211,5.306,40.936,18.611,-6.425,27.479,7.880,-4.732,14.647,4.522
Thu Dec 05 12:36:00 2024,790,-25.075,-25.075,-3.330,3.330,23.091,95.270,90.249,5.336,40.965,18.624,-6.371,27.461,7.907,-4.734,14.579,4.514
Thu Dec 05 12:36:00 2024,795,-25.106,-25.106,-3.310,3.310,22.989,95.248,90.277,5.358,40.986,18.634,-6.332,27.448,7.926,-4.736,14.528,4.508
Thu Dec 05 12:36:00 2024,800,-25.128,-25.128,-3.307,3.307,23.103,95.228,90.350,5.379,40.901,18.614,-6.278,27.501,7.931,-4.628,14.659,4.513
Thu Dec 05 12:36:00 2024,805,-25.147,-25.147,-3.300,3.300,23.136,95.212,90.393,5.394,40.864,18.607,-6.241,27.527,7.938,-4.575,14.712,4.514
Thu Dec 05 12:36:00 2024,810,-25.112,-25.112,-3.231,3.231,23.079,95.227,90.652,5.578,40.423,18.450,-6.168,27.375,7.907,-4.397,14.774,4.574
Thu Dec 05 12:36:00 2024,815,-25.086,-25.086,-3.173,3.173,23.037,95.237,90.872,5.732,40.057,18.319,-6.103,27.255,7.882,-4.242,14.825,4.623
Thu Dec 05 12:36:00 2024,820,-25.085,-25.085,-3.152,3.152,22.969,95.193,91.244,5.820,39.596,18.143,-6.058,27.187,7.935,-4.135,14.824,4.700
Thu Dec 05 12:36:00 2024,825,-25.083,-25.083,-3.130,3.130,22.902,95.151,91.608,5.912,39.144,17.970,-6.012,27.116,7.984,-4.026,14.818,4.775
Thu Dec 05 12:36:00 2024,830,-25.025,-25.025,-3.072,3.072,22.724,95.030,92.096,6.021,38.390,17.656,-5.898,26.899,8.074,-3.917,14.740,4.867
Thu Dec 05 12:36:00 2024,835,-24.967,-24.967,-3.020,3.020,22.563,94.918,92.492,6.107,37.754,17.384,-5.795,26.701,8.151,-3.836,14.655,4.940
Thu Dec 05 12:36:00 2024,840,-24.933,-24.933,-2.940,2.940,22.224,94.760,92.854,6.117,37.090,17.036,-5.739,26.518,8.225,-3.792,14.573,5.006
Thu Dec 05 12:36:00 2024,845,-24.915,-24.915,-2.811,2.811,21.637,94.515,93.274,6.057,36.228,16.529,-5.713,26.312,8.314,-3.772,14.477,5.082
Thu Dec 05 12:36:00 2024,850,-24.902,-24.902,-2.712,2.712,21.200,94.325,93.599,6.014,35.566,16.141,-5.691,26.164,8.381,-3.756,14.401,5.141
Thu Dec 05 12:36:00 2024,855,-24.857,-24.857,-2.558,2.558,20.596,93.894,94.206,5.944,34.881,16.187,-5.559,25.956,8.696,-3.629,14.434,5.386
Thu Dec 05 12:36:00 2024,860,-24.825,-24.825,-2.437,2.437,20.125,93.569,94.675,5.891,34.299,16.142,-5.465,25.792,8.918,-3.541,14.440,5.560
Thu Dec 05 12:36:00 2024,865,-24.868,-24.868,-2.311,2.311,19.103,92.778,94.532,5.740,33.591,16.064,-5.419,25.697,9.081,-3.469,14.461,5.697
Thu Dec 05 12:36:00 2024,870,-24.904,-24.904,-2.214,2.214,18.327,92.141,94.408,5.618,33.026,16.002,-5.384,25.625,9.210,-3.412,14.477,5.806
Thu Dec 05 12:36:00 2024,875,-24.952,-24.952,-2.092,2.092,17.456,91.339,94.141,5.445,32.361,15.954,-5.342,25.546,9.350,-3.376,14.482,5.876
Thu Dec 05 12:36:00 2024,880,-25.028,-25.028,-1.908,1.908,16.290,90.142,93.596,5.158,31.420,15.924,-5.286,25.447,9.532,-3.367,14.470,5.900
Thu Dec 05 12:36:00 2024,885,-25.067,-25.067,-1.855,1.855,15.243,88.917,92.529,4.876,30.666,15.766,-5.397,25.484,9.410,-3.479,14.257,5.690
Thu Dec 05 12:36:00 2024,890,-25.096,-25.096,-1.844,1.844,14.211,87.575,91.112,4.560,29.916,15.551,-5.589,25.616,9.156,-3.660,13.939,5.360
Thu Dec 05 12:36:00 2024,895,-25.120,-25.120,-1.846,1.846,13.262,86.283,88.757,4.409,29.811,15.049,-5.729,25.746,8.656,-3.640,14.074,4.826
Thu Dec 05 12:36:00 2024,900,-25.155,-25.155,-1.863,1.863,12.666,85.296,85.787,4.462,30.364,14.356,-5.783,25.830,8.005,-3.419,14.626,4.191
Thu Dec 05 12:36:00 2024,905,-25.222,-25.222,-1.890,1.890,-12.254,84.263,82.322,4.533,30.989,13.588,-5.838,25.932,7.288,-3.162,15.235,3.504
Thu Dec 05 12:36:00 2024,910,-25.461,-25.461,-2.376,2.376,-9.989,78.129,73.621,4.950,31.566,13.005,-5.331,25.455,7.082,-2.922,15.552,3.173
Thu Dec 05 12:36:00 2024,915,-25.628,-25.628,-2.718,2.718,-9.240,74.375,67.208,5.223,31.972,12.589,-5.011,25.161,6.907,-2.753,15.789,2.923
Thu Dec 05 12:36:00 2024,920,-25.517,-25.517,-3.111,3.111,-6.886,66.970,55.011,5.200,31.404,12.335,-5.350,25.371,6.675,-2.665,15.764,3.034
Thu Dec 05 12:36:00 2024,925,-25.364,-25.364,-3.445,3.445,-5.023,60.315,44.646,5.113,30.696,12.180,-5.783,25.794,6.501,-2.618,15.669,3.218
Thu Dec 05 12:36:00 2024,930,-25.264,-25.264,-3.684,3.684,-3.989,55.898,38.866,5.061,30.210,12.075,-6.074,26.154,6.398,-2.585,15.601,3.345
Thu Dec 05 12:36:00 2024,935,-25.177,-25.177,-3.817,3.817,-3.029,52.039,32.968,4.803,29.739,11.856,-6.185,13.676,6.299,-1.798,16.453,3.553
Thu Dec 05 12:36:00 2024,940,-25.092,-25.092,-3.945,3.945,-2.363,48.499,28.231,4.737,29.501,11.688,-6.120,13.706,6.279,-1.302,17.015,3.764
Thu Dec 05 12:36:00 2024,945,-25.011,-25.011,-4.014,4.014,-1.966,45.360,24.030,4.842,29.630,11.511,-5.649,14.238,6.396,-0.740,17.766,4.070
Thu Dec 05 12:36:00 2024,950,-24.937,-24.937,-4.084,4.084,-1.615,42.399,20.241,4.923,29.716,11.346,-5.248,25.318,6.498,-0.225,18.406,4.356
Thu Dec 05 12:36:00 2024,955,-24.983,-24.983,-4.103,4.103,-1.514,39.758,17.744,4.764,29.503,11.259,-4.745,24.800,6.643,0.143,18.663,4.595
Thu Dec 05 12:36:00 2024,960,-25.030,-25.030,-4.129,4.129,-1.458,37.074,15.219,4.623,29.312,11.164,-4.241,24.278,6.791,0.532,18.820,4.859
Thu Dec 05 12:36:00 2024,965,-25.057,-25.057,4.090,4.090,-1.452,35.210,13.669,4.650,29.322,10.939,-3.856,23.877,6.826,0.860,18.793,4.976
Thu Dec 05 12:36:00 2024,970,-25.085,-25.085,4.054,4.054,-1.470,33.627,12.390,4.680,29.337,10.738,-3.523,23.532,6.853,1.147,18.673,5.079
Thu Dec 05 12:36:00 2024,975,-25.112,-25.112,4.027,4.027,-1.497,32.423,11.442,4.703,29.350,10.585,-3.266,23.270,6.874,1.367,18.534,5.162
Thu Dec 05 12:36:00 2024,980,-25.237,-25.237,4.089,4.089,-1.874,31.298,10.810,4.733,29.521,10.430,-3.027,23.029,6.859,1.670,18.294,5.150
Thu Dec 05 12:36:00 2024,985,-25.325,-25.325,4.115,4.115,-2.107,30.302,10.163,4.757,29.619,10.294,-2.807,22.823,6.859,1.914,18.076,5.174
Thu Dec 05 12:36:00 2024,990,-25.301,-25.301,3.980,3.980,-2.224,29.637,9.740,4.778,29.646,10.252,-2.660,22.668,6.841,2.028,17.957,5.093
Thu Dec 05 12:36:00 2024,995,-25.308,-25.308,3.901,3.901,-2.359,29.010,9.337,4.797,29.686,10.195,-2.517,22.525,6.829,2.156,17.831,5.047
Thu Dec 05 12:36:01 2024,0,-25.376,-25.376,3.945,3.945,-2.432,28.638,9.103,4.858,29.718,10.136,-2.378,22.393,6.810,2.265,17.728,5.094
Thu Dec 05 12:36:01 2024,5,-25.437,-25.437,3.970,3.970,-2.526,28.203,8.826,4.915,29.753,10.073,-2.229,22.251,6.791,2.384,17.612,5.128
Thu Dec 05 12:36:01 2024,10,-25.484,-25.484,3.995,3.995,-2.632,27.769,8.627,4.969,29.805,10.029,-2.172,22.199,6.794,2.443,17.552,5.121
Thu Dec 05 12:36:01 2024,15,-25.525,-25.525,4.016,4.016,-2.724,27.410,8.459,5.015,29.849,9.992,-2.123,22.155,6.797,2.492,17.501,5.114
Thu Dec 05 12:36:01 2024,20,-25.603,-25.603,4.109,4.109,-2.814,26.923,8.256,5.087,29.869,9.959,-2.027,22.055,6.804,2.594,17.395,5.136
Thu Dec 05 12:36:01 2024,25,-25.697,-25.697,4.242,4.242,-2.886,26.428,8.063,5.166,29.870,9.935,-1.912,21.930,6.812,2.718,17.264,5.178
Thu Dec 05 12:36:01 2024,30,-25.752,-25.752,4.288,4.288,-2.991,25.994,7.850,5.258,29.862,9.881,-1.797,21.810,6.799,2.848,17.130,5.162
Thu Dec 05 12:36:01 2024,35,-25.792,-25.792,4.309,4.309,-3.100,25.600,7.643,5.351,29.852,9.820,-1.689,21.697,6.778,2.974,17.000,5.128
Thu Dec 05 12:36:01 2024,40,-25.821,-25.821,4.313,4.313,-3.196,25.303,7.468,5.430,29.841,9.765,-1.598,21.604,6.757,3.080,16.891,5.092
Thu Dec 05 12:36:01 2024,45,-25.852,-25.852,4.313,4.313,-3.390,24.981,7.328,5.334,29.406,9.664,-1.526,21.528,6.732,3.242,16.738,5.124
Thu Dec 05 12:36:01 2024,50,-25.880,-25.880,4.315,4.315,-3.542,24.749,7.198,5.282,29.105,9.584,-1.458,20.008,6.712,3.375,16.609,5.140
Thu Dec 05 12:36:01 2024,55,-25.930,-25.930,4.233,4.233,-3.704,24.612,7.207,5.186,28.621,9.526,-1.288,18.633,6.731,3.516,16.474,5.199
Thu Dec 05 12:36:01 2024,60,-25.981,-25.981,4.151,4.151,-3.867,24.512,7.215,5.088,28.140,9.466,-1.118,18.704,6.752,3.658,16.335,5.258
Thu Dec 05 12:36:01 2024,65,-26.020,-26.020,4.086,4.086,-4.008,24.490,7.240,4.976,27.692,9.420,-0.952,18.770,6.795,3.783,16.215,5.354
Thu Dec 05 12:36:01 2024,70,-26.056,-26.056,4.022,4.022,-4.165,24.527,7.292,4.812,27.140,9.379,-0.737,18.875,6.881,3.925,16.075,5.525
Thu Dec 05 12:36:01 2024,75,-26.099,-26.099,3.962,3.962,-4.298,24.573,7.361,4.668,26.676,9.356,-0.604,18.853,6.931,4.022,15.978,5.596
Thu Dec 05 12:36:01 2024,80,-26.153,-26.153,3.899,3.899,-4.427,24.638,7.463,4.509,26.212,9.350,-0.526,18.735,6.961,4.090,15.910,5.597
Thu Dec 05 12:36:01 2024,85,-26.194,-26.194,3.850,3.850,-4.527,24.695,7.540,4.386,25.859,9.342,-0.460,18.636,6.986,4.145,15.855,5.604
Thu Dec 05 12:36:01 2024,90,-26.174,-26.174,3.860,3.860,-4.578,24.714,7.538,4.274,25.635,9.303,-0.423,18.687,7.011,4.161,15.839,5.663
Thu Dec 05 12:36:01 2024,95,-26.167,-26.167,3.859,3.859,-4.635,24.743,7.552,4.168,25.406,9.273,-0.383,18.704,7.035,4.183,15.816,5.707
Thu Dec 05 12:36:01 2024,100,-26.122,-26.122,3.847,3.847,-4.640,24.722,7.531,4.115,25.220,9.226,-0.374,18.645,7.036,4.131,15.863,5.645
Thu Dec 05 12:36:01 2024,105,-26.079,-26.079,3.835,3.835,-4.651,24.709,7.513,4.056,25.029,9.181,-0.362,18.589,7.040,4.083,15.901,5.589
Thu Dec 05 12:36:01 2024,110,-26.085,-26.085,3.817,3.817,-4.589,24.657,7.480,4.134,25.096,9.128,-0.340,18.588,6.995,4.135,15.851,5.551
Thu Dec 05 12:36:01 2024,115,-26.100,-26.100,3.801,3.801,-4.524,24.608,7.451,4.226,25.202,9.083,-0.320,18.598,6.948,4.198,15.792,5.522
Thu Dec 05 12:36:01 2024,120,-26.104,-26.104,3.845,3.845,-4.480,24.572,7.443,4.291,25.288,9.087,-0.321,18.637,6.946,4.228,15.763,5.522
Thu Dec 05 12:36:01 2024,125,-26.100,-26.100,3.949,3.949,-4.444,24.541,7.452,4.345,25.373,9.131,-0.339,18.707,6.983,4.234,15.753,5.545
Thu Dec 05 12:36:01 2024,130,-26.098,-26.098,4.037,4.037,-4.411,24.511,7.458,4.394,25.449,9.167,-0.354,18.766,7.014,4.241,15.742,5.564
Thu Dec 05 12:36:01 2024,135,-26.109,-26.109,3.976,3.976,-4.366,24.448,7.460,4.501,25.682,9.308,-0.437,18.682,7.004,4.309,15.668,5.512
Thu Dec 05 12:36:01 2024,140,-26.117,-26.117,3.952,3.952,-4.330,24.402,7.463,4.581,25.855,9.409,-0.494,18.637,7.003,4.356,15.617,5.481
Thu Dec 05 12:36:01 2024,145,-26.120,-26.120,3.943,3.943,-4.349,24.412,7.450,4.556,25.866,9.426,-0.438,18.690,6.992,4.439,15.532,5.474
Thu Dec 05 12:36:01 2024,150,-26.123,-26.123,3.934,3.934,-4.364,24.418,7.440,4.540,25.886,9.446,-0.392,18.734,6.983,4.515,15.455,5.466
Thu Dec 05 12:36:01 2024,155,-26.129,-26.129,3.913,3.913,-4.358,24.411,7.383,4.530,25.895,9.438,-0.482,18.587,6.923,4.434,15.528,5.418
Thu Dec 05 12:36:01 2024,160,-26.135,-26.135,3.893,3.893,-4.351,24.404,7.327,4.522,25.903,9.428,-0.577,18.433,6.863,4.344,15.608,5.370
Thu Dec 05 12:36:01 2024,165,-26.133,-26.133,3.881,3.881,-4.356,24.404,7.332,4.513,25.909,9.445,-0.603,18.416,6.872,4.340,15.609,5.375
Thu Dec 05 12:36:01 2024,170,-26.124,-26.124,3.872,3.872,-4.369,24.410,7.381,4.503,25.914,9.484,-0.587,18.490,6.932,4.394,15.559,5.418
Thu Dec 05 12:36:01 2024,175,-26.106,-26.106,3.863,3.863,-4.361,24.397,7.406,4.521,25.957,9.518,-0.594,18.526,6.967,4.428,15.526,5.442
Thu Dec 05 12:36:01 2024,180,-26.072,-26.072,3.860,3.860,-4.307,24.342,7.382,4.606,26.078,9.536,-0.633,18.495,6.948,4.423,15.522,5.424
Thu Dec 05 12:36:01 2024,185,-26.044,-26.044,3.857,3.857,-4.265,24.299,7.367,4.672,26.175,9.554,-0.664,18.476,6.938,4.423,15.515,5.413
Thu Dec 05 12:36:01 2024,190,-26.052,-26.052,3.932,3.932,-4.219,24.266,7.398,4.706,26.269,9.522,-0.731,18.435,6.868,4.398,15.534,5.350
Thu Dec 05 12:36:01 2024,195,-26.054,-26.054,3.989,3.989,-4.176,24.237,7.420,4.741,26.356,9.501,-0.787,18.399,6.812,4.378,15.548,5.300
Thu Dec 05 12:36:01 2024,200,-26.056,-26.056,4.038,4.038,-4.113,24.189,7.396,4.822,26.502,9.527,-0.841,18.330,6.780,4.384,15.528,5.246
Thu Dec 05 12:36:01 2024,205,-26.057,-26.057,4.076,4.076,-4.060,24.151,7.372,4.891,26.624,9.553,-0.884,18.274,6.757,4.391,15.508,5.201
Thu Dec 05 12:36:01 2024,210,-26.025,-26.025,4.093,4.093,-4.006,24.108,7.366,4.964,26.796,9.592,-0.894,18.285,6.730,4.348,15.514,5.118
Thu Dec 05 12:36:01 2024,215,-25.984,-25.984,4.104,4.104,-3.952,24.065,7.364,5.036,26.983,9.634,-0.892,18.316,6.702,4.289,15.520,5.022
Thu Dec 05 12:36:01 2024,220,-25.983,-25.983,4.164,4.164,-3.910,24.037,7.373,5.076,27.130,9.684,-0.939,18.259,6.671,4.240,15.528,4.967
Thu Dec 05 12:36:01 2024,225,-26.012,-26.012,4.260,4.260,-3.878,24.020,7.390,5.093,27.248,9.740,-1.023,18.134,6.639,4.196,15.540,4.942
Thu Dec 05 12:36:01 2024,230,-26.043,-26.043,4.361,4.361,-3.843,24.002,7.407,5.110,27.374,9.799,-1.112,18.004,6.604,4.150,15.550,4.914
Thu Dec 05 12:36:01 2024,235,-26.003,-26.003,4.370,4.370,-3.746,23.974,7.412,5.220,27.749,9.824,-1.111,18.111,6.513,4.202,15.458,4.751
Thu Dec 05 12:36:01 2024,240,-25.983,-25.983,4.384,4.384,-3.686,23.963,7.417,5.284,27.982,9.843,-1.118,18.160,6.457,4.227,15.403,4.653
Thu Dec 05 12:36:01 2024,245,-25.979,-25.979,4.442,4.442,-3.617,23.983,7.426,5.358,28.305,9.915,-1.135,18.194,6.401,4.150,15.403,4.545
Thu Dec 05 12:36:01 2024,250,-25.977,-25.977,4.501,4.501,-3.554,24.014,7.434,5.426,28.614,9.986,-1.151,18.222,6.351,4.067,15.401,4.445
Thu Dec 05 12:36:01 2024,255,-25.952,-25.952,4.505,4.505,-3.451,24.022,7.448,5.539,28.972,10.067,-1.177,18.218,6.299,4.028,15.354,4.342
Thu Dec 05 12:36:01 2024,260,-25.900,-25.900,4.440,4.440,-3.303,23.996,7.469,5.704,29.380,10.160,-1.215,18.174,6.248,4.045,15.259,4.236
Thu Dec 05 12:36:01 2024,265,-25.874,-25.874,4.458,4.458,-3.199,24.017,7.504,5.817,29.735,10.250,-1.269,18.156,6.222,3.998,15.213,4.160
Thu Dec 05 12:36:01 2024,270,-25.871,-25.871,4.538,4.538,-3.142,24.062,7.553,5.875,29.994,10.326,-1.336,18.154,6.225,3.910,15.210,4.126
Thu Dec 05 12:36:01 2024,275,-25.866,-25.866,4.616,4.616,-3.076,24.114,7.603,5.942,30.276,10.408,-1.405,18.144,6.226,3.821,15.197,4.086
Thu Dec 05 12:36:01 2024,280,-25.855,-25.855,4.660,4.660,-3.009,24.048,7.537,6.159,30.766,10.460,-1.481,18.043,6.104,3.725,15.156,3.999
Thu Dec 05 12:36:01 2024,285,-25.847,-25.847,4.702,4.702,-2.953,24.014,7.502,6.314,31.134,10.506,-1.542,17.976,6.024,3.646,15.120,3.935
Thu Dec 05 12:36:01 2024,290,-25.889,-25.889,4.852,4.852,-2.897,23.921,7.431,6.524,31.799,10.597,-1.738,17.867,5.976,3.551,15.075,3.875
Thu Dec 05 12:36:01 2024,295,-25.919,-25.919,4.959,4.959,-2.857,23.854,7.379,6.675,32.280,10.662,-1.879,17.778,5.940,3.483,15.038,3.832
Thu Dec 05 12:36:01 2024,300,-25.936,-25.936,5.140,5.140,-2.745,23.746,7.301,6.904,33.003,10.787,-1.993,17.729,5.913,3.379,14.955,3.760
Thu Dec 05 12:36:01 2024,305,-25.902,-25.902,5.566,5.566,-2.388,23.507,7.137,7.393,34.525,11.122,-1.986,17.850,5.919,3.160,14.726,3.590
Thu Dec 05 12:36:01 2024,310,-25.797,-25.797,5.855,5.855,-2.199,23.278,6.930,7.753,36.181,11.801,-1.927,20.549,6.085,2.950,14.696,3.630
Thu Dec 05 12:36:01 2024,315,-25.614,-25.614,6.052,6.052,-2.114,23.035,6.674,8.009,38.052,12.854,-1.780,21.871,6.408,2.738,14.846,3.843
Thu Dec 05 12:36:01 2024,320,-25.402,-25.402,6.089,6.089,-2.080,22.910,6.500,8.263,40.102,14.502,-1.582,22.336,6.702,2.607,15.089,4.054
Thu Dec 05 12:36:01 2024,325,-25.038,-25.038,5.684,5.684,-2.201,23.068,6.496,8.582,43.085,18.207,-1.172,23.824,6.987,2.666,15.680,4.348
Thu Dec 05 12:36:01 2024,330,-24.751,-24.751,5.374,5.374,-2.294,23.184,6.484,8.822,45.540,21.401,-0.876,25.313,7.196,2.702,16.106,4.584
Thu Dec 05 12:36:01 2024,335,-24.758,-24.758,5.047,5.047,-2.552,23.288,6.571,8.746,47.494,23.696,-0.216,28.309,7.474,2.232,16.106,4.150
Thu Dec 05 12:36:01 2024,340,-24.774,-24.774,4.739,4.739,-2.800,23.405,6.650,8.675,49.372,26.003,0.586,31.211,7.719,1.771,16.001,3.730
Thu Dec 05 12:36:01 2024,345,-25.065,-25.065,4.912,4.912,-3.078,23.461,6.898,9.552,48.795,25.962,0.808,33.352,8.286,1.160,15.710,3.592
Thu Dec 05 12:36:01 2024,350,-25.677,-25.677,5.584,5.584,-3.445,23.552,7.366,11.527,45.743,23.290,0.685,35.197,9.329,0.263,15.127,3.704
Thu Dec 05 12:36:01 2024,355,-26.014,-26.014,5.854,5.854,-3.706,23.726,7.649,13.634,44.006,21.269,0.208,36.852,10.209,-0.452,14.427,3.657
Thu Dec 05 12:36:01 2024,360,-25.866,-25.866,5.465,5.465,-3.689,23.702,7.596,17.310,43.442,19.476,-1.545,37.436,10.968,-0.886,13.601,3.373
Thu Dec 05 12:36:01 2024,365,-25.848,-25.848,5.294,5.294,-3.733,23.736,7.620,19.769,43.586,18.026,-2.447,38.168,11.589,-1.282,12.960,3.207
Thu Dec 05 12:36:01 2024,370,-25.270,-25.270,4.879,4.879,-2.459,22.535,7.497,21.119,44.470,18.643,-2.239,38.008,12.641,-1.664,10.928,2.725
Thu Dec 05 12:36:01 2024,375,-24.862,-24.862,4.551,4.551,-1.570,21.794,7.403,22.600,45.286,18.763,-2.307,38.076,13.541,-2.045,9.355,2.381
Thu Dec 05 12:36:01 2024,380,-25.224,-25.224,-2.344,4.567,-1.538,21.920,7.665,23.321,46.771,19.468,-2.649,38.314,13.674,-2.508,8.304,1.728
Thu Dec 05 12:36:01 2024,385,-25.627,-25.627,-4.625,4.625,-1.600,22.134,7.938,23.889,48.196,20.175,-2.980,38.550,13.716,-2.930,7.434,1.360
Thu Dec 05 12:36:01 2024,390,-25.777,-25.777,-4.666,4.666,-1.482,22.066,8.207,24.573,49.917,21.686,-3.245,38.678,14.302,-2.668,6.959,1.415
Thu Dec 05 12:36:01 2024,395,-25.820,-25.820,-4.712,4.712,-1.314,21.870,8.484,25.225,51.801,23.740,-3.475,38.738,15.156,-1.991,6.775,1.548
Thu Dec 05 12:36:01 2024,400,-25.895,-25.895,-4.749,4.749,-1.187,21.745,8.719,25.763,53.406,25.425,-3.678,38.811,15.823,-1.529,6.525,1.696
Thu Dec 05 12:36:01 2024,405,-25.895,-25.895,-4.931,4.931,-0.743,21.420,9.033,26.052,54.881,27.723,-3.718,39.931,17.465,-0.720,6.711,2.116
Thu Dec 05 12:36:01 2024,410,-25.920,-25.920,0.018,5.041,-0.471,21.252,9.274,26.362,56.224,29.612,-3.818,40.547,18.608,0.003,6.695,2.442
Thu Dec 05 12:36:01 2024,415,-25.824,-25.824,4.882,4.882,0.019,20.997,9.584,27.072,57.778,32.474,-3.653,42.547,21.060,0.920,6.584,2.830
Thu Dec 05 12:36:01 2024,420,-25.776,-25.776,4.817,4.817,0.404,20.968,9.844,27.616,59.168,35.063,-3.607,44.018,23.141,1.558,6.467,3.216
Thu Dec 05 12:36:01 2024,425,-25.573,-25.573,4.726,4.726,0.981,21.485,10.291,27.545,60.565,38.473,-3.148,46.409,26.337,1.936,6.694,3.834
Thu Dec 05 12:36:01 2024,430,-25.419,-25.419,4.657,4.657,1.426,21.930,10.637,27.468,61.681,41.439,-2.846,48.316,29.101,2.220,6.868,4.345
Thu Dec 05 12:36:01 2024,435,-25.359,-25.359,4.517,4.517,1.833,22.566,11.037,27.172,63.326,45.531,-2.593,50.563,32.487,2.201,7.160,4.530
Thu Dec 05 12:36:01 2024,440,-25.348,-25.348,4.333,4.333,2.218,23.317,11.472,26.714,65.363,50.699,-2.530,53.054,36.623,1.990,7.538,4.523
Thu Dec 05 12:36:01 2024,445,-25.350,-25.350,4.196,4.196,2.519,23.884,11.799,26.431,67.292,55.354,0.112,55.113,40.340,1.942,7.896,4.524
Thu Dec 05 12:36:01 2024,450,-25.384,-25.384,4.035,4.035,2.839,24.520,12.152,26.178,69.965,61.208,3.202,57.566,44.994,1.970,8.416,4.443
Thu Dec 05 12:36:01 2024,455,-25.405,-25.405,3.897,3.897,3.119,25.072,12.464,25.948,72.318,66.584,3.731,59.704,49.553,1.978,8.841,4.410
Thu Dec 05 12:36:01 2024,460,-25.396,-25.396,3.971,3.971,3.630,25.910,13.066,24.767,74.515,71.848,4.430,61.450,54.251,1.926,9.496,4.644
Thu Dec 05 12:36:01 2024,465,-25.397,-25.397,3.983,3.983,3.959,26.469,13.454,24.055,76.268,75.645,5.035,62.851,57.917,1.900,9.935,4.778
Thu Dec 05 12:36:01 2024,470,-25.408,-25.408,4.049,4.049,4.213,26.776,13.657,23.095,77.672,79.206,5.606,64.247,61.412,1.975,10.182,4.742
Thu Dec 05 12:36:01 2024,475,-25.415,-25.415,4.096,4.096,4.437,27.074,13.857,22.316,78.955,82.037,6.135,65.431,64.393,2.021,10.421,4.749
Thu Dec 05 12:36:01 2024,480,-25.438,-25.438,4.185,4.185,4.660,27.322,13.942,22.086,80.239,84.632,6.644,66.634,67.376,2.318,10.779,4.740
Thu Dec 05 12:36:01 2024,485,-25.457,-25.457,4.259,4.259,4.841,27.523,14.006,21.924,81.294,86.658,7.073,67.619,69.789,2.570,11.062,4.738
Thu Dec 05 12:36:01 2024,490,-25.481,-25.481,4.275,4.275,4.964,27.684,14.045,21.914,82.067,87.928,7.458,68.362,71.442,2.690,11.280,4.740
Thu Dec 05 12:36:01 2024,495,-25.536,-25.536,4.173,4.173,5.055,27.886,14.059,22.215,82.826,88.699,8.032,69.163,72.794,2.616,11.549,4.748
Thu Dec 05 12:36:01 2024,500,-25.594,-25.594,4.105,4.105,5.223,28.135,14.054,22.265,83.705,89.890,8.733,70.058,74.559,2.500,11.861,4.698
Thu Dec 05 12:36:01 2024,505,-25.638,-25.638,4.056,4.056,5.365,28.326,14.031,22.210,84.307,90.756,9.289,70.672,75.806,2.351,12.089,4.634
Thu Dec 05 12:36:01 2024,510,-25.692,-25.692,3.984,3.984,5.510,28.538,14.006,22.198,85.131,91.854,10.080,71.474,77.408,2.122,12.402,4.582
Thu Dec 05 12:36:01 2024,515,-25.737,-25.737,3.897,3.897,5.530,28.634,13.998,22.337,85.990,92.839,10.953,72.206,78.924,1.811,12.735,4.606
Thu Dec 05 12:36:01 2024,520,-25.781,-25.781,3.814,3.814,5.556,28.733,13.988,22.481,86.825,93.762,11.825,72.926,80.310,1.516,13.047,4.632
Thu Dec 05 12:36:01 2024,525,-25.786,-25.786,3.813,3.813,5.510,28.707,13.953,22.316,87.280,94.164,13.217,73.376,81.292,0.980,13.244,4.594
Thu Dec 05 12:36:01 2024,530,-25.789,-25.789,3.815,3.815,5.463,28.677,13.919,22.150,87.705,94.527,14.620,73.814,82.155,0.459,13.398,4.557
Thu Dec 05 12:36:01 2024,535,-25.715,-25.715,3.692,3.692,5.364,28.622,13.946,21.572,87.857,94.345,15.602,73.970,82.428,-0.093,13.566,4.554
Thu Dec 05 12:36:01 2024,540,-25.622,-25.622,3.540,3.540,5.247,28.559,13.984,20.888,87.985,94.056,16.633,74.108,82.612,-0.550,13.716,4.554
Thu Dec 05 12:36:01 2024,545,-25.591,-25.591,3.483,3.483,5.141,28.529,14.042,20.486,88.249,94.028,17.961,74.229,82.846,-1.074,13.784,4.532
Thu Dec 05 12:36:01 2024,550,-25.602,-25.602,3.493,3.493,5.057,28.525,14.101,20.315,88.557,94.169,19.270,74.327,83.043,-1.525,13.784,4.504
Thu Dec 05 12:36:01 2024,555,-25.611,-25.611,3.456,3.456,4.978,28.505,14.141,20.187,88.866,94.319,20.472,74.372,83.256,-1.919,13.793,4.474
Thu Dec 05 12:36:01 2024,560,-25.617,-25.617,3.353,3.353,4.905,28.460,14.155,20.120,89.169,94.478,21.488,74.332,83.525,-2.226,13.839,4.443
Thu Dec 05 12:36:01 2024,565,-25.623,-25.623,3.259,3.259,4.839,28.420,14.167,20.066,89.449,94.623,22.413,74.304,83.731,-2.505,13.864,4.415
Thu Dec 05 12:36:01 2024,570,-25.625,-25.625,3.121,3.121,4.748,28.357,14.263,20.242,89.840,94.696,23.672,74.293,83.972,-2.819,13.891,4.546
Thu Dec 05 12:36:01 2024,575,-25.629,-25.629,3.006,3.006,4.670,28.304,14.338,20.380,90.174,94.763,24.733,74.296,84.120,-3.090,13.896,4.646
Thu Dec 05 12:36:01 2024,580,-25.614,-25.614,2.971,2.971,4.648,28.378,14.450,20.676,90.734,95.131,26.066,74.306,84.463,-3.357,14.012,4.866
Thu Dec 05 12:36:01 2024,585,-25.598,-25.598,2.944,2.944,4.630,28.466,14.566,21.004,91.325,95.520,27.417,74.336,84.740,-3.625,14.114,5.103
Thu Dec 05 12:36:01 2024,590,-25.561,-25.561,2.780,2.780,4.628,28.532,14.692,21.701,92.212,96.020,28.646,74.335,85.465,-3.820,14.185,5.335
Thu Dec 05 12:36:01 2024,595,-25.510,-25.510,2.530,2.530,4.632,28.603,14.849,22.732,93.405,96.613,30.065,74.336,86.418,-4.028,14.249,5.618
Thu Dec 05 12:36:01 2024,600,-25.500,-25.500,2.381,2.381,4.600,28.689,15.035,23.634,94.418,96.872,31.287,74.180,86.994,-4.243,14.267,5.898
Thu Dec 05 12:36:01 2024,605,-25.526,-25.526,2.350,2.350,4.545,28.768,15.200,24.186,95.033,96.827,32.054,73.929,87.157,-4.412,14.248,6.106
Thu Dec 05 12:36:01 2024,610,-25.555,-25.555,2.316,2.316,4.486,28.853,15.377,24.799,95.694,96.765,32.859,73.675,87.265,-4.595,14.216,6.332
Thu Dec 05 12:36:01 2024,615,-25.630,-25.630,-2.196,2.196,4.215,28.712,15.623,24.368,95.656,96.211,33.254,72.088,86.395,-4.886,14.046,6.577
Thu Dec 05 12:36:01 2024,620,-25.690,-25.690,-2.099,2.099,3.998,28.613,15.830,24.088,95.682,95.768,33.607,70.868,85.524,-5.129,13.899,6.796
Thu Dec 05 12:36:01 2024,625,-25.755,-25.755,-2.058,2.058,3.774,28.453,16.031,23.174,95.184,95.006,33.672,69.145,83.654,-5.369,13.690,6.844
Thu Dec 05 12:36:01 2024,630,-25.825,-25.825,-2.020,2.020,3.536,28.280,16.241,22.170,94.600,94.128,33.705,67.339,81.222,-5.623,13.460,6.880
Thu Dec 05 12:36:01 2024,635,-25.884,-25.884,1.989,1.989,3.334,28.138,16.419,21.351,94.109,93.354,33.728,65.883,78.869,-5.840,13.263,6.913
Thu Dec 05 12:36:01 2024,640,-25.791,-25.791,1.851,1.851,3.055,27.833,16.411,19.657,92.671,92.609,33.193,63.415,74.378,-5.865,13.196,6.804
Thu Dec 05 12:36:01 2024,645,-25.762,-25.762,1.753,1.753,2.799,27.592,16.480,18.372,91.576,91.724,32.895,61.464,69.906,-5.971,13.073,6.762
Thu Dec 05 12:36:01 2024,650,-25.833,-25.833,1.721,1.721,2.655,27.363,16.508,17.045,90.175,90.376,32.528,59.490,63.867,-6.186,12.911,6.897
Thu Dec 05 12:36:01 2024,655,-25.867,-25.867,1.681,1.681,2.520,27.186,16.540,16.108,89.165,89.340,32.281,58.131,59.209,-6.327,12.794,6.971
Thu Dec 05 12:36:01 2024,660,-25.816,-25.816,1.698,1.698,2.399,26.920,16.461,15.087,87.893,88.574,31.908,56.918,54.816,-6.328,12.692,6.838
Thu Dec 05 12:36:01 2024,665,-25.789,-25.789,1.702,1.702,2.294,26.707,16.413,14.277,86.842,87.787,31.627,55.933,50.939,-6.354,12.600,6.768
Thu Dec 05 12:36:01 2024,670,-25.739,-25.739,1.673,1.673,2.247,26.565,16.327,13.549,85.687,86.475,31.368,55.134,47.413,-6.458,12.331,6.520
Thu Dec 05 12:36:01 2024,675,-25.694,-25.694,1.645,1.645,2.211,26.447,16.248,12.945,84.669,85.198,31.150,54.478,44.401,-6.555,12.075,6.293
Thu Dec 05 12:36:01 2024,680,-25.663,-25.663,1.761,1.761,2.221,26.310,16.105,12.533,83.766,83.994,31.108,54.265,42.908,-6.662,11.770,6.022
Thu Dec 05 12:36:01 2024,685,-25.648,-25.648,1.884,1.884,2.244,26.213,15.990,12.326,83.202,83.201,31.136,54.260,42.399,-6.736,11.549,5.832
Thu Dec 05 12:36:01 2024,690,-25.588,-25.588,2.021,2.021,2.362,26.243,15.873,12.442,82.989,82.700,31.248,54.582,43.088,-6.737,11.396,5.635
Thu Dec 05 12:36:01 2024,695,-25.468,-25.468,2.189,2.189,2.605,26.429,15.743,12.984,83.168,82.500,31.467,55.345,45.226,-6.654,11.304,5.410
Thu Dec 05 12:36:01 2024,700,-25.376,-25.376,2.319,2.319,2.793,26.578,15.642,13.444,83.312,82.331,31.632,55.956,46.855,-6.588,11.229,5.242
Thu Dec 05 12:36:01 2024,705,-25.224,-25.224,2.387,2.387,3.098,26.870,15.497,15.856,85.598,84.773,32.296,58.165,53.453,-6.510,11.402,5.185
Thu Dec 05 12:36:01 2024,710,-25.118,-25.118,2.447,2.447,3.309,27.073,15.395,17.541,87.011,86.030,32.729,59.708,57.503,-6.454,11.496,5.135
Thu Dec 05 12:36:01 2024,715,-24.960,-24.960,2.498,2.498,3.581,27.309,15.228,19.224,88.666,86.730,32.639,62.199,63.771,-5.995,11.901,4.903
Thu Dec 05 12:36:01 2024,720,-24.804,-24.804,2.550,2.550,3.851,27.549,15.062,20.960,90.264,87.282,32.538,64.949,69.116,-5.559,12.284,4.706
Thu Dec 05 12:36:01 2024,725,-24.661,-24.661,2.595,2.595,4.101,27.878,14.919,21.779,90.782,87.869,31.380,66.993,73.103,-4.854,12.632,4.443
Thu Dec 05 12:36:01 2024,730,-24.512,-24.512,2.642,2.642,4.362,28.239,14.771,22.513,91.178,88.477,29.882,69.290,76.432,-4.074,12.928,4.168
Thu Dec 05 12:36:01 2024,735,-24.401,-24.401,-2.816,2.816,4.577,28.576,14.701,22.713,90.923,88.653,26.958,70.600,78.129,-2.964,13.292,3.816
Thu Dec 05 12:36:01 2024,740,-24.330,-24.330,3.034,3.034,4.729,28.844,14.690,22.595,90.352,88.577,23.649,71.170,78.390,-1.851,13.520,3.475
Thu Dec 05 12:36:01 2024,745,-24.266,-24.266,3.230,3.230,4.866,29.086,14.684,22.506,89.847,88.519,20.589,71.806,78.050,-0.848,13.565,3.172
Thu Dec 05 12:36:01 2024,750,-24.161,-24.161,3.461,3.461,4.978,29.251,14.730,21.315,88.414,86.751,17.360,70.437,76.177,0.638,13.276,3.239
Thu Dec 05 12:36:01 2024,755,-24.084,-24.084,3.669,3.669,5.082,29.417,14.771,20.500,87.295,85.473,14.505,69.619,74.333,1.898,12.816,3.338
Thu Dec 05 12:36:01 2024,760,-23.995,-23.995,3.928,3.928,4.734,29.153,14.955,19.433,83.168,79.671,11.047,65.454,66.280,2.705,12.061,3.613
Thu Dec 05 12:36:01 2024,765,-23.944,-23.944,4.152,4.152,4.445,28.944,15.114,18.810,79.827,74.605,8.350,62.062,59.016,3.432,11.383,4.034
Thu Dec 05 12:36:01 2024,770,-23.921,-23.921,4.410,4.410,3.632,27.417,14.632,19.380,74.351,66.083,5.612,57.459,49.236,3.195,10.473,4.210
Thu Dec 05 12:36:01 2024,775,-23.940,-23.940,4.658,4.658,2.794,25.828,14.097,20.187,69.236,57.622,3.366,53.132,40.912,2.882,9.540,4.405
Thu Dec 05 12:36:01 2024,780,-23.986,-23.986,-4.861,4.861,2.096,24.520,13.651,20.865,65.320,51.260,2.010,49.730,35.292,2.632,8.748,4.602
Thu Dec 05 12:36:01 2024,785,-23.619,-23.619,5.702,5.702,0.942,25.283,13.152,21.691,59.324,38.252,1.765,46.588,28.353,4.123,7.964,3.992
Thu Dec 05 12:36:01 2024,790,-23.437,-23.437,6.226,6.226,0.068,25.484,12.732,22.266,55.476,32.152,1.311,43.898,24.699,4.821,7.230,3.734
Thu Dec 05 12:36:01 2024,795,-24.258,-24.258,6.655,6.655,0.466,27.327,14.946,15.537,54.161,31.601,1.620,41.243,21.069,5.107,7.568,3.111
Thu Dec 05 12:36:01 2024,800,-24.736,-24.736,7.041,7.041,0.561,28.512,16.264,11.854,53.183,30.087,1.817,39.162,18.675,5.449,7.592,2.812
Thu Dec 05 12:36:01 2024,805,-24.719,-24.719,-7.342,7.342,0.473,29.419,14.142,10.329,50.020,25.981,1.020,36.412,16.026,5.722,8.701,3.123
Thu Dec 05 12:36:01 2024,810,-24.747,-24.747,-7.611,7.611,0.396,30.230,12.444,9.030,47.465,22.777,0.491,34.062,13.845,5.924,9.583,3.380
Thu Dec 05 12:36:01 2024,815,-24.845,-24.845,-7.738,7.738,0.258,29.812,10.987,8.116,43.102,17.896,-0.403,32.445,12.638,5.898,10.128,3.462
Thu Dec 05 12:36:01 2024,820,-24.938,-24.938,-7.856,7.856,-0.198,29.375,9.688,7.353,39.093,13.566,-0.710,30.997,11.570,5.852,10.615,3.611
Thu Dec 05 12:36:01 2024,825,-25.023,-25.023,7.970,7.970,-0.248,28.981,8.550,6.717,35.599,10.082,-1.059,29.708,10.620,5.799,11.051,3.813
Thu Dec 05 12:36:01 2024,830,-24.860,-24.860,7.537,7.537,-0.187,28.678,8.548,6.321,34.404,10.284,-1.156,28.420,9.659,6.002,11.773,4.109
Thu Dec 05 12:36:01 2024,835,-24.787,-24.787,7.319,7.319,-0.212,28.386,8.226,5.835,32.649,9.521,-1.093,27.249,8.832,6.104,12.254,4.322
Thu Dec 05 12:36:01 2024,840,-24.727,-24.727,7.154,7.154,-0.272,28.197,8.060,5.460,31.522,9.198,-0.866,26.427,8.282,6.184,12.539,4.434
Thu Dec 05 12:36:01 2024,845,-24.671,-24.671,6.947,6.947,-0.362,27.961,7.853,4.977,30.095,8.791,-0.587,25.400,7.615,6.289,12.840,4.574
Thu Dec 05 12:36:01 2024,850,-24.672,-24.672,6.797,6.797,-0.722,27.731,7.905,4.528,29.274,8.826,-0.153,24.694,7.381,6.411,12.970,4.704
Thu Dec 05 12:36:01 2024,855,-24.677,-24.677,6.630,6.630,-1.070,27.508,7.920,4.043,28.309,8.785,0.281,23.946,7.082,6.540,13.072,4.842
Thu Dec 05 12:36:01 2024,860,-24.686,-24.686,6.520,6.520,-1.302,27.371,7.931,3.718,27.664,8.756,0.559,23.482,6.890,6.628,13.109,4.932
Thu Dec 05 12:36:01 2024,865,-24.728,-24.728,6.420,6.420,-1.791,27.083,8.145,3.278,26.725,8.968,0.770,23.013,7.091,6.571,13.120,5.087
Thu Dec 05 12:36:01 2024,870,-24.755,-24.755,6.317,6.317,-2.152,26.914,8.206,2.866,25.884,8.989,0.970,22.708,7.184,6.492,13.227,5.227
Thu Dec 05 12:36:01 2024,875,-24.777,-24.777,6.228,6.228,-2.463,26.785,8.236,2.499,25.140,8.978,1.123,22.508,7.300,6.384,13.356,5.355
Thu Dec 05 12:36:01 2024,880,-24.798,-24.798,6.147,6.147,-2.752,26.685,8.266,2.158,24.447,8.970,1.267,22.348,7.408,6.286,13.473,5.475
Thu Dec 05 12:36:01 2024,885,-24.763,-24.763,6.086,6.086,-2.948,26.569,8.256,1.602,23.354,8.659,1.311,22.367,7.432,6.011,13.721,5.496
Thu Dec 05 12:36:01 2024,890,-24.747,-24.747,6.028,6.028,-3.143,26.485,8.258,1.160,22.485,8.460,1.372,22.348,7.473,5.809,13.909,5.540
Thu Dec 05 12:36:01 2024,895,-24.763,-24.763,5.999,5.999,-3.225,26.478,8.227,0.997,22.021,8.334,1.502,22.492,7.540,5.589,14.118,5.530
Thu Dec 05 12:36:01 2024,900,-24.772,-24.772,5.969,5.969,-3.320,26.462,8.206,0.797,21.526,8.209,1.608,22.596,7.598,5.390,14.306,5.531
Thu Dec 05 12:36:01 2024,905,-24.785,-24.785,5.890,5.890,-3.490,26.520,8.232,0.557,21.064,8.132,1.608,22.666,7.670,5.138,14.561,5.650
Thu Dec 05 12:36:01 2024,910,-24.795,-24.795,5.818,5.818,-3.644,26.577,8.258,0.342,20.650,8.065,1.604,22.728,7.735,4.912,14.791,5.761
Thu Dec 05 12:36:01 2024,915,-24.843,-24.843,5.779,5.779,-3.814,26.574,8.236,0.186,20.276,7.951,1.566,22.611,7.705,4.736,14.934,5.741
Thu Dec 05 12:36:01 2024,920,-24.905,-24.905,5.744,5.744,-4.006,26.565,8.202,0.028,19.817,7.815,1.517,22.442,7.652,4.550,15.070,5.689
Thu Dec 05 12:36:01 2024,925,-24.937,-24.937,5.718,5.718,-4.133,26.599,8.166,-0.095,19.487,7.675,1.449,22.280,7.582,4.415,15.195,5.670
Thu Dec 05 12:36:01 2024,930,-24.939,-24.939,5.702,5.702,-4.198,26.673,8.127,-0.180,19.204,7.520,1.357,22.114,7.492,4.324,15.318,5.682
Thu Dec 05 12:36:01 2024,935,-24.940,-24.940,5.690,5.690,-4.249,26.731,8.096,-0.248,18.980,7.398,1.284,21.982,7.421,4.253,15.414,5.692
Thu Dec 05 12:36:01 2024,940,-24.954,-24.954,5.662,5.662,-4.222,26.759,8.132,-0.389,18.503,7.342,0.884,21.216,7.294,4.095,15.602,5.779
Thu Dec 05 12:36:01 2024,945,-24.962,-24.962,5.644,5.644,-4.211,26.783,8.152,-0.487,18.177,7.292,0.623,20.740,7.208,3.988,15.731,5.834
Thu Dec 05 12:36:01 2024,950,-24.952,-24.952,5.587,5.587,-4.118,26.759,8.072,-0.527,17.797,7.244,0.208,19.527,7.056,3.922,15.882,5.914
Thu Dec 05 12:36:01 2024,955,-24.943,-24.943,5.535,5.535,-4.032,26.739,8.000,-0.567,17.437,7.199,-0.181,18.849,6.913,3.857,16.012,5.988
Thu Dec 05 12:36:01 2024,960,-24.953,-24.953,5.520,5.520,-3.869,26.711,7.992,-0.629,17.082,7.104,-0.761,17.688,6.681,3.741,16.160,6.005
Thu Dec 05 12:36:01 2024,965,-24.964,-24.964,5.518,5.518,-3.742,26.694,7.998,-0.676,16.842,7.031,-1.196,16.812,6.502,3.652,16.264,6.006
Thu Dec 05 12:36:01 2024,970,-24.975,-24.975,5.515,5.515,-3.610,26.678,8.004,-0.726,16.590,6.955,-1.655,15.889,6.312,3.559,16.371,6.007
Thu Dec 05 12:36:01 2024,975,-24.955,-24.955,5.368,5.368,-3.521,26.668,7.991,-0.944,16.418,7.060,-2.256,14.946,6.214,3.600,16.372,6.053
Thu Dec 05 12:36:01 2024,980,-24.948,-24.948,5.294,5.294,-3.445,26.661,7.986,-1.065,16.267,7.095,-2.670,14.239,6.113,3.597,16.391,6.077
Thu Dec 05 12:36:01 2024,985,-24.933,-24.933,5.230,5.230,-3.383,26.556,7.970,-1.210,15.948,7.093,-3.050,13.646,6.084,3.588,16.405,6.214
Thu Dec 05 12:36:01 2024,990,-24.920,-24.920,5.174,5.174,-3.330,26.458,7.955,-1.339,15.657,7.089,-3.388,13.117,6.059,3.580,16.417,6.340
Thu Dec 05 12:36:01 2024,995,-24.963,-24.963,5.210,5.210,-3.291,26.414,7.974,-1.397,15.439,7.012,-3.642,12.895,5.997,3.527,16.464,6.304
Thu Dec 05 12:36:02 2024,0,-25.003,-25.003,5.243,5.243,-3.255,26.374,7.993,-1.450,15.236,6.941,-3.879,12.685,5.938,3.477,16.504,6.271
Thu Dec 05 12:36:02 2024,5,-25.016,-25.016,5.245,5.245,-3.263,26.310,7.992,-1.456,15.036,6.851,-4.077,12.557,5.901,3.427,16.549,6.285
Thu Dec 05 12:36:02 2024,10,-25.014,-25.014,5.229,5.229,-3.295,26.227,7.979,-1.437,14.812,6.740,-4.278,12.456,5.872,3.371,16.602,6.325
Thu Dec 05 12:36:02 2024,15,-25.006,-25.006,5.207,5.207,-3.267,26.169,7.959,-1.340,14.757,6.677,-4.383,12.409,5.829,3.329,16.638,6.280
Thu Dec 05 12:36:02 2024,20,-24.990,-24.990,5.178,5.178,-3.200,26.130,7.932,-1.182,14.837,6.653,-4.405,12.421,5.781,3.300,16.658,6.178
Thu Dec 05 12:36:02 2024,25,-24.977,-24.977,5.154,5.154,-3.147,26.095,7.910,-1.056,14.885,6.628,-4.433,12.424,5.741,3.273,16.676,6.098
Thu Dec 05 12:36:02 2024,30,-25.019,-25.019,5.191,5.191,-3.210,26.022,7.877,-0.957,15.041,6.652,-4.352,12.753,5.853,3.201,16.769,6.226
Thu Dec 05 12:36:02 2024,35,-25.044,-25.044,5.212,5.212,-3.243,25.967,7.851,-0.869,15.153,6.664,-4.303,12.972,5.921,3.148,16.833,6.299
Thu Dec 05 12:36:02 2024,40,-24.988,-24.988,5.206,5.206,-3.197,25.935,7.797,-0.619,15.569,6.683,-4.127,13.305,5.894,3.173,16.820,6.268
Thu Dec 05 12:36:02 2024,45,-24.943,-24.943,5.202,5.202,-3.159,25.906,7.749,-0.401,15.922,6.700,-3.974,13.599,5.875,3.191,16.808,6.247
Thu Dec 05 12:36:02 2024,50,-24.914,-24.914,5.196,5.196,-3.104,25.898,7.744,-0.201,16.176,6.730,-3.893,13.776,5.874,3.179,16.820,6.281
Thu Dec 05 12:36:02 2024,55,-24.892,-24.892,5.186,5.186,-3.020,25.910,7.779,0.038,16.396,6.783,-3.860,13.883,5.891,3.134,16.860,6.378
Thu Dec 05 12:36:02 2024,60,-24.872,-24.872,5.180,5.180,-2.959,25.914,7.795,0.225,16.580,6.818,-3.814,13.999,5.899,3.108,16.875,6.438
Thu Dec 05 12:36:02 2024,65,-24.860,-24.860,5.286,5.286,-2.911,25.920,7.753,0.244,16.520,6.741,-4.038,13.729,5.865,3.018,16.956,6.417
Thu Dec 05 12:36:02 2024,70,-24.847,-24.847,5.341,5.341,-2.868,25.925,7.735,0.310,16.541,6.712,-4.145,13.618,5.850,2.962,16.999,6.423
Thu Dec 05 12:36:02 2024,75,-24.848,-24.848,5.342,5.342,-2.725,26.039,7.901,0.104,16.034,6.623,-4.264,13.391,5.832,2.916,17.066,6.426
Thu Dec 05 12:36:02 2024,80,-24.847,-24.847,5.353,5.353,-2.626,26.118,8.003,-0.028,15.712,6.561,-4.360,13.225,5.817,2.876,17.114,6.430
Thu Dec 05 12:36:02 2024,85,-24.821,-24.821,5.339,5.339,-2.567,26.146,8.183,-0.208,15.342,6.614,-4.266,13.432,6.034,2.716,17.280,6.537
Thu Dec 05 12:36:02 2024,90,-24.802,-24.802,5.330,5.330,-2.520,26.174,8.317,-0.344,15.052,6.645,-4.206,13.566,6.185,2.601,17.398,6.614
Thu Dec 05 12:36:02 2024,95,-24.784,-24.784,5.361,5.361,-2.444,26.282,8.499,-0.318,15.046,6.736,-3.960,14.125,6.434,2.526,17.472,6.740
Thu Dec 05 12:36:02 2024,100,-24.764,-24.764,5.445,5.445,-2.325,26.499,8.757,-0.105,15.375,6.910,-3.472,15.229,6.824,2.492,17.502,6.943
Thu Dec 05 12:36:02 2024,105,-24.736,-24.736,5.505,5.505,-2.252,26.605,8.895,0.134,15.608,6.969,-3.097,16.085,7.094,2.395,17.598,7.006
Thu Dec 05 12:36:02 2024,110,-24.675,-24.675,5.597,5.597,-2.191,26.626,8.928,0.796,16.040,6.897,-2.515,17.336,7.390,2.148,17.847,6.887
Thu Dec 05 12:36:02 2024,115,-24.633,-24.633,5.666,5.666,-2.134,26.672,8.990,1.229,16.270,6.876,-2.076,22.107,7.637,1.980,18.016,6.842
Thu Dec 05 12:36:02 2024,120,-24.589,-24.589,5.829,5.829,-2.142,26.687,8.957,2.102,16.540,7.031,-1.550,23.166,8.516,1.726,18.250,6.871
Thu Dec 05 12:36:02 2024,125,-24.543,-24.543,6.043,6.043,-2.096,26.741,8.843,2.969,16.361,7.046,-0.987,25.281,9.437,1.472,21.525,6.769
Thu Dec 05 12:36:02 2024,130,-24.500,-24.500,6.338,6.338,-2.001,26.834,8.576,3.863,15.917,6.918,-0.440,27.652,10.517,1.227,21.315,6.513
Thu Dec 05 12:36:02 2024,135,-24.461,-24.461,6.624,6.624,-1.906,26.927,8.311,4.726,15.226,6.772,0.291,30.044,11.650,0.995,21.138,6.258
Thu Dec 05 12:36:02 2024,140,-24.566,-24.566,6.908,6.908,-1.765,27.440,8.345,5.110,14.884,6.798,0.830,32.776,13.622,0.814,21.038,5.990
Thu Dec 05 12:36:02 2024,145,-24.666,-24.666,7.154,7.154,-1.633,27.906,8.387,5.444,14.492,6.834,1.407,35.208,15.482,0.662,20.982,5.759
Thu Dec 05 12:36:02 2024,150,-24.816,-24.816,7.363,7.363,-1.583,28.350,8.277,5.488,25.631,6.439,2.151,37.004,17.436,0.728,21.207,5.762
Thu Dec 05 12:36:02 2024,155,-25.000,-25.000,7.493,7.493,-1.653,28.686,7.990,5.129,25.288,5.543,2.932,37.653,19.162,1.064,21.726,6.069
Thu Dec 05 12:36:02 2024,160,-25.155,-25.155,7.630,7.630,-1.679,29.014,7.784,4.922,25.123,4.890,3.674,38.604,20.948,1.298,22.115,6.268
Thu Dec 05 12:36:02 2024,165,-25.310,-25.310,7.295,7.295,-2.421,29.162,7.540,4.390,15.607,3.502,6.814,38.707,21.989,1.025,23.280,6.648
Thu Dec 05 12:36:02 2024,170,-25.451,-25.451,7.119,7.119,-2.903,29.380,7.333,3.983,15.855,2.562,9.213,39.379,23.269,0.927,24.234,6.950
Thu Dec 05 12:36:02 2024,175,-25.451,-25.451,7.127,7.127,-3.030,28.647,7.479,4.394,15.585,4.089,11.549,35.669,19.689,-0.752,24.772,7.888
Thu Dec 05 12:36:02 2024,180,-25.484,-25.484,7.099,7.099,-3.220,28.200,7.546,4.595,15.404,5.002,13.772,35.003,16.841,-1.961,25.686,8.633
Thu Dec 05 12:36:02 2024,185,-25.442,-25.442,7.150,7.150,-3.674,27.852,7.570,4.522,15.454,5.847,16.267,19.697,16.200,-4.056,26.601,9.193
Thu Dec 05 12:36:02 2024,190,-25.415,-25.415,7.197,7.197,-4.017,27.612,7.594,4.465,17.732,6.517,18.147,1.668,15.745,-5.686,27.644,9.620
Thu Dec 05 12:36:02 2024,195,-25.258,-25.258,6.900,6.900,-3.926,27.628,7.722,5.021,25.415,6.709,18.349,1.586,14.473,-6.158,28.155,9.485
Thu Dec 05 12:36:02 2024,200,-25.089,-25.089,6.530,6.530,-3.708,27.731,7.867,5.724,26.575,6.736,17.986,1.998,13.061,-6.199,28.413,9.195
Thu Dec 05 12:36:02 2024,205,-24.980,-24.980,6.414,6.414,-3.602,27.410,7.852,6.177,27.263,6.724,17.566,2.435,11.815,-6.652,28.589,8.957
Thu Dec 05 12:36:02 2024,210,-24.904,-24.904,6.479,6.479,-3.574,26.729,7.710,6.485,27.618,6.677,17.050,2.848,10.540,-7.483,28.833,8.731
Thu Dec 05 12:36:02 2024,215,-24.965,-24.965,6.756,6.756,-3.503,26.154,7.681,6.795,28.118,6.762,16.384,3.269,9.518,-8.293,29.306,8.807
Thu Dec 05 12:36:02 2024,220,-25.194,-25.194,7.279,7.279,-3.379,25.743,7.798,7.078,28.771,7.003,15.589,3.739,8.930,-9.011,29.915,9.260
Thu Dec 05 12:36:02 2024,225,-25.403,-25.403,7.756,7.756,-3.266,25.372,7.905,7.335,29.383,7.223,14.856,4.067,8.428,-9.665,30.482,9.678
Thu Dec 05 12:36:02 2024,230,-25.378,-25.378,7.768,7.768,-2.951,25.179,7.806,7.752,30.269,7.443,13.724,5.218,8.688,-10.011,31.004,9.703
Thu Dec 05 12:36:02 2024,235,-25.369,-25.369,7.802,7.802,-2.667,24.998,7.723,8.137,31.099,7.648,12.678,6.259,8.906,-10.344,31.498,9.745
Thu Dec 05 12:36:02 2024,240,-25.296,-25.296,7.806,7.806,-2.314,24.800,7.632,8.426,31.710,7.770,12.473,6.871,9.659,-10.334,31.640,9.849
Thu Dec 05 12:36:02 2024,245,-25.232,-25.232,7.809,7.809,-2.012,24.643,7.553,8.669,32.219,7.869,12.358,7.284,10.332,-10.301,31.743,9.944
Thu Dec 05 12:36:02 2024,250,-25.136,-25.136,7.732,7.732,-1.705,24.588,7.529,8.923,32.735,7.918,12.238,7.635,10.984,-10.289,31.977,10.229
Thu Dec 05 12:36:02 2024,255,-25.041,-25.041,7.628,7.628,-1.451,24.605,7.537,9.138,33.162,7.933,12.139,7.842,11.511,-10.289,32.248,10.569
Thu Dec 05 12:36:02 2024,260,-24.956,-24.956,7.534,7.534,-1.219,24.634,7.545,9.335,33.553,7.947,12.053,7.944,11.996,-10.287,32.509,10.887
Thu Dec 05 12:36:02 2024,265,-24.820,-24.820,7.674,7.674,-0.808,24.540,7.578,9.620,34.066,7.929,11.388,8.579,11.999,-10.660,32.977,10.853
Thu Dec 05 12:36:02 2024,270,-24.694,-24.694,7.761,7.761,-0.428,24.507,7.606,9.896,34.569,7.920,10.846,9.040,12.113,-10.953,33.414,10.909
Thu Dec 05 12:36:02 2024,275,-24.644,-24.644,7.834,7.834,-0.208,24.484,7.604,10.018,34.794,7.797,9.556,29.980,12.372,-11.262,33.879,10.766
Thu Dec 05 12:36:02 2024,280,-24.592,-24.592,7.898,7.898,0.044,24.477,7.607,10.142,35.020,7.709,8.565,29.415,12.551,-11.519,34.269,10.671
Thu Dec 05 12:36:02 2024,285,-24.596,-24.596,7.976,7.976,0.204,24.566,7.660,10.223,35.311,7.670,7.880,29.479,12.930,-11.593,34.626,10.825
Thu Dec 05 12:36:02 2024,290,-24.604,-24.604,8.043,8.043,0.366,24.654,7.710,10.290,35.565,7.640,7.325,29.756,13.252,-11.640,34.932,10.979
Thu Dec 05 12:36:02 2024,295,-24.656,-24.656,8.156,8.156,0.440,24.569,7.749,10.437,35.974,7.725,6.910,29.958,13.466,-11.672,35.108,11.216
Thu Dec 05 12:36:02 2024,300,-24.704,-24.704,8.248,8.248,0.466,24.460,7.773,10.562,36.302,7.817,6.663,30.067,13.584,-11.690,35.191,11.407
Thu Dec 05 12:36:02 2024,305,-24.750,-24.750,8.266,8.266,0.487,24.348,7.786,10.761,36.728,7.895,6.288,30.117,13.660,-11.749,35.286,11.602
Thu Dec 05 12:36:02 2024,310,-24.774,-24.774,8.182,8.182,0.496,24.280,7.780,10.965,37.085,7.921,5.918,30.066,13.653,-11.834,35.354,11.715
Thu Dec 05 12:36:02 2024,315,-24.798,-24.798,8.100,8.100,0.504,24.213,7.774,11.171,37.442,7.946,5.551,30.037,13.646,-11.917,35.422,11.830
Thu Dec 05 12:36:02 2024,320,-24.858,-24.858,8.125,8.125,0.592,24.135,7.778,11.351,37.908,8.110,5.123,30.056,13.747,-12.060,35.509,12.012
Thu Dec 05 12:36:02 2024,325,-24.909,-24.909,8.129,8.129,0.664,24.062,7.779,11.538,38.347,8.245,4.714,30.096,13.824,-12.188,35.593,12.182
Thu Dec 05 12:36:02 2024,330,-24.927,-24.927,8.069,8.069,0.746,24.087,7.854,11.709,38.812,8.305,4.579,30.694,14.179,-12.125,35.700,12.657
Thu Dec 05 12:36:02 2024,335,-24.947,-24.947,8.006,8.006,0.832,24.116,7.933,11.891,39.302,8.367,4.435,31.345,14.558,-12.058,35.817,13.167
Thu Dec 05 12:36:02 2024,340,-24.895,-24.895,7.903,7.903,0.971,24.214,8.115,12.190,39.871,8.639,4.204,32.074,15.128,-11.892,36.037,14.127
Thu Dec 05 12:36:02 2024,345,-24.825,-24.825,7.787,7.787,1.125,24.336,8.328,12.525,40.477,8.970,3.938,32.861,15.757,-11.699,36.315,15.252
Thu Dec 05 12:36:02 2024,350,-24.740,-24.740,7.554,7.554,1.258,24.501,8.555,12.766,40.924,9.299,3.373,33.858,16.366,-11.356,36.974,16.848
Thu Dec 05 12:36:02 2024,355,-24.651,-24.651,7.254,7.254,1.369,24.686,8.781,12.936,41.248,9.615,2.624,34.996,16.930,-10.940,37.959,18.746
Thu Dec 05 12:36:02 2024,360,-24.575,-24.575,6.996,6.996,1.487,24.858,9.010,13.115,41.575,9.918,1.885,36.340,17.602,-10.463,39.106,20.768
Thu Dec 05 12:36:02 2024,365,-24.544,-24.544,6.868,6.868,1.630,24.986,9.233,13.309,41.889,10.167,1.253,38.117,18.608,-9.784,40.422,22.951
Thu Dec 05 12:36:02 2024,370,-24.514,-24.514,6.748,6.748,1.750,25.103,9.426,13.475,42.163,10.386,0.886,39.649,19.447,-9.226,41.677,24.925
Thu Dec 05 12:36:02 2024,375,-24.552,-24.552,6.742,6.742,1.760,25.342,9.694,13.585,42.590,10.644,0.915,40.918,20.338,-8.983,43.014,26.676
Thu Dec 05 12:36:02 2024,380,-24.589,-24.589,6.721,6.721,1.781,25.615,10.008,13.721,43.085,10.948,-1.120,42.470,21.403,-8.672,44.677,28.914
Thu Dec 05 12:36:02 2024,385,-24.609,-24.609,6.714,6.714,1.790,25.826,10.243,13.718,43.324,11.205,-1.171,43.462,22.292,-8.579,45.706,30.310
Thu Dec 05 12:36:02 2024,390,-24.628,-24.628,6.708,6.708,1.798,26.041,10.480,13.699,43.546,11.470,1.257,44.439,23.209,-8.512,46.718,31.704
Thu Dec 05 12:36:02 2024,395,-24.634,-24.634,6.691,6.691,1.805,26.211,10.649,13.720,43.760,11.693,-0.011,45.124,23.866,-8.479,47.624,32.893
Thu Dec 05 12:36:02 2024,400,-24.635,-24.635,6.666,6.666,1.812,26.371,10.796,13.764,43.990,11.912,-1.443,45.715,24.438,-8.462,48.552,34.092
Thu Dec 05 12:36:02 2024,405,-24.635,-24.635,6.644,6.644,1.819,26.515,10.929,13.804,44.196,12.112,-1.592,46.246,24.953,-8.448,49.393,35.194
Thu Dec 05 12:36:02 2024,410,-24.567,-24.567,6.549,6.549,1.802,26.838,11.079,13.855,44.620,12.429,-1.860,47.285,26.144,-8.352,50.648,37.074
Thu Dec 05 12:36:02 2024,415,-24.525,-24.525,6.487,6.487,1.792,27.058,11.193,13.892,44.912,12.655,-2.072,48.003,26.959,-8.298,51.561,38.438
Thu Dec 05 12:36:02 2024,420,-24.520,-24.520,6.493,6.493,1.814,27.266,11.282,13.920,45.216,12.924,-2.255,49.130,28.294,-8.270,52.798,40.331
Thu Dec 05 12:36:02 2024,425,-24.518,-24.518,6.499,6.499,1.831,27.436,11.356,13.944,45.464,13.146,-2.410,50.056,29.412,-8.255,53.822,41.927
Thu Dec 05 12:36:02 2024,430,-24.475,-24.475,6.475,6.475,1.880,27.555,11.500,13.840,45.642,13.581,-2.482,51.245,30.581,-8.164,55.200,43.813
Thu Dec 05 12:36:02 2024,435,-24.427,-24.427,6.447,6.447,1.931,27.655,11.648,13.717,45.794,14.031,-2.555,52.393,31.667,-8.076,56.562,45.658
Thu Dec 05 12:36:02 2024,440,-24.386,-24.386,6.452,6.452,1.942,27.797,11.818,13.583,45.999,14.342,-2.576,53.404,32.539,-8.129,57.582,46.957
Thu Dec 05 12:36:02 2024,445,-24.339,-24.339,6.472,6.472,1.940,27.983,12.030,13.416,46.268,14.661,-2.650,54.569,33.504,-8.257,58.668,48.303
Thu Dec 05 12:36:02 2024,450,-24.296,-24.296,6.490,6.490,1.936,28.151,12.224,13.263,46.514,14.953,2.793,55.622,34.377,-8.384,59.652,49.534
Thu Dec 05 12:36:02 2024,455,-24.196,-24.196,6.423,6.423,1.911,28.120,12.259,13.262,46.668,15.276,2.927,56.368,35.414,-8.554,60.358,50.825
Thu Dec 05 12:36:02 2024,460,-24.117,-24.117,6.381,6.381,1.892,28.135,12.324,13.227,46.828,15.566,3.077,57.110,36.323,-8.708,61.059,51.994
Thu Dec 05 12:36:02 2024,465,-24.083,-24.083,6.376,6.376,1.828,28.210,12.487,13.123,47.045,15.899,3.200,57.713,37.102,-8.769,61.698,52.927
Thu Dec 05 12:36:02 2024,470,-24.050,-24.050,6.369,6.369,1.774,28.273,12.625,13.036,47.234,16.192,3.317,58.254,37.804,-8.832,62.267,53.768
Thu Dec 05 12:36:02 2024,475,-24.028,-24.028,6.364,6.364,1.738,28.314,12.716,12.977,47.360,16.389,3.397,58.613,38.272,-8.876,62.645,54.328
Thu Dec 05 12:36:02 2024,480,-24.014,-24.014,6.361,6.361,1.716,28.339,12.770,12.942,47.435,16.506,3.446,58.826,38.553,-8.904,62.870,54.663
Thu Dec 05 12:36:02 2024,485,-24.009,-24.009,6.360,6.360,1.711,28.344,12.782,12.933,47.451,16.533,3.458,58.874,38.618,-8.911,62.920,54.741
Thu Dec 05 12:36:02 2024,490,-23.859,-23.859,6.394,6.394,1.922,28.188,12.652,12.870,47.104,16.492,3.688,58.124,37.617,-8.407,62.132,53.810
Thu Dec 05 12:36:02 2024,495,-23.813,-23.813,6.400,6.400,1.959,28.167,12.657,12.830,47.070,16.563,3.829,58.091,37.563,-8.304,62.095,53.813
Thu Dec 05 12:36:02 2024,500,-23.767,-23.767,6.322,6.322,2.074,28.134,12.508,12.967,46.825,16.317,4.035,57.595,36.896,-7.784,61.040,52.613
Thu Dec 05 12:36:02 2024,505,-23.728,-23.728,6.276,6.276,2.153,28.110,12.418,13.042,46.668,16.180,4.224,57.285,36.475,-7.452,60.383,51.874
Thu Dec 05 12:36:02 2024,510,-23.730,-23.730,6.253,6.253,2.164,28.122,12.360,12.946,46.494,15.926,4.132,56.520,35.678,-7.188,59.506,50.788
Thu Dec 05 12:36:02 2024,515,-23.729,-23.729,6.230,6.230,2.179,28.129,12.305,12.871,46.336,15.704,4.073,55.852,34.974,-6.949,58.721,49.823
Thu Dec 05 12:36:02 2024,520,-23.727,-23.727,6.374,6.374,2.228,27.958,12.083,12.852,45.905,15.115,4.195,54.521,33.264,-6.650,57.034,47.394
Thu Dec 05 12:36:02 2024,525,-23.725,-23.725,6.502,6.502,2.268,27.810,11.898,12.843,45.550,14.634,4.332,53.428,31.864,-6.435,55.654,45.418
Thu Dec 05 12:36:02 2024,530,-23.714,-23.714,6.656,6.656,2.302,27.554,11.522,12.813,44.929,13.748,5.139,51.861,29.710,-6.176,53.209,41.898
Thu Dec 05 12:36:02 2024,535,-23.702,-23.702,6.773,6.773,2.321,27.336,11.193,12.785,44.403,12.990,5.997,50.615,27.929,-6.019,51.138,38.971
Thu Dec 05 12:36:02 2024,540,-23.690,-23.690,6.893,6.893,2.339,27.114,10.858,12.753,43.869,12.227,6.901,49.369,26.123,-5.901,49.048,36.135
Thu Dec 05 12:36:02 2024,545,-23.786,-23.786,7.225,7.225,2.037,26.584,10.373,12.509,42.968,11.232,8.858,48.444,25.573,-6.108,46.971,33.481
Thu Dec 05 12:36:02 2024,550,-23.840,-23.840,7.444,7.444,1.867,26.230,10.021,12.362,42.335,10.502,10.206,47.721,24.760,-6.231,45.322,31.410
Thu Dec 05 12:36:02 2024,555,-24.004,-24.004,7.779,7.779,1.519,25.694,9.629,11.913,41.364,9.758,11.962,45.858,23.297,-6.932,43.011,28.190
Thu Dec 05 12:36:02 2024,560,-24.119,-24.119,8.019,8.019,1.272,25.317,9.345,11.603,40.674,9.213,13.213,44.728,22.160,-7.431,41.433,26.003
Thu Dec 05 12:36:02 2024,565,-24.210,-24.210,8.208,8.208,1.076,25.026,9.124,11.359,40.134,8.786,14.183,43.938,21.226,-7.831,40.242,24.356
Thu Dec 05 12:36:02 2024,570,-24.379,-24.379,8.530,8.530,0.841,24.841,9.057,10.691,39.109,8.703,13.825,41.845,19.650,-7.279,38.541,22.031
Thu Dec 05 12:36:02 2024,575,-24.483,-24.483,8.733,8.733,0.671,24.661,8.947,10.329,38.492,8.504,14.044,40.797,18.644,-7.231,37.434,20.567
Thu Dec 05 12:36:02 2024,580,-24.399,-24.399,8.819,8.819,0.615,24.356,8.918,10.000,37.510,8.593,11.961,36.845,16.469,-6.040,35.505,18.856
Thu Dec 05 12:36:02 2024,585,-24.323,-24.323,8.890,8.890,0.569,24.090,8.895,9.721,36.665,8.672,10.119,33.417,14.543,-5.012,33.863,17.457
Thu Dec 05 12:36:02 2024,590,-24.469,-24.469,8.963,8.963,0.349,24.116,9.040,9.339,36.077,8.950,12.345,34.626,15.352,-4.248,33.144,17.480
Thu Dec 05 12:36:02 2024,595,-24.529,-24.529,9.019,9.019,0.221,24.070,9.112,9.069,35.558,9.115,13.093,34.658,15.274,-3.597,32.393,17.172
Thu Dec 05 12:36:02 2024,600,-24.646,-24.646,9.105,9.105,-0.173,24.119,8.875,8.632,34.613,8.804,13.838,35.122,15.223,-2.750,31.265,16.161
Thu Dec 05 12:36:02 2024,605,-24.733,-24.733,9.171,9.171,-0.432,24.160,8.742,8.299,33.915,8.640,14.455,35.469,15.149,-2.096,30.426,15.466
Thu Dec 05 12:36:02 2024,610,-24.819,-24.819,8.384,8.384,-0.805,24.386,9.131,7.493,33.257,9.368,16.375,37.423,16.346,-1.198,30.845,16.126
Thu Dec 05 12:36:02 2024,615,-24.887,-24.887,7.749,7.749,-1.099,24.581,9.451,6.862,32.759,9.959,17.877,38.977,17.328,-0.541,31.291,16.685
Thu Dec 05 12:36:02 2024,620,-24.950,-24.950,7.190,7.190,-1.360,24.763,9.735,6.308,32.325,10.479,19.184,40.341,18.196,0.297,31.735,17.179
Thu Dec 05 12:36:02 2024,625,-25.030,-25.030,8.891,8.891,-1.918,22.793,9.010,4.139,27.797,9.473,21.777,44.018,21.181,-0.827,27.235,16.383
Thu Dec 05 12:36:02 2024,630,-25.087,-25.087,9.154,9.154,-2.007,22.808,8.731,3.658,26.617,9.157,21.463,45.116,22.677,0.118,25.817,15.642
Thu Dec 05 12:36:02 2024,635,-24.974,-24.974,8.381,8.381,-1.290,24.379,8.379,5.332,28.799,8.768,15.625,44.171,24.695,4.389,26.925,13.316
Thu Dec 05 12:36:02 2024,640,-24.956,-24.956,7.963,7.963,-0.826,25.692,8.093,6.295,29.918,8.442,11.800,45.631,25.874,7.210,28.633,11.675
Thu Dec 05 12:36:02 2024,645,-24.627,-24.627,8.431,8.431,0.063,25.924,8.219,7.482,32.060,10.276,7.701,41.516,21.608,8.906,30.234,11.589
Thu Dec 05 12:36:02 2024,650,-24.424,-24.424,8.636,8.636,0.703,26.417,8.244,8.389,33.579,11.358,4.729,39.876,19.431,10.467,31.649,11.207
Thu Dec 05 12:36:02 2024,655,-24.466,-24.466,8.882,8.882,0.760,26.531,8.294,8.865,33.556,11.097,3.861,38.082,17.117,11.264,32.001,10.058
Thu Dec 05 12:36:02 2024,660,-24.508,-24.508,9.090,9.090,0.792,26.615,8.337,9.251,33.523,10.847,3.215,36.616,15.256,11.910,32.362,9.090
Thu Dec 05 12:36:02 2024,665,-24.536,-24.536,9.193,9.193,0.798,26.611,8.425,9.300,32.998,10.554,2.584,34.591,13.552,12.570,7.156,8.528
Thu Dec 05 12:36:02 2024,670,-24.531,-24.531,9.028,9.028,0.740,26.389,8.614,8.533,31.279,10.178,2.002,31.262,12.201,13.224,6.566,8.977
Thu Dec 05 12:36:02 2024,675,-24.539,-24.539,8.985,8.985,0.718,26.295,8.716,8.241,30.471,9.958,1.629,29.381,11.271,13.673,6.170,9.021
Thu Dec 05 12:36:02 2024,680,-24.527,-24.527,8.514,8.514,0.569,26.277,8.721,7.048,28.534,9.713,1.022,25.864,9.798,13.789,6.086,8.790
Thu Dec 05 12:36:02 2024,685,-24.523,-24.523,8.274,8.274,0.491,26.243,8.751,6.398,27.418,9.522,0.648,23.692,8.923,13.969,5.930,8.699
Thu Dec 05 12:36:02 2024,690,-24.537,-24.537,8.131,8.131,0.515,26.276,9.013,5.786,26.487,9.406,0.435,22.450,8.411,14.045,5.884,8.343
Thu Dec 05 12:36:02 2024,695,-24.543,-24.543,7.997,7.997,0.511,26.287,9.167,5.304,25.758,9.298,0.240,21.294,7.968,14.127,5.819,8.131
Thu Dec 05 12:36:02 2024,700,-24.527,-24.527,7.885,7.885,0.525,26.214,9.307,4.865,25.153,9.296,-0.117,20.280,7.628,14.036,5.947,7.711
Thu Dec 05 12:36:02 2024,705,-24.514,-24.514,7.784,7.784,0.537,26.151,9.433,4.474,24.635,9.290,-0.423,19.219,7.332,13.964,6.034,7.354
Thu Dec 05 12:36:02 2024,710,-24.530,-24.530,7.750,7.750,0.518,26.158,9.600,4.210,20.083,9.280,-0.713,18.536,7.110,13.887,6.113,7.020
Thu Dec 05 12:36:02 2024,715,-24.581,-24.581,7.761,7.761,0.461,26.232,9.888,3.927,16.037,9.260,-1.137,17.742,6.840,13.766,6.222,6.544
Thu Dec 05 12:36:02 2024,720,-24.606,-24.606,7.751,7.751,0.460,26.315,10.072,3.730,16.261,9.261,-1.424,17.028,6.609,13.679,6.290,6.173
Thu Dec 05 12:36:02 2024,725,-24.619,-24.619,7.738,7.738,0.512,26.461,10.211,3.608,16.392,9.285,-1.648,16.260,6.365,13.603,6.342,5.796
Thu Dec 05 12:36:02 2024,730,-24.634,-24.634,7.727,7.727,0.548,26.584,10.351,3.479,16.518,9.305,-1.873,15.551,6.145,13.528,6.387,5.459
Thu Dec 05 12:36:02 2024,735,-24.721,-24.721,7.773,7.773,0.422,26.628,10.465,3.187,16.792,9.418,-2.206,14.830,6.049,13.321,6.561,5.382
Thu Dec 05 12:36:02 2024,740,-24.770,-24.770,7.780,7.780,0.343,26.698,10.560,2.947,17.006,9.497,-2.486,14.202,5.948,13.156,6.693,5.264
Thu Dec 05 12:36:02 2024,745,-24.754,-24.754,7.684,7.684,0.250,26.800,10.572,2.665,17.270,9.558,-2.746,13.776,5.920,12.973,6.857,5.211
Thu Dec 05 12:36:02 2024,750,-24.742,-24.742,7.603,7.603,0.176,26.889,10.585,2.421,17.493,9.610,-2.970,13.399,5.894,12.815,6.997,5.165
Thu Dec 05 12:36:02 2024,755,-24.741,-24.741,7.585,7.585,0.108,26.886,10.631,2.283,17.612,9.668,-3.183,13.111,5.897,12.653,7.124,5.116
Thu Dec 05 12:36:02 2024,760,-24.742,-24.742,7.571,7.571,-0.149,26.878,10.681,2.151,17.722,9.727,-3.398,12.820,5.900,12.488,7.248,5.066
Thu Dec 05 12:36:02 2024,765,-24.725,-24.725,7.514,7.514,-0.175,26.891,10.681,2.143,17.727,9.783,-3.628,12.491,5.869,12.424,7.295,5.066
Thu Dec 05 12:36:02 2024,770,-24.703,-24.703,7.445,7.445,-0.189,26.910,10.667,2.170,17.702,9.839,-3.863,12.150,5.828,12.388,7.320,5.079
Thu Dec 05 12:36:02 2024,775,-24.675,-24.675,7.375,7.375,-0.202,26.927,10.646,2.187,17.669,9.881,-4.178,11.657,5.732,12.389,7.309,5.090
Thu Dec 05 12:36:02 2024,780,-24.655,-24.655,7.339,7.339,-0.207,26.934,10.628,2.186,17.643,9.885,-4.418,11.257,5.628,12.430,7.264,5.091
Thu Dec 05 12:36:02 2024,785,-24.632,-24.632,7.299,7.299,-0.213,26.941,10.609,2.186,17.611,9.891,-4.678,10.822,5.517,12.473,7.218,5.094
Thu Dec 05 12:36:02 2024,790,-24.624,-24.624,7.198,7.198,-0.208,27.128,10.678,2.234,17.558,9.843,-4.857,10.606,5.502,12.476,7.236,5.230
Thu Dec 05 12:36:02 2024,795,-24.616,-24.616,7.122,7.122,-0.206,27.264,10.725,2.269,17.517,9.809,-5.008,10.410,5.481,12.482,7.245,5.327
Thu Dec 05 12:36:02 2024,800,-24.624,-24.624,7.108,7.108,-0.182,27.224,10.748,2.245,17.439,9.725,-5.293,9.926,5.349,12.394,7.292,5.284
Thu Dec 05 12:36:02 2024,805,-24.630,-24.630,7.099,7.099,-0.164,27.186,10.767,2.224,17.362,9.656,-5.526,9.527,5.240,12.320,7.330,5.244
Thu Dec 05 12:36:02 2024,810,-24.663,-24.663,7.174,7.174,-0.142,27.222,10.789,2.248,17.286,9.546,-5.710,9.199,5.114,12.326,7.308,5.255
Thu Dec 05 12:36:02 2024,815,-24.698,-24.698,7.260,7.260,-0.127,27.270,10.810,2.280,17.219,9.437,-5.865,8.916,4.996,12.348,7.276,5.274
Thu Dec 05 12:36:02 2024,820,-24.720,-24.720,7.294,7.294,-0.122,27.303,10.831,2.288,17.163,9.354,-6.020,8.660,4.907,12.380,7.236,5.302
Thu Dec 05 12:36:02 2024,825,-24.716,-24.716,7.199,7.199,-0.123,27.306,10.856,2.236,17.114,9.314,-6.222,8.394,4.864,12.451,7.157,5.363
Thu Dec 05 12:36:02 2024,830,-24.717,-24.717,7.145,7.145,0.121,27.312,10.875,2.205,17.073,9.277,-6.366,8.196,4.827,12.499,7.103,5.404
Thu Dec 05 12:36:02 2024,835,-24.746,-24.746,7.164,7.164,-0.130,27.190,10.797,2.060,17.028,9.240,-6.560,7.908,4.820,12.470,7.186,5.570
Thu Dec 05 12:36:02 2024,840,-24.767,-24.767,7.167,7.167,-0.148,27.111,10.749,1.957,16.974,9.206,-6.717,7.678,4.808,12.460,7.229,5.689
Thu Dec 05 12:36:02 2024,845,-24.766,-24.766,7.114,7.114,-0.137,27.044,10.809,1.820,16.720,9.144,-6.784,7.506,4.853,12.420,7.316,5.881
Thu Dec 05 12:36:02 2024,850,-24.749,-24.749,7.016,7.016,0.113,26.987,10.955,1.656,16.289,9.060,-6.774,7.386,4.943,12.356,7.434,6.127
Thu Dec 05 12:36:02 2024,855,-24.764,-24.764,7.004,7.004,0.126,26.980,11.034,1.526,15.934,8.982,-6.777,7.336,5.031,12.366,7.478,6.347
Thu Dec 05 12:36:02 2024,860,-24.814,-24.814,7.064,7.064,0.163,27.039,11.097,1.395,15.541,8.886,-6.753,7.383,5.161,12.452,7.458,6.610
Thu Dec 05 12:36:02 2024,865,-24.845,-24.845,7.092,7.092,0.201,27.068,11.154,1.282,15.209,8.811,-6.742,7.393,5.257,12.503,7.444,6.818
Thu Dec 05 12:36:02 2024,870,-24.880,-24.880,6.944,6.944,0.255,26.927,11.136,1.359,14.923,8.951,-6.717,7.471,5.542,12.523,7.471,7.348
Thu Dec 05 12:36:02 2024,875,-24.912,-24.912,6.860,6.860,0.304,26.847,11.141,1.370,14.645,9.015,-6.698,7.522,5.749,12.554,7.443,7.743
Thu Dec 05 12:36:02 2024,880,-25.015,-25.015,6.864,6.864,0.291,26.914,11.194,1.505,14.525,9.093,-6.519,8.123,6.164,12.674,7.278,8.428
Thu Dec 05 12:36:02 2024,885,-25.095,-25.095,6.849,6.849,0.292,26.945,11.232,1.602,14.381,9.161,-6.386,8.557,6.506,12.771,7.098,9.006
Thu Dec 05 12:36:02 2024,890,-25.193,-25.193,6.855,6.855,0.174,26.928,11.033,1.871,14.579,9.166,-6.343,9.158,6.754,12.862,6.824,9.780
Thu Dec 05 12:36:02 2024,895,-25.268,-25.268,6.859,6.859,0.119,26.919,10.886,2.076,14.704,9.171,-6.304,9.603,6.941,12.940,33.445,10.385
Thu Dec 05 12:36:02 2024,900,-25.324,-25.324,6.832,6.832,-0.127,26.758,10.657,2.281,14.546,9.130,-6.088,10.161,7.276,13.070,33.878,11.406
Thu Dec 05 12:36:02 2024,905,-25.368,-25.368,6.800,6.800,-0.197,26.584,10.440,2.456,14.338,9.082,-5.856,10.666,7.601,13.198,34.342,12.411
Thu Dec 05 12:36:02 2024,910,-25.430,-25.430,6.795,6.795,-0.286,26.411,10.217,2.580,14.198,9.002,-5.710,11.014,7.813,13.308,34.735,13.148
Thu Dec 05 12:36:02 2024,915,-25.540,-25.540,6.825,6.825,-0.423,26.178,9.904,2.673,14.113,8.848,-5.637,11.253,7.934,13.428,35.123,13.733
Thu Dec 05 12:36:02 2024,920,-25.632,-25.632,6.845,6.845,-0.547,25.978,9.634,2.768,14.017,8.719,-5.547,11.506,8.072,13.546,35.519,14.336
Thu Dec 05 12:36:02 2024,925,-25.762,-25.762,6.836,6.836,-0.569,25.831,9.546,2.726,13.972,8.732,-5.447,11.776,8.330,13.793,36.049,15.196
Thu Dec 05 12:36:02 2024,930,-25.876,-25.876,6.834,6.834,-0.615,25.683,9.422,2.719,13.918,8.711,-5.354,12.025,8.547,13.998,36.532,15.956
Thu Dec 05 12:36:02 2024,935,-25.877,-25.877,6.784,6.784,-0.388,25.729,9.483,2.694,14.048,8.720,-5.173,12.715,8.691,14.496,37.663,17.271
Thu Dec 05 12:36:02 2024,940,-25.893,-25.893,6.743,6.743,-0.212,25.757,9.518,2.674,14.148,8.725,-5.018,13.280,8.827,14.926,38.674,18.456
Thu Dec 05 12:36:02 2024,945,-25.719,-25.719,6.474,6.474,0.165,25.815,9.893,2.704,14.188,9.061,-4.706,14.276,9.337,16.056,40.793,21.174
