Timestamp,Millis,thumb_tm_aa,thumb_tm_flex,thumb_mcp_aa,thumb_mcp_flex,index_mcp_aa,index_mcp_flex,index_pip,middle_mcp_aa,middle_mcp_flex,middle_pip,ring_mcp_aa,ring_mcp_flex,ring_pip,little_mcp_aa,little_mcp_flex,little_pip
Thu Dec 05 12:38:21 2024,705,-22.181,-22.181,1.206,1.206,2.959,25.013,9.862,5.492,14.454,12.568,-3.865,15.327,9.776,7.869,11.193,8.410
Thu Dec 05 12:38:21 2024,710,-22.170,-22.170,1.205,1.205,2.966,25.055,9.880,5.498,14.447,12.566,-3.876,15.322,9.770,7.869,11.227,8.438
Thu Dec 05 12:38:21 2024,715,-22.167,-22.167,1.212,1.212,2.947,25.070,9.916,5.488,14.454,12.560,-3.929,15.255,9.741,7.838,11.305,8.492
Thu Dec 05 12:38:21 2024,720,-22.148,-22.148,1.184,1.184,2.955,25.057,9.887,5.482,14.464,12.527,-3.948,15.218,9.702,7.798,11.345,8.453
Thu Dec 05 12:38:21 2024,725,-22.115,-22.115,1.124,1.124,2.992,25.015,9.790,5.482,14.473,12.471,-3.919,15.232,9.665,7.762,11.324,8.316
Thu Dec 05 12:38:21 2024,730,-22.100,-22.100,1.080,1.080,3.011,25.005,9.729,5.474,14.486,12.436,-3.899,15.216,9.624,7.745,11.321,8.260
Thu Dec 05 12:38:21 2024,735,-22.124,-22.124,1.072,1.072,2.988,25.062,9.751,5.450,14.507,12.448,-3.901,15.138,9.579,7.768,11.357,8.383
Thu Dec 05 12:38:21 2024,740,-22.157,-22.157,1.101,1.101,2.940,25.057,9.784,5.409,14.547,12.445,-3.894,15.140,9.583,7.786,11.378,8.450
Thu Dec 05 12:38:21 2024,745,-22.218,-22.218,1.197,1.197,2.836,24.955,9.846,5.326,14.631,12.420,-3.868,15.263,9.664,7.804,11.386,8.460
Thu Dec 05 12:38:21 2024,750,-22.255,-22.255,1.251,1.251,2.773,24.916,9.873,5.277,14.680,12.400,-3.847,15.343,9.716,7.819,11.388,8.464
Thu Dec 05 12:38:21 2024,755,-22.239,-22.239,1.215,1.215,2.792,25.041,9.809,5.301,14.652,12.381,-3.826,15.359,9.716,7.838,11.376,8.448
Thu Dec 05 12:38:21 2024,760,-22.236,-22.236,1.191,1.191,2.796,25.131,9.755,5.313,14.636,12.362,-3.813,15.355,9.700,7.842,11.373,8.425
Thu Dec 05 12:38:21 2024,765,-22.306,-22.306,1.235,1.235,2.713,25.029,9.755,5.257,14.690,12.344,-3.840,15.238,9.593,7.763,11.426,8.356
Thu Dec 05 12:38:21 2024,770,-22.363,-22.363,1.275,1.275,2.642,24.944,9.766,5.212,14.732,12.334,-3.864,15.128,9.497,7.698,11.465,8.298
Thu Dec 05 12:38:21 2024,775,-22.300,-22.300,1.273,1.273,2.703,25.033,9.875,5.279,14.671,12.395,-3.855,15.123,9.522,7.769,11.379,8.340
Thu Dec 05 12:38:21 2024,780,-22.238,-22.238,1.270,1.270,2.762,25.119,9.981,5.344,14.611,12.455,-3.846,15.118,9.547,7.839,11.296,8.381
Thu Dec 05 12:38:21 2024,785,-22.228,-22.228,1.264,1.264,2.742,25.078,10.042,5.328,14.619,12.516,-3.819,15.200,9.622,7.794,11.321,8.376
Thu Dec 05 12:38:21 2024,790,-22.223,-22.223,1.258,1.258,2.719,25.034,10.090,5.309,14.630,12.567,-3.796,15.275,9.690,7.749,11.350,8.369
Thu Dec 05 12:38:21 2024,795,-22.229,-22.229,1.271,1.271,2.718,24.968,9.974,5.350,14.584,12.510,-3.739,15.304,9.623,7.812,11.332,8.376
Thu Dec 05 12:38:21 2024,800,-22.236,-22.236,1.286,1.286,2.720,24.905,9.842,5.397,14.532,12.440,-3.682,15.320,9.540,7.887,11.305,8.385
Thu Dec 05 12:38:21 2024,805,-22.208,-22.208,1.240,1.240,2.702,25.010,9.962,5.388,14.534,12.524,-3.687,15.373,9.630,7.943,11.318,8.500
Thu Dec 05 12:38:21 2024,810,-22.179,-22.179,1.194,1.194,2.684,25.123,10.102,5.371,14.543,12.616,-3.701,15.421,9.730,7.985,11.333,8.611
Thu Dec 05 12:38:21 2024,815,-22.179,-22.179,1.159,1.159,2.690,25.160,10.125,5.380,14.531,12.649,-3.656,15.520,9.789,8.016,11.320,8.589
Thu Dec 05 12:38:21 2024,820,-22.195,-22.195,1.141,1.141,2.706,25.145,10.080,5.400,14.510,12.641,-3.594,15.619,9.807,8.032,11.297,8.503
Thu Dec 05 12:38:21 2024,825,-22.196,-22.196,1.115,1.115,2.761,25.214,10.094,5.438,14.472,12.635,-3.539,15.680,9.802,8.088,11.255,8.500
Thu Dec 05 12:38:21 2024,830,-22.185,-22.185,1.080,1.080,2.857,25.367,10.162,5.499,14.413,12.632,-3.482,15.716,9.774,8.186,11.190,8.569
Thu Dec 05 12:38:21 2024,835,-22.176,-22.176,1.065,1.065,2.834,25.322,10.136,5.493,14.418,12.698,-3.482,15.728,9.846,8.234,11.176,8.657
Thu Dec 05 12:38:21 2024,840,-22.169,-22.169,1.063,1.063,2.727,25.138,10.043,5.438,14.467,12.811,-3.521,15.721,9.988,8.247,11.198,8.757
Thu Dec 05 12:38:21 2024,845,-22.166,-22.166,1.044,1.044,2.723,25.112,10.020,5.428,14.477,12.854,-3.535,15.702,10.029,8.229,11.228,8.786
Thu Dec 05 12:38:21 2024,850,-22.165,-22.165,1.007,1.007,2.834,25.267,10.075,5.471,14.442,12.814,-3.519,15.667,9.951,8.178,11.271,8.732
Thu Dec 05 12:38:21 2024,855,-22.177,-22.177,0.997,0.997,2.920,25.393,10.129,5.526,14.391,12.777,-3.484,15.662,9.884,8.168,11.284,8.705
Thu Dec 05 12:38:21 2024,860,-22.207,-22.207,1.054,1.054,2.898,25.385,10.148,5.579,14.334,12.769,-3.426,15.728,9.877,8.258,11.225,8.752
Thu Dec 05 12:38:21 2024,865,-22.222,-22.222,1.075,1.075,2.870,25.378,10.138,5.617,14.287,12.760,-3.375,15.812,9.880,8.324,11.184,8.775
Thu Dec 05 12:38:21 2024,870,-22.183,-22.183,0.977,0.977,2.820,25.370,10.033,5.601,14.271,12.749,-3.347,15.946,9.914,8.314,11.210,8.716
Thu Dec 05 12:38:21 2024,875,-22.143,-22.143,0.885,0.885,2.772,25.365,9.914,5.579,14.259,12.721,-3.322,16.063,9.922,8.305,11.244,8.657
Thu Dec 05 12:38:21 2024,880,-22.137,-22.137,0.906,0.906,2.784,25.371,9.842,5.549,14.295,12.637,-3.335,16.018,9.804,8.313,11.281,8.654
Thu Dec 05 12:38:21 2024,885,-22.125,-22.125,0.926,0.926,2.798,25.374,9.779,5.528,14.324,12.566,-3.348,15.975,9.702,8.321,11.309,8.658
Thu Dec 05 12:38:21 2024,890,-22.075,-22.075,0.940,0.940,2.829,25.352,9.802,5.577,14.294,12.598,-3.348,15.971,9.750,8.329,11.286,8.708
Thu Dec 05 12:38:21 2024,895,-22.025,-22.025,0.955,0.955,2.861,25.328,9.826,5.627,14.261,12.632,-3.348,15.966,9.798,8.337,11.261,8.757
Thu Dec 05 12:38:21 2024,900,-21.987,-21.987,0.962,0.962,2.882,25.316,9.740,5.573,14.322,12.553,-3.330,16.008,9.809,8.332,11.287,8.809
Thu Dec 05 12:38:21 2024,905,-21.959,-21.959,0.968,0.968,2.898,25.307,9.667,5.524,14.374,12.485,-3.314,16.044,9.815,8.327,11.309,8.848
Thu Dec 05 12:38:21 2024,910,-21.954,-21.954,0.906,0.906,2.890,25.213,9.670,5.508,14.406,12.485,-3.324,16.004,9.787,8.296,11.291,8.728
Thu Dec 05 12:38:21 2024,915,-21.954,-21.954,0.847,0.847,2.879,25.128,9.686,5.501,14.426,12.497,-3.336,15.960,9.760,8.269,11.266,8.611
Thu Dec 05 12:38:21 2024,920,-21.980,-21.980,0.856,0.856,2.884,25.166,9.719,5.539,14.370,12.545,-3.316,15.996,9.786,8.315,11.246,8.672
Thu Dec 05 12:38:21 2024,925,-22.021,-22.021,0.892,0.892,2.894,25.256,9.765,5.601,14.274,12.614,-3.282,16.068,9.835,8.397,11.221,8.813
Thu Dec 05 12:38:21 2024,930,-22.010,-22.010,0.880,0.880,2.889,25.289,9.785,5.620,14.246,12.613,-3.272,16.070,9.814,8.450,11.172,8.798
Thu Dec 05 12:38:21 2024,935,-21.972,-21.972,0.843,0.843,2.874,25.303,9.797,5.622,14.244,12.579,-3.270,16.041,9.755,8.502,11.101,8.707
Thu Dec 05 12:38:21 2024,940,-21.988,-21.988,0.868,0.868,2.874,25.333,9.878,5.632,14.236,12.630,-3.281,16.043,9.788,8.543,11.062,8.724
Thu Dec 05 12:38:21 2024,945,-22.026,-22.026,0.912,0.912,2.875,25.360,9.962,5.635,14.236,12.697,-3.292,16.063,9.856,8.551,11.063,8.776
Thu Dec 05 12:38:21 2024,950,-22.050,-22.050,0.930,0.930,2.862,25.367,9.995,5.621,14.254,12.719,-3.293,16.087,9.894,8.524,11.090,8.784
Thu Dec 05 12:38:21 2024,955,-22.057,-22.057,0.912,0.912,2.831,25.348,9.963,5.582,14.297,12.681,-3.282,16.116,9.894,8.449,11.151,8.733
Thu Dec 05 12:38:21 2024,960,-22.085,-22.085,0.924,0.924,2.806,25.311,9.933,5.567,14.303,12.686,-3.270,16.125,9.893,8.426,11.175,8.721
Thu Dec 05 12:38:21 2024,965,-22.133,-22.133,0.978,0.978,2.805,25.278,9.939,5.594,14.254,12.759,-3.263,16.107,9.904,8.491,11.134,8.778
Thu Dec 05 12:38:21 2024,970,-22.157,-22.157,1.018,1.018,2.813,25.256,9.939,5.612,14.227,12.782,-3.260,16.095,9.901,8.533,11.110,8.834
Thu Dec 05 12:38:21 2024,975,-22.108,-22.108,1.000,1.000,2.837,25.277,9.924,5.594,14.275,12.662,-3.264,16.108,9.864,8.494,11.148,8.854
Thu Dec 05 12:38:21 2024,980,-22.078,-22.078,0.979,0.979,2.850,25.284,9.906,5.591,14.293,12.609,-3.261,16.129,9.852,8.469,11.171,8.850
Thu Dec 05 12:38:21 2024,985,-22.085,-22.085,0.935,0.935,2.841,25.257,9.867,5.626,14.242,12.702,-3.232,16.181,9.899,8.465,11.168,8.780
Thu Dec 05 12:38:21 2024,990,-22.091,-22.091,0.888,0.888,2.837,25.239,9.827,5.648,14.208,12.768,-3.210,16.217,9.928,8.451,11.179,8.722
Thu Dec 05 12:38:21 2024,995,-22.090,-22.090,0.839,0.839,2.853,25.255,9.793,5.617,14.243,12.716,-3.209,16.191,9.888,8.402,11.230,8.716
Thu Dec 05 12:38:22 2024,0,-22.090,-22.090,-0.789,0.789,2.870,25.272,9.758,5.585,14.280,12.663,-3.209,16.164,9.846,8.352,11.284,8.711
Thu Dec 05 12:38:22 2024,5,-22.090,-22.090,0.819,0.819,2.837,25.303,9.762,5.561,14.292,12.668,-3.220,16.165,9.858,8.390,11.269,8.722
Thu Dec 05 12:38:22 2024,10,-22.089,-22.089,0.847,0.847,2.809,25.330,9.764,5.541,14.301,12.672,-3.229,16.166,9.869,8.422,11.255,8.731
Thu Dec 05 12:38:22 2024,15,-22.101,-22.101,0.853,0.853,2.832,25.336,9.892,5.548,14.300,12.738,-3.210,16.189,9.902,8.454,11.225,8.802
Thu Dec 05 12:38:22 2024,20,-22.115,-22.115,0.854,0.854,2.866,25.336,10.043,5.562,14.297,12.817,-3.185,16.217,9.940,8.484,11.192,8.885
Thu Dec 05 12:38:22 2024,25,-22.097,-22.097,0.845,0.845,2.867,25.433,10.108,5.589,14.252,12.862,-3.158,16.292,10.028,8.549,11.146,8.928
Thu Dec 05 12:38:22 2024,30,-22.079,-22.079,0.838,0.838,2.863,25.523,10.144,5.613,14.209,12.894,-3.137,16.356,10.103,8.604,11.108,8.955
Thu Dec 05 12:38:22 2024,35,-22.064,-22.064,0.818,0.818,2.864,25.492,10.130,5.590,14.252,12.888,-3.172,16.242,10.060,8.576,11.120,8.929
Thu Dec 05 12:38:22 2024,40,-22.054,-22.054,0.798,0.798,2.868,25.408,10.093,5.549,14.325,12.866,-3.227,16.057,9.968,8.512,11.155,8.882
Thu Dec 05 12:38:22 2024,45,-22.048,-22.048,0.868,0.868,2.874,25.335,10.033,5.532,14.354,12.825,-3.215,16.056,9.959,8.496,11.147,8.862
Thu Dec 05 12:38:22 2024,50,-22.045,-22.045,0.985,0.985,2.882,25.271,9.963,5.529,14.359,12.775,-3.170,16.155,9.995,8.507,11.116,8.857
Thu Dec 05 12:38:22 2024,55,-22.047,-22.047,0.992,0.992,2.888,25.258,9.950,5.517,14.382,12.752,-3.157,16.175,10.011,8.535,11.102,8.912
Thu Dec 05 12:38:22 2024,60,-22.052,-22.052,0.929,0.929,2.893,25.276,9.973,5.497,14.419,12.741,-3.164,16.145,10.017,8.580,11.098,9.012
Thu Dec 05 12:38:22 2024,65,-22.045,-22.045,0.912,0.912,2.882,25.265,9.958,5.470,14.449,12.700,-3.170,16.145,9.998,8.573,11.116,8.999
Thu Dec 05 12:38:22 2024,70,-22.029,-22.029,0.927,0.927,2.860,25.235,9.919,5.438,14.477,12.639,-3.176,16.162,9.962,8.532,11.151,8.910
Thu Dec 05 12:38:22 2024,75,-22.014,-22.014,0.942,0.942,2.837,25.203,9.906,5.420,14.484,12.644,-3.180,16.178,9.956,8.500,11.183,8.864
Thu Dec 05 12:38:22 2024,80,-22.005,-22.005,0.955,0.955,2.815,25.174,9.956,5.437,14.444,12.794,-3.182,16.186,10.018,8.493,11.200,8.925
Thu Dec 05 12:38:22 2024,85,-21.995,-21.995,0.962,0.962,2.803,25.130,9.966,5.442,14.434,12.858,-3.186,16.175,10.037,8.474,11.212,8.944
Thu Dec 05 12:38:22 2024,90,-21.979,-21.979,0.955,0.955,2.819,25.055,9.878,5.416,14.500,12.692,-3.196,16.114,9.940,8.426,11.204,8.853
Thu Dec 05 12:38:22 2024,95,-21.980,-21.980,0.949,0.949,2.846,25.045,9.824,5.412,14.523,12.581,-3.194,16.087,9.880,8.420,11.185,8.799
Thu Dec 05 12:38:22 2024,100,-22.017,-22.017,0.948,0.948,2.892,25.174,9.853,5.458,14.464,12.618,-3.168,16.140,9.909,8.504,11.153,8.836
Thu Dec 05 12:38:22 2024,105,-22.047,-22.047,0.949,0.949,2.925,25.257,9.865,5.486,14.427,12.643,-3.162,16.166,9.927,8.558,11.131,8.852
Thu Dec 05 12:38:22 2024,110,-22.032,-22.032,0.967,0.967,2.888,25.095,9.786,5.421,14.509,12.606,-3.252,16.050,9.889,8.453,11.181,8.756
Thu Dec 05 12:38:22 2024,115,-22.022,-22.022,0.987,0.987,2.853,24.953,9.711,5.365,14.578,12.567,-3.320,15.961,9.856,8.365,11.219,8.675
Thu Dec 05 12:38:22 2024,120,-22.044,-22.044,1.041,1.041,2.822,24.925,9.637,5.383,14.559,12.476,-3.206,16.109,9.856,8.400,11.207,8.712
Thu Dec 05 12:38:22 2024,125,-22.068,-22.068,1.099,1.099,2.792,24.900,9.562,5.404,14.538,12.382,-3.085,16.266,9.854,8.439,11.190,8.752
Thu Dec 05 12:38:22 2024,130,-22.068,-22.068,1.102,1.102,2.841,25.025,9.671,5.438,14.500,12.451,-3.098,16.253,9.842,8.531,11.113,8.734
Thu Dec 05 12:38:22 2024,135,-22.066,-22.066,1.098,1.098,2.899,25.164,9.797,5.472,14.461,12.537,-3.126,16.219,9.829,8.626,11.031,8.712
Thu Dec 05 12:38:22 2024,140,-22.075,-22.075,1.115,1.115,2.924,25.166,9.762,5.472,14.456,12.509,-3.146,16.189,9.800,8.596,11.057,8.687
Thu Dec 05 12:38:22 2024,145,-22.082,-22.082,1.130,1.130,2.942,25.159,9.725,5.469,14.454,12.479,-3.161,16.166,9.777,8.565,11.084,8.668
Thu Dec 05 12:38:22 2024,150,-22.082,-22.082,1.114,1.114,2.853,25.147,9.708,5.427,14.488,12.491,-3.149,16.223,9.832,8.585,11.075,8.677
Thu Dec 05 12:38:22 2024,155,-22.079,-22.079,1.090,1.090,2.753,25.139,9.706,5.384,14.526,12.517,-3.131,16.290,9.900,8.619,11.055,8.694
Thu Dec 05 12:38:22 2024,160,-22.079,-22.079,1.095,1.095,2.739,25.156,9.741,5.391,14.511,12.544,-3.125,16.308,9.931,8.650,11.033,8.716
Thu Dec 05 12:38:22 2024,165,-22.082,-22.082,1.114,1.114,2.770,25.184,9.796,5.424,14.470,12.570,-3.126,16.299,9.942,8.678,11.010,8.740
Thu Dec 05 12:38:22 2024,170,-22.071,-22.071,1.110,1.110,2.808,25.212,9.804,5.462,14.430,12.584,-3.136,16.264,9.913,8.704,10.991,8.769
Thu Dec 05 12:38:22 2024,175,-22.048,-22.048,1.085,1.085,2.848,25.237,9.769,5.498,14.397,12.584,-3.155,16.208,9.851,8.725,10.978,8.798
Thu Dec 05 12:38:22 2024,180,-22.031,-22.031,1.083,1.083,2.902,25.250,9.725,5.525,14.378,12.547,-3.143,16.200,9.810,8.763,10.950,8.814
Thu Dec 05 12:38:22 2024,185,-22.029,-22.029,1.111,1.111,2.943,25.240,9.696,5.525,14.388,12.486,-3.101,16.259,9.819,8.801,10.920,8.805
Thu Dec 05 12:38:22 2024,190,-22.028,-22.028,1.114,1.114,2.999,25.280,9.696,5.539,14.381,12.468,-3.073,16.285,9.837,8.820,10.901,8.808
Thu Dec 05 12:38:22 2024,195,-22.032,-22.032,1.064,1.064,3.062,25.401,9.754,5.577,14.343,12.546,-3.086,16.231,9.867,8.790,10.913,8.838
Thu Dec 05 12:38:22 2024,200,-22.020,-22.020,1.012,1.012,3.105,25.483,9.798,5.611,14.306,12.618,-3.083,16.218,9.910,8.785,10.911,8.875
Thu Dec 05 12:38:22 2024,205,-21.959,-21.959,0.959,0.959,3.070,25.415,9.784,5.628,14.277,12.653,-3.028,16.346,9.985,8.872,10.864,8.932
Thu Dec 05 12:38:22 2024,210,-21.916,-21.916,0.930,0.930,3.040,25.358,9.762,5.632,14.264,12.672,-2.996,16.426,10.026,8.922,10.842,8.974
Thu Dec 05 12:38:22 2024,215,-21.938,-21.938,1.004,1.004,3.024,25.313,9.674,5.574,14.326,12.612,-3.064,16.321,9.924,8.830,10.936,8.968
Thu Dec 05 12:38:22 2024,220,-21.961,-21.961,1.074,1.074,3.004,25.278,9.598,5.519,14.382,12.549,-3.133,16.219,9.820,8.741,11.026,8.947
Thu Dec 05 12:38:22 2024,225,-21.978,-21.978,1.066,1.066,2.988,25.327,9.642,5.527,14.365,12.509,-3.166,16.200,9.765,8.733,11.016,8.839
Thu Dec 05 12:38:22 2024,230,-21.998,-21.998,1.060,1.060,2.976,25.390,9.689,5.538,14.345,12.470,-3.198,16.181,9.712,8.726,11.005,8.730
Thu Dec 05 12:38:22 2024,235,-22.038,-22.038,1.071,1.071,3.032,25.568,9.759,5.581,14.308,12.492,-3.187,16.181,9.734,8.731,10.990,8.678
Thu Dec 05 12:38:22 2024,240,-22.082,-22.082,1.085,1.085,3.099,25.766,9.834,5.629,14.268,12.521,-3.172,16.182,9.765,8.737,10.975,8.630
Thu Dec 05 12:38:22 2024,245,-22.095,-22.095,1.097,1.097,3.043,25.649,9.823,5.554,14.358,12.505,-3.230,16.103,9.762,8.680,11.029,8.654
Thu Dec 05 12:38:22 2024,250,-22.100,-22.100,1.106,1.106,2.977,25.500,9.799,5.473,14.451,12.485,-3.288,16.026,9.754,8.625,11.085,8.685
Thu Dec 05 12:38:22 2024,255,-22.115,-22.115,1.163,1.163,3.009,25.553,9.844,5.500,14.420,12.490,-3.254,16.004,9.716,8.661,11.043,8.674
Thu Dec 05 12:38:22 2024,260,-22.133,-22.133,1.233,1.233,3.075,25.679,9.911,5.565,14.343,12.505,-3.188,16.002,9.670,8.729,10.969,8.648
Thu Dec 05 12:38:22 2024,265,-22.163,-22.163,1.234,1.234,3.076,25.740,10.049,5.583,14.333,12.602,-3.135,16.028,9.765,8.800,10.891,8.729
Thu Dec 05 12:38:22 2024,270,-22.191,-22.191,1.194,1.194,3.039,25.745,10.184,5.569,14.362,12.713,-3.108,16.064,9.910,8.849,10.837,8.844
Thu Dec 05 12:38:22 2024,275,-22.253,-22.253,1.206,1.206,2.975,25.624,10.226,5.550,14.383,12.761,-3.124,16.025,9.949,8.804,10.865,8.867
Thu Dec 05 12:38:22 2024,280,-22.330,-22.330,1.253,1.253,2.900,25.433,10.199,5.532,14.395,12.757,-3.169,15.939,9.908,8.699,10.945,8.822
Thu Dec 05 12:38:22 2024,285,-22.354,-22.354,1.257,1.257,2.908,25.362,10.204,5.538,14.386,12.766,-3.194,15.894,9.882,8.680,10.960,8.807
Thu Dec 05 12:38:22 2024,290,-22.330,-22.330,1.223,1.223,2.985,25.401,10.235,5.565,14.362,12.784,-3.199,15.891,9.871,8.736,10.919,8.818
Thu Dec 05 12:38:22 2024,295,-22.317,-22.317,1.215,1.215,3.023,25.445,10.287,5.592,14.334,12.801,-3.190,15.919,9.883,8.799,10.870,8.824
Thu Dec 05 12:38:22 2024,300,-22.323,-22.323,1.259,1.259,2.979,25.500,10.388,5.623,14.298,12.816,-3.153,16.016,9.942,8.879,10.799,8.820
Thu Dec 05 12:38:22 2024,305,-22.330,-22.330,1.285,1.285,2.950,25.475,10.423,5.609,14.312,12.831,-3.170,15.994,9.946,8.908,10.776,8.841
Thu Dec 05 12:38:22 2024,310,-22.336,-22.336,1.289,1.289,2.938,25.355,10.377,5.542,14.386,12.845,-3.253,15.831,9.885,8.871,10.810,8.892
Thu Dec 05 12:38:22 2024,315,-22.332,-22.332,1.269,1.269,2.943,25.277,10.392,5.490,14.448,12.872,-3.301,15.735,9.870,8.857,10.816,8.932
Thu Dec 05 12:38:22 2024,320,-22.298,-22.298,1.178,1.178,3.004,25.398,10.608,5.523,14.424,12.921,-3.192,15.942,10.024,8.930,10.722,8.907
Thu Dec 05 12:38:22 2024,325,-22.266,-22.266,1.098,1.098,3.043,25.473,10.762,5.542,14.411,12.965,-3.115,16.093,10.145,8.977,10.656,8.893
Thu Dec 05 12:38:22 2024,330,-22.241,-22.241,1.061,1.061,2.977,25.319,10.620,5.488,14.454,12.989,-3.182,15.988,10.111,8.896,10.733,8.936
Thu Dec 05 12:38:22 2024,335,-22.219,-22.219,1.028,1.028,2.914,25.171,10.480,5.436,14.495,13.010,-3.249,15.883,10.074,8.817,10.804,8.968
Thu Dec 05 12:38:22 2024,340,-22.240,-22.240,1.068,1.068,2.927,25.190,10.477,5.446,14.490,13.004,-3.266,15.853,10.044,8.828,10.775,8.892
Thu Dec 05 12:38:22 2024,345,-22.263,-22.263,1.110,1.110,2.946,25.220,10.482,5.460,14.479,12.992,-3.278,15.830,10.016,8.848,10.738,8.810
Thu Dec 05 12:38:22 2024,350,-22.209,-22.209,1.093,1.093,2.956,25.146,10.381,5.478,14.479,12.915,-3.246,15.768,9.981,8.856,10.727,8.835
Thu Dec 05 12:38:22 2024,355,-22.161,-22.161,1.073,1.073,2.963,25.078,10.292,5.493,14.478,12.848,-3.218,15.713,9.952,8.861,10.720,8.865
Thu Dec 05 12:38:22 2024,360,-22.194,-22.194,1.090,1.090,3.015,25.102,10.266,5.508,14.472,12.770,-3.238,15.628,9.863,8.869,10.682,8.828
Thu Dec 05 12:38:22 2024,365,-22.238,-22.238,1.111,1.111,3.064,25.140,10.262,5.518,14.467,12.711,-3.265,15.560,9.785,8.875,10.647,8.785
Thu Dec 05 12:38:22 2024,370,-22.190,-22.190,1.061,1.061,3.117,25.153,10.186,5.577,14.415,12.654,-3.269,15.484,9.737,8.859,10.636,8.740
Thu Dec 05 12:38:22 2024,375,-22.104,-22.104,0.982,0.982,3.167,25.152,10.084,5.653,14.343,12.604,-3.263,15.410,9.707,8.834,10.638,8.698
Thu Dec 05 12:38:22 2024,380,-22.042,-22.042,0.962,0.962,3.224,25.186,10.052,5.694,14.303,12.592,-3.292,15.390,9.718,8.859,10.619,8.713
Thu Dec 05 12:38:22 2024,385,-21.998,-21.998,0.977,0.977,3.281,25.240,10.062,5.714,14.283,12.602,-3.343,15.403,9.752,8.912,10.589,8.760
Thu Dec 05 12:38:22 2024,390,-21.975,-21.975,0.960,0.960,3.320,25.186,10.004,5.720,14.278,12.591,-3.325,15.436,9.774,8.903,10.593,8.781
Thu Dec 05 12:38:22 2024,395,-21.965,-21.965,0.929,0.929,3.348,25.089,9.918,5.720,14.280,12.570,-3.276,15.476,9.788,8.865,10.612,8.787
Thu Dec 05 12:38:22 2024,400,-21.947,-21.947,0.954,0.954,3.372,24.988,9.807,5.726,14.274,12.533,-3.219,15.550,9.820,8.840,10.617,8.815
Thu Dec 05 12:38:22 2024,405,-21.923,-21.923,1.062,1.062,3.385,24.904,9.684,5.740,14.260,12.480,-3.160,15.660,9.873,8.839,10.596,8.872
Thu Dec 05 12:38:22 2024,410,-21.906,-21.906,1.075,1.075,3.423,24.899,9.680,5.776,14.224,12.486,-3.104,15.732,9.901,8.885,10.549,8.936
Thu Dec 05 12:38:22 2024,415,-21.901,-21.901,0.961,0.961,3.500,25.000,9.837,5.844,14.155,12.576,-3.046,15.758,9.900,8.998,10.465,9.011
Thu Dec 05 12:38:22 2024,420,-21.912,-21.912,0.897,0.897,3.574,25.080,9.917,5.885,14.114,12.613,-3.016,15.755,9.878,9.057,10.416,9.050
Thu Dec 05 12:38:22 2024,425,-21.965,-21.965,0.984,0.984,3.632,25.088,9.766,5.843,14.157,12.499,-3.068,15.674,9.802,8.952,10.471,8.978
Thu Dec 05 12:38:22 2024,430,-22.009,-22.009,1.066,1.066,3.657,25.068,9.598,5.796,14.204,12.366,-3.138,15.560,9.702,8.852,10.532,8.915
Thu Dec 05 12:38:22 2024,435,-22.010,-22.010,1.096,1.096,3.594,24.988,9.465,5.757,14.243,12.252,-3.219,15.423,9.592,8.806,10.587,8.902
Thu Dec 05 12:38:22 2024,440,-22.015,-22.015,1.128,1.128,3.525,24.902,9.317,5.714,14.285,12.116,-3.310,15.262,9.467,8.755,10.648,8.892
Thu Dec 05 12:38:22 2024,445,-22.032,-22.032,1.104,1.104,3.543,24.921,9.327,5.725,14.268,12.064,-3.316,15.214,9.448,8.757,10.645,8.933
Thu Dec 05 12:38:22 2024,450,-22.052,-22.052,1.083,1.083,3.565,24.947,9.351,5.734,14.252,12.022,-3.314,15.189,9.444,8.761,10.640,8.977
Thu Dec 05 12:38:22 2024,455,-22.090,-22.090,1.154,1.154,3.554,24.959,9.420,5.674,14.312,12.031,-3.281,15.353,9.529,8.744,10.659,9.004
Thu Dec 05 12:38:22 2024,460,-22.127,-22.127,1.223,1.223,3.544,24.971,9.486,5.615,14.371,12.040,-3.249,15.511,9.612,8.727,10.678,9.031
Thu Dec 05 12:38:22 2024,465,-22.082,-22.082,1.232,1.232,3.544,24.944,9.496,5.658,14.334,12.111,-3.183,15.625,9.648,8.672,10.754,9.015
Thu Dec 05 12:38:22 2024,470,-22.031,-22.031,1.226,1.226,3.548,24.917,9.490,5.713,14.284,12.177,-3.128,15.700,9.664,8.625,10.822,8.994
Thu Dec 05 12:38:22 2024,475,-22.030,-22.030,1.249,1.249,3.517,24.902,9.435,5.709,14.289,12.175,-3.141,15.726,9.670,8.641,10.829,8.976
Thu Dec 05 12:38:22 2024,480,-22.043,-22.043,1.281,1.281,3.479,24.890,9.368,5.689,14.310,12.153,-3.174,15.736,9.674,8.676,10.818,8.961
Thu Dec 05 12:38:22 2024,485,-22.058,-22.058,1.279,1.279,3.450,24.881,9.413,5.647,14.353,12.117,-3.181,15.757,9.626,8.680,10.828,8.933
Thu Dec 05 12:38:22 2024,490,-22.072,-22.072,1.263,1.263,3.428,24.875,9.502,5.598,14.403,12.076,-3.177,15.781,9.560,8.670,10.846,8.903
Thu Dec 05 12:38:22 2024,495,-22.070,-22.070,1.284,1.284,3.449,24.978,9.523,5.597,14.403,12.099,-3.167,15.853,9.581,8.651,10.877,8.901
Thu Dec 05 12:38:22 2024,500,-22.059,-22.059,1.330,1.330,3.499,25.170,9.510,5.623,14.373,12.160,-3.152,15.966,9.655,8.622,10.922,8.914
Thu Dec 05 12:38:22 2024,505,-22.058,-22.058,1.359,1.359,3.475,25.241,9.531,5.631,14.357,12.222,-3.125,16.081,9.725,8.631,10.948,8.951
Thu Dec 05 12:38:22 2024,510,-22.064,-22.064,1.380,1.380,3.402,25.249,9.572,5.630,14.346,12.288,-3.087,16.206,9.799,8.664,10.962,9.007
Thu Dec 05 12:38:22 2024,515,-22.067,-22.067,1.362,1.362,3.327,25.187,9.584,5.618,14.352,12.317,-3.059,16.247,9.817,8.724,10.929,9.048
Thu Dec 05 12:38:22 2024,520,-22.066,-22.066,1.310,1.310,3.284,25.076,9.556,5.601,14.378,12.291,-3.054,16.175,9.763,8.786,10.860,9.052
Thu Dec 05 12:38:22 2024,525,-22.067,-22.067,1.292,1.292,3.277,25.040,9.571,5.605,14.377,12.274,-3.059,16.143,9.731,8.797,10.833,9.028
Thu Dec 05 12:38:22 2024,530,-22.073,-22.073,1.344,1.344,3.340,25.148,9.666,5.650,14.325,12.279,-3.081,16.193,9.744,8.709,10.889,8.953
Thu Dec 05 12:38:22 2024,535,-22.073,-22.073,1.370,1.370,3.372,25.222,9.748,5.685,14.284,12.298,-3.086,16.239,9.767,8.689,10.904,8.935
Thu Dec 05 12:38:22 2024,540,-22.051,-22.051,1.337,1.337,3.333,25.237,9.837,5.709,14.254,12.366,-3.046,16.304,9.829,8.847,10.811,9.070
Thu Dec 05 12:38:22 2024,545,-22.040,-22.040,1.302,1.302,3.289,25.233,9.897,5.722,14.236,12.428,-3.022,16.343,9.891,8.947,10.755,9.182
Thu Dec 05 12:38:22 2024,550,-22.064,-22.064,1.261,1.261,3.224,25.169,9.866,5.697,14.261,12.478,-3.042,16.306,9.953,8.872,10.820,9.232
Thu Dec 05 12:38:22 2024,555,-22.086,-22.086,1.222,1.222,3.173,25.115,9.837,5.682,14.278,12.517,-3.060,16.277,10.007,8.811,10.870,9.272
Thu Dec 05 12:38:22 2024,560,-22.090,-22.090,1.201,1.201,3.221,25.125,9.821,5.728,14.234,12.473,-3.053,16.303,10.003,8.858,10.820,9.237
Thu Dec 05 12:38:22 2024,565,-22.098,-22.098,1.178,1.178,3.268,25.130,9.801,5.777,14.187,12.426,-3.051,16.322,9.995,8.906,10.770,9.197
Thu Dec 05 12:38:22 2024,570,-22.135,-22.135,1.185,1.185,3.174,24.995,9.750,5.729,14.226,12.472,-3.157,16.143,9.924,8.828,10.857,9.176
Thu Dec 05 12:38:22 2024,575,-22.178,-22.178,1.193,1.193,3.083,24.880,9.711,5.686,14.256,12.522,-3.257,15.970,9.854,8.763,10.932,9.157
Thu Dec 05 12:38:22 2024,580,-22.214,-22.214,1.205,1.205,3.099,25.012,9.792,5.723,14.214,12.556,-3.221,16.011,9.864,8.846,10.854,9.165
Thu Dec 05 12:38:22 2024,585,-22.246,-22.246,1.218,1.218,3.146,25.205,9.901,5.780,14.155,12.583,-3.152,16.110,9.895,8.965,10.738,9.180
Thu Dec 05 12:38:22 2024,590,-22.237,-22.237,1.241,1.241,3.170,25.200,9.877,5.766,14.182,12.516,-3.149,16.106,9.856,8.911,10.781,9.121
Thu Dec 05 12:38:22 2024,595,-22.217,-22.217,1.267,1.267,3.187,25.140,9.816,5.732,14.231,12.423,-3.167,16.073,9.796,8.808,10.867,9.043
Thu Dec 05 12:38:22 2024,600,-22.216,-22.216,1.282,1.282,3.161,25.117,9.809,5.735,14.228,12.427,-3.215,15.972,9.778,8.767,10.884,9.006
Thu Dec 05 12:38:22 2024,605,-22.219,-22.219,1.294,1.294,3.126,25.104,9.815,5.745,14.213,12.453,-3.268,15.861,9.771,8.743,10.884,8.981
Thu Dec 05 12:38:22 2024,610,-22.215,-22.215,1.298,1.298,3.124,25.088,9.846,5.755,14.200,12.503,-3.288,15.811,9.781,8.746,10.856,8.967
Thu Dec 05 12:38:22 2024,615,-22.207,-22.207,1.297,1.297,3.145,25.075,9.883,5.762,14.194,12.552,-3.279,15.825,9.800,8.767,10.819,8.965
Thu Dec 05 12:38:22 2024,620,-22.214,-22.214,1.296,1.296,3.138,25.070,9.885,5.750,14.207,12.546,-3.278,15.833,9.775,8.770,10.823,8.945
Thu Dec 05 12:38:22 2024,625,-22.236,-22.236,1.295,1.295,3.097,25.077,9.842,5.719,14.241,12.469,-3.290,15.831,9.702,8.750,10.876,8.907
Thu Dec 05 12:38:22 2024,630,-22.268,-22.268,1.323,1.323,3.103,25.087,9.873,5.717,14.244,12.473,-3.276,15.830,9.697,8.763,10.861,8.909
Thu Dec 05 12:38:22 2024,635,-22.313,-22.313,1.382,1.382,3.153,25.103,9.975,5.742,14.218,12.550,-3.237,15.831,9.754,8.808,10.780,8.948
Thu Dec 05 12:38:22 2024,640,-22.346,-22.346,1.403,1.403,3.182,25.145,10.051,5.765,14.193,12.602,-3.195,15.878,9.807,8.853,10.710,8.966
Thu Dec 05 12:38:22 2024,645,-22.340,-22.340,1.350,1.350,3.161,25.209,10.044,5.770,14.180,12.584,-3.171,15.979,9.826,8.876,10.698,8.939
Thu Dec 05 12:38:22 2024,650,-22.334,-22.334,1.301,1.301,3.151,25.248,10.018,5.770,14.175,12.563,-3.157,16.040,9.838,8.886,10.692,8.919
Thu Dec 05 12:38:22 2024,655,-22.323,-22.323,1.277,1.277,3.183,25.194,9.935,5.750,14.202,12.533,-3.178,15.960,9.827,8.848,10.711,8.930
Thu Dec 05 12:38:22 2024,660,-22.312,-22.312,1.264,1.264,3.218,25.144,9.864,5.742,14.215,12.514,-3.185,15.907,9.819,8.822,10.721,8.937
Thu Dec 05 12:38:22 2024,665,-22.312,-22.312,1.337,1.337,3.250,25.146,9.928,5.823,14.125,12.578,-3.088,16.078,9.839,8.893,10.674,8.918
Thu Dec 05 12:38:22 2024,670,-22.307,-22.307,1.386,1.386,3.273,25.145,9.977,5.881,14.061,12.627,-3.016,16.207,9.859,8.949,10.636,8.909
Thu Dec 05 12:38:22 2024,675,-22.259,-22.259,1.301,1.301,3.250,25.116,9.949,5.810,14.144,12.600,-3.065,16.123,9.883,8.932,10.640,8.958
Thu Dec 05 12:38:22 2024,680,-22.218,-22.218,1.226,1.226,3.231,25.091,9.925,5.748,14.216,12.576,-3.109,16.050,9.905,8.918,10.643,9.000
Thu Dec 05 12:38:22 2024,685,-22.146,-22.146,1.185,1.185,3.246,25.068,9.842,5.721,14.250,12.460,-3.138,16.084,9.899,8.899,10.722,9.134
Thu Dec 05 12:38:22 2024,690,-22.096,-22.096,1.162,1.162,3.261,25.054,9.781,5.707,14.267,12.375,-3.156,16.117,9.892,8.886,10.780,9.231
Thu Dec 05 12:38:22 2024,695,-22.118,-22.118,1.116,1.116,3.243,25.054,9.735,5.740,14.226,12.437,-3.132,16.150,9.912,8.820,10.843,9.175
Thu Dec 05 12:38:22 2024,700,-22.158,-22.158,1.072,1.072,3.219,25.058,9.700,5.781,14.174,12.532,-3.100,16.178,9.937,8.749,10.897,9.085
Thu Dec 05 12:38:22 2024,705,-22.195,-22.195,1.101,1.101,3.194,25.029,9.744,5.770,14.184,12.535,-3.124,16.142,9.922,8.775,10.847,9.049
Thu Dec 05 12:38:22 2024,710,-22.231,-22.231,1.144,1.144,3.171,24.996,9.801,5.750,14.207,12.520,-3.157,16.095,9.901,8.818,10.778,9.026
Thu Dec 05 12:38:22 2024,715,-22.229,-22.229,1.143,1.143,3.161,25.006,9.861,5.758,14.187,12.606,-3.194,16.099,9.956,8.868,10.749,9.056
Thu Dec 05 12:38:22 2024,720,-22.215,-22.215,1.129,1.129,3.157,25.029,9.918,5.774,14.152,12.720,-3.229,16.117,10.032,8.916,10.733,9.101
Thu Dec 05 12:38:22 2024,725,-22.226,-22.226,1.126,1.126,3.152,25.050,9.934,5.794,14.130,12.721,-3.270,16.072,10.017,8.946,10.722,9.119
Thu Dec 05 12:38:22 2024,730,-22.256,-22.256,1.131,1.131,3.148,25.072,9.921,5.819,14.116,12.637,-3.321,15.972,9.929,8.965,10.713,9.118
Thu Dec 05 12:38:22 2024,735,-22.271,-22.271,1.168,1.168,3.153,25.068,9.958,5.835,14.109,12.635,-3.350,15.907,9.900,8.968,10.695,9.118
Thu Dec 05 12:38:22 2024,740,-22.279,-22.279,1.229,1.229,3.165,25.047,10.031,5.847,14.107,12.685,-3.367,15.857,9.903,8.962,10.667,9.120
Thu Dec 05 12:38:22 2024,745,-22.284,-22.284,1.268,1.268,3.165,25.020,10.072,5.843,14.120,12.706,-3.403,15.793,9.911,8.951,10.647,9.090
Thu Dec 05 12:38:22 2024,750,-22.281,-22.281,1.260,1.260,3.145,24.986,10.051,5.813,14.155,12.675,-3.459,15.721,9.922,8.932,10.646,9.013
Thu Dec 05 12:38:22 2024,755,-22.276,-22.276,1.249,1.249,3.131,24.952,10.033,5.798,14.176,12.659,-3.509,15.643,9.929,8.908,10.650,8.961
Thu Dec 05 12:38:22 2024,760,-22.265,-22.265,1.230,1.230,3.137,24.919,10.030,5.827,14.156,12.688,-3.538,15.552,9.926,8.872,10.668,8.983
Thu Dec 05 12:38:22 2024,765,-22.255,-22.255,1.214,1.214,3.141,24.891,10.026,5.852,14.138,12.713,-3.562,15.473,9.924,8.841,10.684,9.001
Thu Dec 05 12:38:22 2024,770,-22.248,-22.248,1.204,1.204,3.144,24.873,10.024,5.867,14.125,12.728,-3.577,15.423,9.922,8.821,10.693,9.012
Thu Dec 05 12:38:22 2024,775,-22.269,-22.269,1.224,1.224,3.198,25.100,9.873,5.828,14.157,12.494,-3.637,15.315,9.675,8.803,10.676,8.817
Thu Dec 05 12:38:22 2024,780,-22.224,-22.224,1.218,1.218,3.221,25.115,9.914,5.852,14.135,12.540,-3.622,15.340,9.712,8.868,10.666,8.913
Thu Dec 05 12:38:22 2024,785,-22.173,-22.173,1.211,1.211,3.245,25.132,9.958,5.877,14.110,12.589,-3.608,15.368,9.752,8.938,10.652,9.016
Thu Dec 05 12:38:22 2024,790,-22.179,-22.179,1.201,1.201,3.239,25.056,9.954,5.887,14.100,12.616,-3.588,15.341,9.761,8.925,10.624,9.003
Thu Dec 05 12:38:22 2024,795,-22.202,-22.202,1.187,1.187,3.218,24.942,9.927,5.888,14.100,12.634,-3.569,15.294,9.756,8.881,10.588,8.946
Thu Dec 05 12:38:22 2024,800,-22.161,-22.161,1.141,1.141,3.138,24.841,9.841,5.816,14.169,12.606,-3.607,15.287,9.711,8.861,10.621,8.889
Thu Dec 05 12:38:22 2024,805,-22.118,-22.118,1.097,1.097,3.066,24.761,9.762,5.748,14.234,12.576,-3.644,15.288,9.668,8.848,10.657,8.843
Thu Dec 05 12:38:22 2024,810,-22.107,-22.107,1.058,1.058,3.102,24.828,9.758,5.751,14.236,12.562,-3.590,15.360,9.668,8.874,10.666,8.869
Thu Dec 05 12:38:22 2024,815,-22.103,-22.103,1.024,1.024,3.154,24.914,9.768,5.766,14.224,12.553,-3.520,15.445,9.679,8.904,10.670,8.907
Thu Dec 05 12:38:22 2024,820,-22.108,-22.108,1.048,1.048,3.124,24.862,9.742,5.751,14.236,12.544,-3.490,15.499,9.687,8.863,10.703,8.890
Thu Dec 05 12:38:22 2024,825,-22.117,-22.117,1.102,1.102,3.049,24.734,9.693,5.721,14.262,12.534,-3.470,15.551,9.697,8.781,10.760,8.844
Thu Dec 05 12:38:22 2024,830,-22.129,-22.129,1.096,1.096,3.030,24.721,9.686,5.697,14.288,12.498,-3.466,15.535,9.642,8.770,10.747,8.785
Thu Dec 05 12:38:22 2024,835,-22.141,-22.141,1.069,1.069,3.025,24.747,9.695,5.670,14.317,12.446,-3.466,15.490,9.555,8.782,10.708,8.711
Thu Dec 05 12:38:22 2024,840,-22.188,-22.188,1.149,1.149,3.011,24.809,9.732,5.662,14.318,12.477,-3.415,15.573,9.607,8.871,10.652,8.767
Thu Dec 05 12:38:22 2024,845,-22.245,-22.245,1.276,1.276,2.994,24.881,9.778,5.663,14.303,12.545,-3.345,15.709,9.724,8.987,10.594,8.883
Thu Dec 05 12:38:22 2024,850,-22.306,-22.306,1.410,1.410,2.975,24.959,9.826,5.665,14.281,12.619,-3.271,15.854,9.850,9.109,10.528,9.007
Thu Dec 05 12:38:22 2024,855,-22.271,-22.271,1.268,1.268,2.944,24.928,9.758,5.638,14.314,12.478,-3.368,15.735,9.675,8.885,10.705,8.856
Thu Dec 05 12:38:22 2024,860,-22.264,-22.264,1.214,1.214,2.921,24.929,9.729,5.622,14.329,12.411,-3.408,15.698,9.599,8.778,10.795,8.794
Thu Dec 05 12:38:22 2024,865,-22.251,-22.251,1.208,1.208,2.940,24.931,9.782,5.642,14.324,12.486,-3.388,15.724,9.678,8.885,10.680,8.831
Thu Dec 05 12:38:22 2024,870,-22.241,-22.241,1.209,1.209,2.950,24.947,9.818,5.654,14.314,12.541,-3.372,15.747,9.718,8.943,10.619,8.846
Thu Dec 05 12:38:22 2024,875,-22.241,-22.241,1.248,1.248,2.954,24.990,9.841,5.663,14.293,12.592,-3.349,15.779,9.723,8.964,10.610,8.848
Thu Dec 05 12:38:22 2024,880,-22.235,-22.235,1.264,1.264,2.954,25.005,9.857,5.662,14.286,12.628,-3.326,15.806,9.741,8.990,10.590,8.863
Thu Dec 05 12:38:22 2024,885,-22.199,-22.199,1.193,1.193,2.932,24.915,9.848,5.618,14.347,12.609,-3.298,15.812,9.812,9.039,10.528,8.929
Thu Dec 05 12:38:22 2024,890,-22.173,-22.173,1.146,1.146,2.921,24.849,9.832,5.584,14.390,12.596,-3.279,15.823,9.865,9.069,10.493,8.970
Thu Dec 05 12:38:22 2024,895,-22.174,-22.174,1.176,1.176,2.942,24.866,9.800,5.580,14.388,12.612,-3.277,15.857,9.863,9.046,10.537,8.936
Thu Dec 05 12:38:22 2024,900,-22.180,-22.180,1.221,1.221,2.970,24.900,9.764,5.581,14.376,12.632,-3.279,15.896,9.850,9.014,10.595,8.887
Thu Dec 05 12:38:22 2024,905,-22.222,-22.222,1.265,1.265,2.968,24.981,9.851,5.571,14.385,12.631,-3.236,15.971,9.894,9.068,10.549,8.958
Thu Dec 05 12:38:22 2024,910,-22.258,-22.258,1.293,1.293,2.964,25.052,9.921,5.562,14.391,12.638,-3.200,16.031,9.929,9.108,10.516,9.013
Thu Dec 05 12:38:22 2024,915,-22.261,-22.261,1.215,1.215,2.938,25.061,9.888,5.561,14.378,12.699,-3.210,16.003,9.915,9.065,10.555,8.971
Thu Dec 05 12:38:22 2024,920,-22.259,-22.259,1.118,1.118,2.909,25.060,9.838,5.560,14.361,12.769,-3.226,15.960,9.892,9.009,10.606,8.914
Thu Dec 05 12:38:22 2024,925,-22.312,-22.312,1.197,1.197,2.868,25.010,9.908,5.558,14.369,12.828,-3.221,15.980,9.913,8.983,10.598,8.825
Thu Dec 05 12:38:22 2024,930,-22.375,-22.375,1.310,1.310,2.828,24.958,10.006,5.559,14.379,12.881,-3.214,16.007,9.943,8.971,10.573,8.738
Thu Dec 05 12:38:22 2024,935,-22.414,-22.414,1.312,1.312,2.820,25.007,10.085,5.600,14.329,12.948,-3.250,15.934,9.938,9.007,10.538,8.715
Thu Dec 05 12:38:22 2024,940,-22.444,-22.444,1.271,1.271,2.822,25.092,10.159,5.656,14.256,13.020,-3.302,15.820,9.920,9.061,10.499,8.716
Thu Dec 05 12:38:22 2024,945,-22.416,-22.416,1.290,1.290,2.797,25.126,10.152,5.642,14.270,12.978,-3.326,15.784,9.883,9.045,10.524,8.686
Thu Dec 05 12:38:22 2024,950,-22.366,-22.366,1.336,1.336,2.763,25.123,10.105,5.594,14.324,12.888,-3.330,15.797,9.845,8.995,10.576,8.648
Thu Dec 05 12:38:22 2024,955,-22.386,-22.386,1.390,1.390,2.690,25.124,10.145,5.516,14.400,12.884,-3.335,15.820,9.870,9.017,10.555,8.652
Thu Dec 05 12:38:22 2024,960,-22.458,-22.458,1.436,1.436,2.601,25.129,10.248,5.432,14.472,12.951,-3.340,15.847,9.939,9.092,10.478,8.691
Thu Dec 05 12:38:22 2024,965,-22.526,-22.526,1.537,1.537,2.552,25.097,10.296,5.400,14.493,13.016,-3.326,15.884,10.004,9.146,10.405,8.678
Thu Dec 05 12:38:22 2024,970,-22.568,-22.568,1.658,1.658,2.553,25.038,10.278,5.426,14.460,13.058,-3.299,15.919,10.045,9.161,10.360,8.621
Thu Dec 05 12:38:22 2024,975,-22.595,-22.595,1.709,1.709,2.535,24.971,10.226,5.395,14.504,13.035,-3.325,15.882,10.046,9.128,10.354,8.547
Thu Dec 05 12:38:22 2024,980,-22.598,-22.598,1.652,1.652,2.493,24.904,10.136,5.292,14.644,12.926,-3.418,15.748,9.991,9.032,10.404,8.462
Thu Dec 05 12:38:22 2024,985,-22.604,-22.604,1.607,1.607,2.481,24.851,10.094,5.214,14.743,12.847,-3.487,15.646,9.939,8.975,10.419,8.395
Thu Dec 05 12:38:22 2024,990,-22.622,-22.622,1.594,1.594,2.554,24.837,10.186,5.205,14.751,12.847,-3.495,15.621,9.886,9.017,10.339,8.370
Thu Dec 05 12:38:22 2024,995,-22.643,-22.643,1.602,1.602,2.587,24.834,10.249,5.197,14.753,12.862,-3.490,15.639,9.868,9.053,10.287,8.352
Thu Dec 05 12:38:23 2024,0,-22.678,-22.678,1.670,1.670,2.528,24.854,10.258,5.190,14.734,12.927,-3.444,15.771,9.935,9.080,10.290,8.343
Thu Dec 05 12:38:23 2024,5,-22.722,-22.722,1.752,1.752,2.452,24.880,10.273,5.175,14.719,12.986,-3.409,15.887,10.001,9.097,10.305,8.338
Thu Dec 05 12:38:23 2024,10,-22.783,-22.783,1.825,1.825,2.377,24.897,10.343,5.134,14.782,12.950,-3.477,15.790,9.972,9.049,10.356,8.353
Thu Dec 05 12:38:23 2024,15,-22.841,-22.841,1.892,1.892,2.297,24.900,10.415,5.094,14.841,12.922,-3.545,15.686,9.944,9.005,10.402,8.368
Thu Dec 05 12:38:23 2024,20,-22.812,-22.812,1.853,1.853,2.259,24.775,10.417,5.109,14.820,12.988,-3.551,15.636,9.954,9.035,10.355,8.355
Thu Dec 05 12:38:23 2024,25,-22.785,-22.785,1.813,1.813,2.210,24.644,10.424,5.120,14.802,13.066,-3.558,15.593,9.975,9.070,10.311,8.358
Thu Dec 05 12:38:23 2024,30,-22.804,-22.804,1.822,1.822,2.114,24.628,10.479,5.076,14.822,13.150,-3.576,15.683,10.077,9.119,10.342,8.518
Thu Dec 05 12:38:23 2024,35,-22.835,-22.835,1.841,1.841,1.999,24.635,10.548,5.016,14.848,13.243,-3.598,15.797,10.205,9.172,10.386,8.726
Thu Dec 05 12:38:23 2024,40,-22.824,-22.824,1.814,1.814,1.908,24.595,10.516,4.906,14.993,13.125,-3.619,15.795,10.188,9.141,10.408,8.681
Thu Dec 05 12:38:23 2024,45,-22.809,-22.809,1.799,1.799,1.831,24.501,10.470,4.850,15.073,13.037,-3.659,15.706,10.131,9.126,10.407,8.679
Thu Dec 05 12:38:23 2024,50,-22.797,-22.797,1.790,1.790,1.754,24.396,10.426,4.809,15.132,12.969,-3.704,15.602,10.074,9.120,10.401,8.705
Thu Dec 05 12:38:23 2024,55,-22.787,-22.787,1.795,1.795,1.664,24.244,10.383,4.800,15.146,12.944,-3.770,15.439,10.007,9.138,10.382,8.808
Thu Dec 05 12:38:23 2024,60,-22.717,-22.717,1.772,1.772,1.584,24.252,10.392,4.749,15.201,12.907,-3.836,15.337,9.982,9.124,10.407,8.856
Thu Dec 05 12:38:23 2024,65,-22.636,-22.636,1.739,1.739,1.534,24.348,10.423,4.684,15.272,12.862,-3.876,15.312,9.986,9.092,10.448,8.842
Thu Dec 05 12:38:23 2024,70,-22.570,-22.570,1.715,1.715,1.460,24.350,10.422,4.639,15.323,12.834,-3.882,15.316,9.997,9.089,10.482,8.854
Thu Dec 05 12:38:23 2024,75,-22.532,-22.532,1.706,1.706,1.380,24.259,10.390,4.623,15.343,12.826,-3.851,15.349,10.013,9.117,10.498,8.892
Thu Dec 05 12:38:23 2024,80,-22.512,-22.512,1.692,1.692,1.303,24.235,10.373,4.588,15.379,12.811,-3.863,15.345,9.998,9.108,10.535,8.899
Thu Dec 05 12:38:23 2024,85,-22.506,-22.506,1.671,1.671,1.223,24.274,10.372,4.530,15.436,12.788,-3.918,15.304,9.951,9.063,10.595,8.876
Thu Dec 05 12:38:23 2024,90,-22.496,-22.496,1.638,1.638,1.164,24.341,10.383,4.492,15.473,12.784,-3.958,15.260,9.904,9.030,10.628,8.844
Thu Dec 05 12:38:23 2024,95,-22.486,-22.486,1.602,1.602,1.158,24.412,10.408,4.499,15.466,12.809,-3.961,15.231,9.879,9.029,10.611,8.814
Thu Dec 05 12:38:23 2024,100,-22.490,-22.490,1.588,1.588,1.130,24.451,10.423,4.516,15.448,12.833,-3.953,15.218,9.861,9.026,10.608,8.793
Thu Dec 05 12:38:23 2024,105,-22.536,-22.536,1.646,1.646,1.046,24.370,10.403,4.558,15.402,12.843,-3.911,15.257,9.878,9.020,10.649,8.805
Thu Dec 05 12:38:23 2024,110,-22.577,-22.577,1.691,1.691,0.957,24.301,10.381,4.570,15.390,12.848,-3.881,15.289,9.904,9.012,10.689,8.824
Thu Dec 05 12:38:23 2024,115,-22.594,-22.594,1.689,1.689,0.839,24.271,10.343,4.456,15.518,12.828,-3.894,15.300,9.966,8.986,10.736,8.872
Thu Dec 05 12:38:23 2024,120,-22.608,-22.608,1.690,1.690,0.733,24.238,10.301,4.363,15.623,12.803,-3.912,15.291,10.008,8.956,10.781,8.904
Thu Dec 05 12:38:23 2024,125,-22.598,-22.598,1.710,1.710,0.702,24.175,10.242,4.386,15.606,12.759,-3.958,15.167,9.929,8.901,10.815,8.846
Thu Dec 05 12:38:23 2024,130,-22.583,-22.583,1.727,1.727,0.658,24.103,10.173,4.415,15.582,12.704,-4.009,15.021,9.832,8.835,10.851,8.766
Thu Dec 05 12:38:23 2024,135,-22.554,-22.554,1.683,1.683,0.624,24.139,10.200,4.413,15.582,12.706,-3.969,15.083,9.836,8.841,10.830,8.698
Thu Dec 05 12:38:23 2024,140,-22.517,-22.517,1.628,1.628,0.585,24.186,10.233,4.412,15.581,12.706,-3.918,15.160,9.840,8.853,10.802,8.619
Thu Dec 05 12:38:23 2024,145,-22.466,-22.466,1.618,1.618,0.620,24.253,10.249,4.452,15.546,12.650,-3.874,15.172,9.807,8.926,10.738,8.651
Thu Dec 05 12:38:23 2024,150,-22.414,-22.414,1.618,1.618,0.667,24.323,10.262,4.498,15.503,12.584,-3.832,15.170,9.767,9.008,10.670,8.706
Thu Dec 05 12:38:23 2024,155,-22.410,-22.410,1.632,1.632,0.610,24.312,10.178,4.478,15.522,12.552,-3.831,15.173,9.726,9.041,10.667,8.732
Thu Dec 05 12:38:23 2024,160,-22.418,-22.418,1.649,1.649,0.536,24.285,10.084,4.446,15.553,12.534,-3.840,15.177,9.693,9.056,10.679,8.746
Thu Dec 05 12:38:23 2024,165,-22.398,-22.398,1.624,1.624,0.502,24.217,10.017,4.409,15.588,12.533,-3.876,15.118,9.658,9.035,10.701,8.735
Thu Dec 05 12:38:23 2024,170,-22.369,-22.369,1.586,1.586,0.488,24.143,9.972,4.377,15.620,12.539,-3.919,15.039,9.630,9.003,10.724,8.716
Thu Dec 05 12:38:23 2024,175,-22.342,-22.342,1.600,1.600,0.481,24.166,9.955,4.348,15.652,12.508,-3.878,15.114,9.691,9.016,10.715,8.747
Thu Dec 05 12:38:23 2024,180,-22.322,-22.322,1.661,1.661,0.481,24.279,9.969,4.328,15.672,12.449,-3.765,15.317,9.826,9.070,10.677,8.818
Thu Dec 05 12:38:23 2024,185,-22.283,-22.283,1.662,1.662,0.462,24.316,9.936,4.332,15.665,12.404,-3.744,15.354,9.817,9.084,10.666,8.804
Thu Dec 05 12:38:23 2024,190,-22.231,-22.231,1.619,1.619,0.426,24.300,9.868,4.355,15.643,12.366,-3.787,15.276,9.704,9.071,10.673,8.728
Thu Dec 05 12:38:23 2024,195,-22.218,-22.218,1.584,1.584,0.391,24.377,9.871,4.362,15.635,12.348,-3.816,15.233,9.651,9.102,10.651,8.724
Thu Dec 05 12:38:23 2024,200,-22.270,-22.270,1.568,1.568,0.362,24.578,9.980,4.347,15.652,12.360,-3.818,15.254,9.698,9.192,10.586,8.829
Thu Dec 05 12:38:23 2024,205,-22.308,-22.308,1.560,1.560,0.329,24.674,10.030,4.326,15.673,12.367,-3.818,15.269,9.733,9.220,10.573,8.876
Thu Dec 05 12:38:23 2024,210,-22.324,-22.324,1.573,1.573,0.276,24.568,9.969,4.286,15.711,12.366,-3.816,15.275,9.757,9.118,10.669,8.808
Thu Dec 05 12:38:23 2024,215,-22.344,-22.344,1.592,1.592,0.233,24.475,9.924,4.268,15.727,12.365,-3.813,15.265,9.766,9.030,10.745,8.734
Thu Dec 05 12:38:23 2024,220,-22.374,-22.374,1.642,1.642,0.232,24.442,9.958,4.362,15.630,12.365,-3.806,15.168,9.692,9.010,10.716,8.624
Thu Dec 05 12:38:23 2024,225,-22.392,-22.392,1.674,1.674,0.222,24.418,9.976,4.426,15.564,12.369,-3.803,15.092,9.638,8.995,10.694,8.550
Thu Dec 05 12:38:23 2024,230,-22.362,-22.362,1.624,1.624,0.141,24.427,9.920,4.362,15.632,12.393,-3.820,15.101,9.652,9.003,10.718,8.636
Thu Dec 05 12:38:23 2024,235,-22.341,-22.341,1.589,1.589,0.082,24.431,9.873,4.308,15.689,12.406,-3.838,15.104,9.662,9.004,10.738,8.694
Thu Dec 05 12:38:23 2024,240,-22.348,-22.348,1.621,1.621,-0.001,24.394,9.833,4.272,15.722,12.349,-3.878,15.076,9.644,8.967,10.766,8.610
Thu Dec 05 12:38:23 2024,245,-22.356,-22.356,1.654,1.654,-0.068,24.366,9.803,4.245,15.747,12.294,-3.914,15.048,9.628,8.934,10.789,8.528
Thu Dec 05 12:38:23 2024,250,-22.305,-22.305,1.609,1.609,-0.056,24.462,9.845,4.260,15.732,12.333,-3.889,15.072,9.653,8.988,10.760,8.622
Thu Dec 05 12:38:23 2024,255,-22.252,-22.252,1.560,1.560,0.071,24.567,9.892,4.279,15.714,12.379,-3.861,15.101,9.682,9.049,10.726,8.730
Thu Dec 05 12:38:23 2024,260,-22.245,-22.245,1.517,1.517,0.069,24.569,9.849,4.229,15.763,12.351,-3.853,15.107,9.691,9.039,10.746,8.748
Thu Dec 05 12:38:23 2024,265,-22.254,-22.254,1.481,1.481,0.069,24.536,9.778,4.161,15.831,12.302,-3.851,15.106,9.692,9.005,10.783,8.732
Thu Dec 05 12:38:23 2024,270,-22.258,-22.258,1.530,1.530,0.103,24.520,9.775,4.239,15.757,12.340,-3.844,15.082,9.670,8.972,10.785,8.658
Thu Dec 05 12:38:23 2024,275,-22.261,-22.261,1.605,1.605,0.165,24.511,9.794,4.363,15.636,12.406,-3.835,15.052,9.640,8.939,10.773,8.569
Thu Dec 05 12:38:23 2024,280,-22.249,-22.249,1.619,1.619,0.158,24.505,9.798,4.377,15.622,12.406,-3.825,15.080,9.658,8.942,10.767,8.565
Thu Dec 05 12:38:23 2024,285,-22.230,-22.230,1.594,1.594,0.111,24.502,9.790,4.323,15.672,12.367,-3.817,15.141,9.705,8.967,10.765,8.613
Thu Dec 05 12:38:23 2024,290,-22.201,-22.201,1.553,1.553,0.082,24.515,9.737,4.258,15.733,12.293,-3.819,15.139,9.685,8.944,10.808,8.637
Thu Dec 05 12:38:23 2024,295,-22.170,-22.170,1.503,1.503,0.069,24.540,9.646,4.193,15.795,12.199,-3.831,15.078,9.604,8.879,10.885,8.635
Thu Dec 05 12:38:23 2024,300,-22.155,-22.155,1.497,1.497,0.059,24.543,9.607,4.195,15.794,12.214,-3.826,15.065,9.597,8.870,10.904,8.642
Thu Dec 05 12:38:23 2024,305,-22.164,-22.164,1.544,1.544,-0.056,24.519,9.642,4.275,15.719,12.353,-3.803,15.115,9.679,8.929,10.847,8.656
Thu Dec 05 12:38:23 2024,310,-22.147,-22.147,1.545,1.545,-0.064,24.525,9.653,4.341,15.657,12.433,-3.771,15.172,9.715,8.985,10.792,8.638
Thu Dec 05 12:38:23 2024,315,-22.102,-22.102,1.481,1.481,-0.068,24.571,9.623,4.352,15.647,12.391,-3.742,15.210,9.669,9.007,10.768,8.585
Thu Dec 05 12:38:23 2024,320,-22.063,-22.063,1.417,1.417,-0.069,24.589,9.587,4.346,15.654,12.346,-3.730,15.217,9.624,9.026,10.746,8.545
Thu Dec 05 12:38:23 2024,325,-22.061,-22.061,1.376,1.376,-0.061,24.479,9.530,4.262,15.737,12.300,-3.790,15.093,9.588,9.034,10.741,8.580
Thu Dec 05 12:38:23 2024,330,-22.066,-22.066,1.371,1.371,-0.059,24.382,9.482,4.210,15.786,12.270,-3.834,14.992,9.553,9.048,10.724,8.600
Thu Dec 05 12:38:23 2024,335,-22.089,-22.089,1.462,1.462,-0.056,24.288,9.437,4.234,15.760,12.266,-3.848,14.919,9.502,9.094,10.659,8.575
Thu Dec 05 12:38:23 2024,340,-22.108,-22.108,1.521,1.521,-0.052,24.224,9.411,4.250,15.743,12.269,-3.860,14.870,9.476,9.132,10.614,8.576
Thu Dec 05 12:38:23 2024,345,-22.121,-22.121,1.441,1.441,-0.052,24.242,9.456,4.217,15.772,12.294,-3.902,14.870,9.567,9.168,10.629,8.742
Thu Dec 05 12:38:23 2024,350,-22.133,-22.133,1.382,1.382,0.050,24.276,9.500,4.188,15.798,12.315,-3.932,14.870,9.641,9.202,10.629,8.871
Thu Dec 05 12:38:23 2024,355,-22.146,-22.146,1.398,1.398,0.067,24.398,9.560,4.166,15.814,12.316,-3.918,14.870,9.658,9.247,10.578,8.869
Thu Dec 05 12:38:23 2024,360,-22.159,-22.159,1.433,1.433,0.093,24.550,9.630,4.145,15.829,12.313,-3.892,14.872,9.664,9.296,10.512,8.839
Thu Dec 05 12:38:23 2024,365,-22.186,-22.186,1.443,1.443,0.066,24.651,9.664,4.085,15.901,12.332,-3.952,14.830,9.682,9.196,10.626,8.931
Thu Dec 05 12:38:23 2024,370,-22.216,-22.216,1.455,1.455,-0.070,24.754,9.699,4.027,15.968,12.354,-4.020,14.780,9.700,9.087,10.750,9.033
Thu Dec 05 12:38:23 2024,375,-22.249,-22.249,1.500,1.500,0.104,24.824,9.751,4.074,15.916,12.384,-4.036,14.690,9.698,9.110,10.732,9.064
Thu Dec 05 12:38:23 2024,380,-22.286,-22.286,1.557,1.557,0.233,24.896,9.810,4.149,15.826,12.418,-4.043,14.584,9.693,9.165,10.678,9.081
Thu Dec 05 12:38:23 2024,385,-22.279,-22.279,1.540,1.540,0.289,24.989,9.776,4.198,15.777,12.401,-3.997,14.645,9.667,9.185,10.632,8.927
Thu Dec 05 12:38:23 2024,390,-22.276,-22.276,1.524,1.524,0.303,25.044,9.771,4.198,15.778,12.377,-3.984,14.680,9.668,9.197,10.617,8.925
Thu Dec 05 12:38:23 2024,395,-22.272,-22.272,1.507,1.507,0.318,25.099,9.766,4.198,15.779,12.354,-3.970,14.716,9.669,9.210,10.601,8.923
Thu Dec 05 12:38:23 2024,400,-22.269,-22.269,1.491,1.491,0.332,25.154,9.762,4.198,15.781,12.330,-3.957,14.751,9.670,9.222,10.586,8.921
Thu Dec 05 12:38:23 2024,405,-22.266,-22.266,1.474,1.474,0.346,25.209,9.757,4.198,15.782,12.307,-3.944,14.787,9.671,9.234,10.570,8.919
Thu Dec 05 12:38:23 2024,410,-22.266,-22.266,1.456,1.456,0.358,25.262,9.757,4.197,15.783,12.290,-3.931,14.817,9.674,9.243,10.559,8.908
Thu Dec 05 12:38:23 2024,415,-22.283,-22.283,1.429,1.429,0.359,25.305,9.775,4.192,15.785,12.303,-3.923,14.828,9.683,9.239,10.566,8.861
Thu Dec 05 12:38:23 2024,420,-22.300,-22.300,1.401,1.401,0.351,25.341,9.793,4.184,15.790,12.319,-3.915,14.834,9.682,9.233,10.577,8.799
Thu Dec 05 12:38:23 2024,425,-22.322,-22.322,1.418,1.418,0.410,25.378,9.829,4.193,15.777,12.323,-3.916,14.789,9.633,9.271,10.532,8.766
Thu Dec 05 12:38:23 2024,430,-22.345,-22.345,1.435,1.435,0.468,25.416,9.865,4.202,15.764,12.326,-3.918,14.745,9.584,9.308,10.487,8.733
Thu Dec 05 12:38:23 2024,435,-22.365,-22.365,1.463,1.463,0.546,25.459,9.902,4.218,15.744,12.323,-3.920,14.697,9.537,9.356,10.428,8.722
Thu Dec 05 12:38:23 2024,440,-22.378,-22.378,1.483,1.483,0.599,25.489,9.926,4.229,15.730,12.320,-3.922,14.665,9.507,9.388,10.389,8.720
Thu Dec 05 12:38:23 2024,445,-22.382,-22.382,1.492,1.492,0.623,25.502,9.937,4.234,15.724,12.318,-3.923,14.651,9.493,9.403,10.371,8.718
Thu Dec 05 12:38:23 2024,450,-22.382,-22.382,1.493,1.493,0.627,25.505,9.939,4.235,15.723,12.317,-3.923,14.649,9.491,9.406,10.368,8.718
Thu Dec 05 12:38:23 2024,455,-22.380,-22.380,1.493,1.493,0.628,25.505,9.938,4.235,15.723,12.317,-3.923,14.649,9.490,9.406,10.367,8.719
Thu Dec 05 12:38:23 2024,460,-22.379,-22.379,1.493,1.493,0.628,25.504,9.938,4.234,15.723,12.317,-3.923,14.649,9.490,9.406,10.367,8.719
Thu Dec 05 12:38:23 2024,465,-22.377,-22.377,1.493,1.493,0.628,25.504,9.937,4.234,15.724,12.317,-3.923,14.649,9.490,9.406,10.367,8.719
Thu Dec 05 12:38:23 2024,470,-22.288,-22.288,1.396,1.396,0.247,25.255,9.737,4.119,15.804,12.020,-4.022,14.498,9.365,8.943,10.786,8.476
Thu Dec 05 12:38:23 2024,475,-22.400,-22.400,1.548,1.548,0.128,25.127,9.374,4.232,15.739,12.006,-3.877,14.784,9.325,9.268,10.485,8.381
Thu Dec 05 12:38:23 2024,480,-22.424,-22.424,1.584,1.584,0.090,25.080,9.268,4.254,15.724,11.979,-3.847,14.842,9.300,9.322,10.433,8.337
Thu Dec 05 12:38:23 2024,485,-22.448,-22.448,1.556,1.556,-0.074,24.931,9.384,4.153,15.810,12.057,-3.990,14.562,9.329,9.257,10.466,8.419
Thu Dec 05 12:38:23 2024,490,-22.441,-22.441,1.506,1.506,-0.163,24.761,9.474,4.056,15.884,12.104,-4.108,14.318,9.352,9.224,10.487,8.544
Thu Dec 05 12:38:23 2024,495,-22.389,-22.389,1.479,1.479,-0.171,24.621,9.308,4.072,15.866,12.008,-4.036,14.425,9.316,9.356,10.401,8.633
Thu Dec 05 12:38:23 2024,500,-22.361,-22.361,1.459,1.459,-0.216,24.608,9.204,4.088,15.870,11.985,-4.041,14.478,9.269,9.391,10.380,8.602
Thu Dec 05 12:38:23 2024,505,-22.350,-22.350,1.446,1.446,-0.276,24.674,9.148,4.103,15.881,12.007,-4.091,14.492,9.221,9.364,10.400,8.502
Thu Dec 05 12:38:23 2024,510,-22.378,-22.378,1.485,1.485,-0.287,24.656,9.161,4.133,15.852,12.007,-4.084,14.468,9.223,9.432,10.323,8.508
Thu Dec 05 12:38:23 2024,515,-22.416,-22.416,1.541,1.541,-0.280,24.608,9.199,4.165,15.813,12.000,-4.057,14.434,9.244,9.527,10.217,8.553
Thu Dec 05 12:38:23 2024,520,-22.430,-22.430,1.558,1.558,-0.311,24.542,9.190,4.169,15.802,11.964,-4.048,14.429,9.238,9.561,10.175,8.556
Thu Dec 05 12:38:23 2024,525,-22.405,-22.405,1.519,1.519,-0.387,24.469,9.119,4.134,15.832,11.897,-4.064,14.466,9.197,9.506,10.227,8.499
Thu Dec 05 12:38:23 2024,530,-22.372,-22.372,1.478,1.478,-0.386,24.460,9.117,4.125,15.844,11.917,-4.046,14.530,9.211,9.510,10.225,8.455
Thu Dec 05 12:38:23 2024,535,-22.335,-22.335,1.438,1.438,-0.303,24.523,9.190,4.144,15.835,12.028,-3.992,14.616,9.282,9.577,10.167,8.432
Thu Dec 05 12:38:23 2024,540,-22.314,-22.314,1.413,1.413,-0.230,24.570,9.228,4.144,15.838,12.087,-3.984,14.626,9.302,9.636,10.115,8.419
Thu Dec 05 12:38:23 2024,545,-22.322,-22.322,1.406,1.406,-0.149,24.598,9.210,4.102,15.876,12.064,-4.078,14.472,9.217,9.700,10.057,8.422
Thu Dec 05 12:38:23 2024,550,-22.305,-22.305,1.390,1.390,-0.012,24.714,9.267,4.056,15.905,12.040,-4.168,14.317,9.164,9.754,10.008,8.446
Thu Dec 05 12:38:23 2024,555,-22.240,-22.240,1.357,1.357,0.212,24.984,9.462,4.006,15.916,12.016,-4.249,14.166,9.171,9.786,9.979,8.506
Thu Dec 05 12:38:23 2024,560,-22.181,-22.181,1.320,1.320,0.536,25.382,9.751,3.941,15.916,12.031,-4.359,13.972,9.196,9.783,9.973,8.564
Thu Dec 05 12:38:23 2024,565,-22.145,-22.145,1.288,1.288,0.938,25.831,10.070,3.867,15.921,12.088,-4.487,13.759,9.225,9.744,9.990,8.599
Thu Dec 05 12:38:23 2024,570,-22.112,-22.112,1.251,1.251,1.482,26.453,10.486,3.768,15.916,12.169,-4.653,13.492,9.258,9.684,10.016,8.635
Thu Dec 05 12:38:23 2024,575,-22.157,-22.157,1.263,1.263,2.253,27.394,10.994,3.641,15.945,12.151,-4.748,13.368,9.184,9.638,10.007,8.635
Thu Dec 05 12:38:23 2024,580,-22.190,-22.190,1.268,1.268,2.978,28.290,11.465,3.518,15.951,12.126,-4.841,13.235,9.113,9.579,10.009,8.634
Thu Dec 05 12:38:23 2024,585,-22.162,-22.162,1.232,1.232,3.684,29.124,11.886,3.371,15.834,12.044,-4.961,12.985,9.018,9.423,10.085,8.629
Thu Dec 05 12:38:23 2024,590,-22.130,-22.130,1.197,1.197,4.325,29.908,12.278,3.253,15.676,11.966,-5.072,12.746,8.934,9.259,10.182,8.632
Thu Dec 05 12:38:23 2024,595,-22.088,-22.088,1.162,1.162,5.068,30.902,12.789,3.184,15.454,11.888,-5.200,12.472,8.854,9.017,10.381,8.660
Thu Dec 05 12:38:23 2024,600,-22.035,-22.035,1.134,1.134,5.882,32.079,13.494,3.163,15.145,11.828,-5.315,12.182,8.786,8.731,10.626,8.703
Thu Dec 05 12:38:23 2024,605,-21.954,-21.954,0.843,1.128,6.844,33.570,14.708,3.175,14.629,11.824,-5.372,11.872,8.748,8.432,10.810,8.740
Thu Dec 05 12:38:23 2024,610,-21.880,-21.880,-0.574,1.137,7.668,34.902,15.975,3.206,14.102,11.856,-5.383,11.624,8.736,8.195,10.903,8.767
Thu Dec 05 12:38:23 2024,615,-21.871,-21.871,1.167,1.167,8.428,36.360,17.871,3.257,13.771,11.943,-5.506,11.420,8.737,7.951,11.021,8.835
Thu Dec 05 12:38:23 2024,620,-21.908,-21.908,1.212,1.212,9.180,37.980,20.355,3.324,13.563,12.073,-5.710,11.240,8.745,7.695,11.153,8.933
Thu Dec 05 12:38:23 2024,625,-22.031,-22.031,1.275,1.275,10.117,40.435,24.316,3.578,13.216,11.747,-5.735,11.158,8.600,7.487,11.064,8.864
Thu Dec 05 12:38:23 2024,630,-22.180,-22.180,1.342,1.342,11.058,43.024,28.623,3.886,12.842,11.255,-5.678,11.128,8.403,7.320,10.879,8.727
Thu Dec 05 12:38:23 2024,635,-22.296,-22.296,1.461,1.461,12.219,46.389,34.283,4.466,12.733,11.034,-5.653,10.951,8.243,7.197,10.919,8.551
Thu Dec 05 12:38:23 2024,640,-22.383,-22.383,1.591,1.591,13.368,49.726,40.306,5.102,12.705,10.973,-5.656,10.715,8.122,7.109,11.083,8.385
Thu Dec 05 12:38:23 2024,645,-22.475,-22.475,1.606,1.606,14.594,53.837,48.668,5.569,12.864,10.983,-5.560,10.871,8.004,7.070,11.261,8.055
Thu Dec 05 12:38:23 2024,650,-22.634,-22.634,1.351,1.351,16.280,60.401,64.596,5.653,13.458,11.111,-5.176,11.995,7.890,7.144,11.397,7.333
Thu Dec 05 12:38:23 2024,655,-22.718,-22.718,-1.150,1.150,17.115,64.715,75.403,5.801,13.843,11.191,-4.786,12.958,7.688,7.295,11.423,6.737
Thu Dec 05 12:38:23 2024,660,-22.679,-22.679,-0.988,0.988,16.485,66.099,79.097,6.068,13.829,11.215,-4.308,13.900,7.289,7.599,11.280,6.192
Thu Dec 05 12:38:23 2024,665,-22.584,-22.584,-0.843,0.843,16.048,68.065,83.160,6.413,13.539,11.289,-3.851,14.838,6.899,7.937,11.132,5.704
Thu Dec 05 12:38:23 2024,670,-22.268,-22.268,-0.813,0.813,16.744,71.513,86.838,6.882,27.242,11.563,-3.730,15.295,6.748,8.241,11.063,5.709
Thu Dec 05 12:38:23 2024,675,-21.951,-21.951,-0.842,0.842,17.682,74.984,90.438,7.347,28.070,11.954,-3.686,15.478,6.708,8.352,11.028,5.794
Thu Dec 05 12:38:23 2024,680,-21.659,-21.659,-0.890,0.890,18.698,78.173,93.722,7.793,28.746,12.402,-3.705,15.450,6.762,8.301,11.038,5.938
Thu Dec 05 12:38:23 2024,685,-21.358,-21.358,-0.949,0.949,20.062,81.493,96.591,8.310,29.412,12.969,-3.713,15.387,6.977,8.043,11.149,6.157
Thu Dec 05 12:38:23 2024,690,-21.178,-21.178,-0.972,0.972,20.924,83.218,97.522,8.664,29.917,13.277,-3.593,15.665,7.251,7.771,11.361,6.291
Thu Dec 05 12:38:23 2024,695,-20.981,-20.981,-0.992,0.992,21.926,85.020,98.197,9.072,30.522,13.609,-3.411,16.089,7.622,7.420,11.655,6.441
Thu Dec 05 12:38:23 2024,700,-20.916,-20.916,-1.100,1.100,22.562,86.623,99.041,9.230,31.167,14.001,-3.139,16.608,7.946,6.953,12.110,6.616
Thu Dec 05 12:38:23 2024,705,-20.884,-20.884,-1.203,1.203,23.006,87.796,99.672,9.314,31.667,14.302,-2.926,16.980,8.182,6.589,12.468,6.749
Thu Dec 05 12:38:23 2024,710,-20.805,-20.805,-1.362,1.362,23.737,88.863,100.030,9.522,32.395,14.691,-2.728,20.782,8.379,6.250,12.790,6.807
Thu Dec 05 12:38:23 2024,715,-20.723,-20.723,-1.533,1.533,24.500,89.825,100.254,9.742,33.146,15.076,-2.562,22.570,8.565,5.913,13.122,6.852
Thu Dec 05 12:38:23 2024,720,-20.677,-20.677,-1.688,1.688,25.073,90.472,100.229,9.871,33.721,15.347,-2.514,22.563,8.743,5.560,13.530,6.923
Thu Dec 05 12:38:23 2024,725,-20.658,-20.658,-1.862,1.862,25.633,90.960,100.048,9.933,34.206,15.561,-2.561,22.764,8.910,5.145,14.029,6.996
Thu Dec 05 12:38:23 2024,730,-20.657,-20.657,-2.045,2.045,26.278,91.344,99.894,9.948,34.548,15.731,-2.650,22.972,8.984,4.754,14.444,6.999
Thu Dec 05 12:38:23 2024,735,-20.673,-20.673,-2.250,2.250,27.066,91.646,99.754,9.915,34.771,15.867,-2.789,23.176,8.968,4.359,14.795,6.930
Thu Dec 05 12:38:23 2024,740,-20.657,-20.657,-2.419,2.419,27.804,92.066,99.626,9.895,35.012,15.989,-2.833,23.361,9.057,4.017,15.138,6.910
Thu Dec 05 12:38:23 2024,745,-20.613,-20.613,-2.508,2.508,28.300,92.491,99.546,9.892,35.208,16.066,-2.772,23.491,9.229,3.818,15.383,6.943
Thu Dec 05 12:38:23 2024,750,-20.611,-20.611,-2.614,2.614,28.845,92.874,99.538,9.918,35.386,16.128,-2.786,23.692,9.327,3.667,15.589,6.968
Thu Dec 05 12:38:23 2024,755,-20.640,-20.640,-2.719,2.719,29.351,93.171,99.591,9.964,35.524,16.169,-2.857,23.908,9.352,3.576,15.737,6.982
Thu Dec 05 12:38:23 2024,760,-20.670,-20.670,-2.812,2.812,29.795,93.421,99.644,10.007,35.640,16.203,-2.928,24.103,9.364,3.504,15.858,6.993
Thu Dec 05 12:38:23 2024,765,-20.690,-20.690,-2.872,2.872,30.084,93.583,99.679,10.035,35.714,16.225,-2.973,24.230,9.372,3.459,15.936,7.000
Thu Dec 05 12:38:23 2024,770,-20.479,-20.479,-2.827,2.827,30.619,93.725,99.503,10.062,35.991,16.311,-2.891,24.039,9.332,3.532,15.911,7.047
Thu Dec 05 12:38:23 2024,775,-20.406,-20.406,-2.845,2.845,31.012,93.880,99.445,10.088,36.148,16.359,-2.885,24.037,9.321,3.534,15.945,7.070
Thu Dec 05 12:38:23 2024,780,-20.342,-20.342,-2.872,2.872,31.436,94.062,99.356,10.121,36.316,16.412,-2.879,24.048,9.318,3.535,15.990,7.102
Thu Dec 05 12:38:23 2024,785,-20.388,-20.388,-2.958,2.958,31.846,94.347,99.097,10.192,36.464,16.470,-2.877,24.156,9.392,3.526,16.087,7.190
Thu Dec 05 12:38:23 2024,790,-20.428,-20.428,-3.006,3.006,32.151,94.520,98.901,10.248,36.597,16.524,-2.883,24.242,9.447,3.530,16.142,7.252
Thu Dec 05 12:38:23 2024,795,-20.465,-20.465,-2.958,2.958,32.303,94.430,98.804,10.289,36.759,16.594,-2.916,24.295,9.478,3.589,16.104,7.272
Thu Dec 05 12:38:23 2024,800,-20.509,-20.509,-2.912,2.912,32.446,94.362,98.702,10.318,36.900,16.646,-2.945,24.349,9.498,3.637,16.077,7.288
Thu Dec 05 12:38:23 2024,805,-20.585,-20.585,-2.893,2.893,32.521,94.453,98.574,10.268,36.887,16.578,-2.947,24.405,9.452,3.609,16.121,7.276
Thu Dec 05 12:38:23 2024,810,-20.649,-20.649,-2.872,2.872,32.560,94.534,98.452,10.211,36.868,16.510,-2.943,24.461,9.404,3.577,16.171,7.260
Thu Dec 05 12:38:23 2024,815,-20.622,-20.622,-2.793,2.793,32.388,94.404,98.359,10.156,36.913,16.524,-2.929,24.530,9.387,3.563,16.205,7.223
Thu Dec 05 12:38:23 2024,820,-20.578,-20.578,-2.708,2.708,32.172,94.242,98.279,10.106,36.973,16.554,-2.910,24.605,9.388,3.554,16.229,7.190
Thu Dec 05 12:38:23 2024,825,-20.576,-20.576,-2.678,2.678,31.928,94.170,98.249,10.098,37.037,16.583,-2.858,24.717,9.500,3.554,16.208,7.230
Thu Dec 05 12:38:23 2024,830,-20.592,-20.592,-2.670,2.670,31.652,94.134,98.238,10.105,37.109,16.612,-2.787,24.860,9.670,3.558,16.163,7.306
Thu Dec 05 12:38:23 2024,835,-20.599,-20.599,-2.728,2.728,31.867,94.160,98.242,10.157,37.103,16.595,-2.777,24.820,9.606,3.526,16.147,7.211
Thu Dec 05 12:38:23 2024,840,-20.600,-20.600,-2.809,2.809,32.277,94.211,98.254,10.224,37.064,16.559,-2.794,24.707,9.448,3.480,16.142,7.051
Thu Dec 05 12:38:23 2024,845,-20.572,-20.572,-2.800,2.800,32.289,94.238,98.325,10.184,37.014,16.571,-2.770,24.681,9.503,3.499,16.080,7.091
Thu Dec 05 12:38:23 2024,850,-20.538,-20.538,-2.751,2.751,32.124,94.250,98.407,10.107,36.969,16.600,-2.733,24.698,9.640,3.544,16.005,7.210
Thu Dec 05 12:38:23 2024,855,-20.486,-20.486,-2.696,2.696,31.986,94.267,98.474,10.073,36.933,16.608,-2.706,24.708,9.703,3.629,15.931,7.285
Thu Dec 05 12:38:23 2024,860,-20.406,-20.406,-2.627,2.627,31.871,94.291,98.530,10.090,36.905,16.588,-2.689,24.708,9.681,3.769,15.846,7.315
Thu Dec 05 12:38:23 2024,865,-20.352,-20.352,-2.617,2.617,31.730,94.138,98.565,10.144,36.874,16.562,-2.620,24.684,9.670,3.910,15.720,7.344
Thu Dec 05 12:38:23 2024,870,-20.322,-20.322,-2.665,2.665,31.557,93.798,98.577,10.238,36.838,16.526,-2.494,24.636,9.672,4.060,15.546,7.374
Thu Dec 05 12:38:23 2024,875,-20.331,-20.331,-2.702,2.702,31.324,93.499,98.646,10.287,36.752,16.468,-2.397,24.622,9.692,4.222,15.366,7.411
Thu Dec 05 12:38:23 2024,880,-20.392,-20.392,-2.710,2.710,31.086,93.376,98.774,10.250,36.620,16.399,-2.378,24.662,9.733,4.338,15.244,7.445
Thu Dec 05 12:38:23 2024,885,-20.442,-20.442,-2.675,2.675,30.619,93.123,98.919,10.207,36.466,16.318,-2.317,24.647,9.752,4.521,15.058,7.485
Thu Dec 05 12:38:23 2024,890,-20.440,-20.440,-2.532,2.532,29.706,92.608,99.036,10.166,36.318,16.241,-2.164,24.484,9.702,4.818,14.774,7.524
Thu Dec 05 12:38:23 2024,895,-20.438,-20.438,-2.399,2.399,28.788,92.080,99.090,10.108,36.135,16.136,-2.035,24.338,9.648,5.092,14.514,7.567
Thu Dec 05 12:38:23 2024,900,-20.443,-20.443,-2.279,2.279,27.740,91.458,99.000,9.997,35.815,15.930,-1.966,24.232,9.586,5.347,14.287,7.639
Thu Dec 05 12:38:23 2024,905,-20.450,-20.450,-2.129,2.129,26.565,90.719,98.900,9.854,35.420,15.686,-1.886,24.120,9.511,5.647,14.015,7.700
Thu Dec 05 12:38:23 2024,910,-20.464,-20.464,-1.916,1.916,25.792,89.974,99.081,9.679,34.980,15.506,-1.769,24.066,9.422,5.958,13.698,7.560
Thu Dec 05 12:38:23 2024,915,-20.492,-20.492,-1.767,1.767,25.030,89.143,99.089,9.531,34.533,15.335,-1.647,23.974,9.339,6.256,13.404,7.423
Thu Dec 05 12:38:23 2024,920,-20.523,-20.523,-1.628,1.628,24.249,88.262,99.047,9.385,34.070,15.162,-1.521,23.866,9.256,6.560,13.106,7.282
Thu Dec 05 12:38:23 2024,925,-20.569,-20.569,-1.536,1.536,23.367,87.095,98.754,9.247,33.525,14.965,-1.383,23.691,9.161,6.887,12.794,7.129
Thu Dec 05 12:38:23 2024,930,-20.610,-20.610,-1.428,1.428,22.240,85.246,98.167,9.090,32.834,14.662,-1.282,23.449,9.018,7.231,12.473,6.960
Thu Dec 05 12:38:23 2024,935,-20.656,-20.656,-1.333,1.333,21.174,83.393,97.474,8.936,32.178,14.367,-1.192,23.217,8.876,7.554,12.171,6.797
Thu Dec 05 12:38:23 2024,940,-20.748,-20.748,-1.294,1.294,19.983,81.156,95.873,8.809,31.730,14.146,-1.020,23.110,8.749,7.826,11.929,6.581
Thu Dec 05 12:38:23 2024,945,-20.880,-20.880,-1.264,1.264,18.612,78.350,93.412,8.654,31.248,13.906,-0.784,23.030,8.596,8.147,11.644,6.299
Thu Dec 05 12:38:23 2024,950,-21.069,-21.069,-1.201,1.201,17.407,74.840,89.605,8.371,30.399,13.663,-0.601,22.739,8.631,8.195,11.567,6.086
Thu Dec 05 12:38:23 2024,955,-21.250,-21.250,-1.146,1.146,16.550,71.720,85.901,8.076,29.586,13.468,-0.469,22.420,8.721,8.142,11.570,5.930
Thu Dec 05 12:38:23 2024,960,-21.352,-21.352,-1.160,1.160,15.957,69.974,81.032,7.792,28.840,13.176,-0.404,22.051,8.823,8.032,11.667,5.882
Thu Dec 05 12:38:23 2024,965,-21.385,-21.385,-1.212,1.212,15.652,69.479,77.072,7.613,28.380,12.922,-0.392,21.773,8.900,7.926,11.784,5.907
Thu Dec 05 12:38:23 2024,970,-21.245,-21.245,-1.204,1.204,14.358,65.499,65.764,7.134,27.526,12.682,-0.782,21.085,8.883,7.581,12.042,6.020
Thu Dec 05 12:38:23 2024,975,-21.019,-21.019,-1.139,1.139,12.736,59.296,50.902,6.466,13.456,12.475,-1.458,18.277,8.795,7.074,12.340,6.205
Thu Dec 05 12:38:23 2024,980,-20.787,-20.787,-0.957,0.957,11.104,53.633,40.521,5.589,14.378,12.299,-1.877,17.044,8.778,6.818,12.469,6.698
Thu Dec 05 12:38:23 2024,985,-20.563,-20.563,-0.747,0.747,9.615,49.034,33.765,4.668,14.846,12.168,-2.011,16.218,8.820,6.812,12.484,7.380
Thu Dec 05 12:38:23 2024,990,-20.443,-20.443,-0.697,0.697,8.305,44.642,27.871,3.804,14.792,11.885,-1.982,15.639,8.778,6.798,12.518,7.704
Thu Dec 05 12:38:23 2024,995,-20.456,-20.456,-0.781,0.781,7.244,41.080,23.153,3.109,14.515,11.441,-1.734,15.524,8.614,6.781,12.571,7.458
Thu Dec 05 12:38:24 2024,0,-20.511,-20.511,-0.844,0.844,6.193,37.838,19.160,2.534,14.182,10.955,-1.441,15.443,8.439,6.844,12.572,7.223
Thu Dec 05 12:38:24 2024,5,-20.684,-20.684,-0.852,0.852,5.085,35.298,16.151,2.290,14.198,10.375,-1.030,15.469,8.224,7.122,12.421,6.990
Thu Dec 05 12:38:24 2024,10,-20.870,-20.870,-0.855,0.855,3.995,32.784,13.412,2.057,14.125,9.804,-0.638,15.394,8.003,7.401,12.227,6.747
Thu Dec 05 12:38:24 2024,15,-21.095,-21.095,-0.821,0.821,3.097,30.476,11.652,1.891,13.691,9.324,-0.390,15.035,7.780,7.646,11.942,6.446
Thu Dec 05 12:38:24 2024,20,-21.306,-21.306,-0.802,0.802,2.263,28.437,10.209,1.732,13.215,8.862,-0.178,14.666,7.570,7.886,11.664,6.202
Thu Dec 05 12:38:24 2024,25,-21.500,-21.500,-0.849,0.849,1.465,26.673,9.134,1.552,12.494,8.285,0.131,14.262,7.364,8.208,11.339,6.139
Thu Dec 05 12:38:24 2024,30,-21.659,-21.659,-0.907,0.907,0.810,25.292,8.321,1.399,11.873,7.805,0.317,13.920,7.194,8.478,11.067,6.104
Thu Dec 05 12:38:24 2024,35,-21.796,-21.796,-0.966,0.966,0.182,24.082,7.779,1.367,11.619,7.487,0.590,13.687,6.968,8.624,10.823,5.844
Thu Dec 05 12:38:24 2024,40,-21.937,-21.937,-1.026,1.026,-0.468,23.004,7.290,1.346,11.422,7.193,0.883,13.454,6.735,8.759,10.573,5.562
Thu Dec 05 12:38:24 2024,45,-22.053,-22.053,-1.041,1.041,-1.112,22.448,7.062,1.327,11.582,7.125,1.230,13.302,6.572,8.926,10.339,5.346
Thu Dec 05 12:38:24 2024,50,-22.134,-22.134,-1.043,1.043,-1.570,22.307,6.947,1.314,11.756,7.116,1.485,13.200,6.468,9.049,10.177,5.205
Thu Dec 05 12:38:24 2024,55,-22.188,-22.188,-1.046,1.046,-2.073,22.377,6.770,1.362,12.099,7.142,1.835,13.248,6.360,9.294,9.946,5.070
Thu Dec 05 12:38:24 2024,60,-22.219,-22.219,-1.062,1.062,-2.424,22.554,6.629,1.423,12.386,7.170,2.105,13.322,6.284,9.486,9.769,4.975
Thu Dec 05 12:38:24 2024,65,-22.309,-22.309,-1.146,1.146,-2.739,22.768,6.514,1.466,12.541,7.164,2.319,13.272,6.194,9.513,9.665,4.846
Thu Dec 05 12:38:24 2024,70,-22.414,-22.414,1.256,1.256,-2.960,22.963,6.441,1.488,12.577,7.137,2.452,13.157,6.115,9.428,9.624,4.724
Thu Dec 05 12:38:24 2024,75,-22.499,-22.499,1.314,1.314,-3.186,23.184,6.422,1.604,12.766,7.187,2.628,13.196,6.092,9.434,9.586,4.629
Thu Dec 05 12:38:24 2024,80,-22.566,-22.566,1.323,1.323,-3.416,23.415,6.454,1.814,13.095,7.312,2.850,13.373,6.125,9.531,9.555,4.555
Thu Dec 05 12:38:24 2024,85,-22.612,-22.612,1.356,1.356,-3.654,23.653,6.380,1.998,13.340,7.366,3.052,13.446,6.097,9.508,9.584,4.454
Thu Dec 05 12:38:24 2024,90,-22.637,-22.637,1.402,1.402,-3.871,23.881,6.237,2.141,13.496,7.361,3.215,13.437,6.027,9.396,9.656,4.345
Thu Dec 05 12:38:24 2024,95,-22.678,-22.678,1.448,1.448,-4.134,24.169,6.142,2.298,13.632,7.371,3.376,13.421,5.982,9.314,9.705,4.271
Thu Dec 05 12:38:24 2024,100,-22.727,-22.727,1.474,1.474,-4.360,24.414,6.153,2.413,13.690,7.399,3.470,13.405,5.992,9.307,9.700,4.278
Thu Dec 05 12:38:24 2024,105,-22.778,-22.778,1.520,1.520,-4.593,21.504,6.137,2.518,13.713,7.401,3.583,13.362,5.978,9.297,9.702,4.261
Thu Dec 05 12:38:24 2024,110,-22.824,-22.824,1.593,1.593,-4.802,15.036,6.075,2.586,13.680,7.358,3.710,13.281,5.930,9.282,9.712,4.206
Thu Dec 05 12:38:24 2024,115,-22.862,-22.862,1.633,1.633,-5.015,14.746,6.014,2.628,13.645,7.297,3.830,13.198,5.876,9.268,9.726,4.156
Thu Dec 05 12:38:24 2024,120,-22.875,-22.875,1.584,1.584,-5.258,14.424,5.947,2.604,13.602,7.184,3.950,13.104,5.802,9.252,9.749,4.114
Thu Dec 05 12:38:24 2024,125,-22.891,-22.891,1.541,1.541,-5.504,14.087,5.875,2.588,13.527,7.059,4.092,12.977,5.723,9.246,9.755,4.070
Thu Dec 05 12:38:24 2024,130,-22.907,-22.907,1.558,1.558,-5.644,13.862,5.822,2.626,13.369,6.958,4.250,12.785,5.669,9.281,9.695,4.041
Thu Dec 05 12:38:24 2024,135,-22.914,-22.914,1.568,1.568,-5.764,13.664,5.776,2.648,13.222,6.866,4.406,12.625,5.630,9.334,9.628,4.008
Thu Dec 05 12:38:24 2024,140,-22.890,-22.890,1.543,1.543,-5.843,13.542,5.747,2.601,13.143,6.800,4.545,12.598,5.639,9.434,9.553,3.958
Thu Dec 05 12:38:24 2024,145,-22.861,-22.861,1.515,1.515,-5.911,13.433,5.719,2.532,13.067,6.728,4.681,12.600,5.659,9.541,9.481,3.910
Thu Dec 05 12:38:24 2024,150,-22.852,-22.852,1.560,1.560,-5.935,13.346,5.679,2.460,12.941,6.616,4.748,12.607,5.656,9.567,9.497,3.949
Thu Dec 05 12:38:24 2024,155,-22.842,-22.842,1.617,1.617,-5.962,13.250,5.636,2.390,12.798,6.495,4.802,12.619,5.654,9.578,9.529,4.009
Thu Dec 05 12:38:24 2024,160,-22.799,-22.799,1.636,1.636,-6.036,13.131,5.615,2.372,12.690,6.436,4.820,12.652,5.686,9.588,9.565,4.073
Thu Dec 05 12:38:24 2024,165,-22.734,-22.734,1.635,1.635,-6.142,12.996,5.609,2.386,12.599,6.412,4.815,12.699,5.739,9.596,9.603,4.142
Thu Dec 05 12:38:24 2024,170,-22.739,-22.739,1.654,1.654,-6.171,12.971,5.626,2.424,12.564,6.421,4.869,12.710,5.762,9.647,9.543,4.121
Thu Dec 05 12:38:24 2024,175,-22.770,-22.770,1.682,1.682,-6.180,12.980,5.655,2.478,12.540,6.441,4.950,12.710,5.777,9.724,9.439,4.067
Thu Dec 05 12:38:24 2024,180,-22.812,-22.812,1.667,1.667,-6.183,12.987,5.659,2.524,12.515,6.444,4.979,12.702,5.779,9.785,9.365,4.048
Thu Dec 05 12:38:24 2024,185,-22.878,-22.878,1.615,1.615,-6.184,12.994,5.646,2.584,12.480,6.435,4.981,12.688,5.771,9.859,9.285,4.047
Thu Dec 05 12:38:24 2024,190,-22.890,-22.890,1.626,1.626,-6.133,13.077,5.666,2.677,12.448,6.452,5.026,12.642,5.780,9.950,9.207,4.065
Thu Dec 05 12:38:24 2024,195,-22.868,-22.868,1.683,1.683,-6.032,13.236,5.714,2.820,12.406,6.492,5.115,12.561,5.801,10.076,9.111,4.101
Thu Dec 05 12:38:24 2024,200,-22.896,-22.896,1.736,1.736,-6.013,13.236,5.738,2.861,12.357,6.521,5.153,12.477,5.799,10.122,9.034,4.068
Thu Dec 05 12:38:24 2024,205,-22.952,-22.952,1.776,1.776,-6.050,13.136,5.744,2.833,12.309,6.537,5.152,12.401,5.782,10.112,8.977,3.995
Thu Dec 05 12:38:24 2024,210,-23.018,-23.018,1.799,1.799,-6.121,12.979,5.753,2.837,12.257,6.532,5.216,12.330,5.770,10.172,8.880,3.941
Thu Dec 05 12:38:24 2024,215,-23.060,-23.060,1.772,1.772,-6.210,12.822,5.763,2.903,12.233,6.488,5.364,12.316,5.776,10.335,8.770,3.960
Thu Dec 05 12:38:24 2024,220,-23.082,-23.082,1.763,1.763,-6.319,12.605,5.722,2.989,12.233,6.446,5.512,12.272,5.752,10.477,8.655,3.953
Thu Dec 05 12:38:24 2024,225,-23.047,-23.047,1.804,1.804,-6.475,12.242,5.547,3.124,12.297,6.414,5.643,12.164,5.650,10.551,8.540,3.873
Thu Dec 05 12:38:24 2024,230,-23.019,-23.019,1.831,1.831,-6.607,11.927,5.420,3.241,12.326,6.382,5.747,12.075,5.571,10.622,8.439,3.819
Thu Dec 05 12:38:24 2024,235,-22.994,-22.994,1.843,1.843,-6.785,11.467,5.342,3.414,12.258,6.320,5.865,11.959,5.500,10.755,8.281,3.799
Thu Dec 05 12:38:24 2024,240,-22.976,-22.976,1.848,1.848,-6.916,11.120,5.292,3.542,12.196,6.272,5.948,11.875,5.451,10.856,8.164,3.790
Thu Dec 05 12:38:24 2024,245,-23.015,-23.015,1.936,1.936,-6.998,11.059,5.285,3.951,12.627,6.444,6.117,11.840,5.381,11.172,7.939,3.812
Thu Dec 05 12:38:24 2024,250,-23.048,-23.048,2.026,2.026,-7.065,11.008,5.278,4.304,12.940,6.595,6.240,11.807,5.318,11.394,7.770,3.819
Thu Dec 05 12:38:24 2024,255,-23.075,-23.075,2.276,2.276,-7.162,10.848,5.252,4.868,13.204,6.852,6.283,11.734,5.198,11.384,7.711,3.732
Thu Dec 05 12:38:24 2024,260,-23.101,-23.101,2.573,2.573,-7.272,10.657,5.221,5.501,13.325,7.133,6.314,11.648,5.060,11.327,7.664,3.622
Thu Dec 05 12:38:24 2024,265,-23.148,-23.148,2.801,2.801,-7.294,10.632,5.125,6.271,13.230,7.501,6.262,11.614,4.968,11.384,7.561,3.577
Thu Dec 05 12:38:24 2024,270,-23.189,-23.189,2.996,2.996,-7.308,10.619,5.037,6.943,12.904,7.816,6.212,11.587,4.891,11.439,7.467,3.540
Thu Dec 05 12:38:24 2024,275,-23.267,-23.267,3.177,3.177,-7.388,10.537,5.000,7.974,12.011,8.523,6.073,11.693,4.838,11.451,7.343,3.359
Thu Dec 05 12:38:24 2024,280,-23.344,-23.344,3.310,3.310,-7.480,10.442,4.992,8.921,10.845,9.232,5.928,11.831,4.809,11.439,7.230,3.154
Thu Dec 05 12:38:24 2024,285,-23.352,-23.352,3.491,3.491,-7.585,10.380,5.024,9.814,30.626,10.258,5.816,12.208,4.979,11.436,7.081,2.903
Thu Dec 05 12:38:24 2024,290,-23.335,-23.335,3.660,3.660,-7.679,10.340,5.066,10.534,32.081,11.232,5.735,12.601,5.196,11.436,6.939,2.682
Thu Dec 05 12:38:24 2024,295,-23.340,-23.340,3.854,3.854,-7.656,10.378,5.173,11.224,33.713,12.453,5.717,13.137,5.601,11.517,6.711,2.476
Thu Dec 05 12:38:24 2024,300,-23.356,-23.356,3.979,3.979,-7.569,10.450,5.275,11.598,34.746,13.300,5.744,13.489,5.952,11.615,6.526,2.374
Thu Dec 05 12:38:24 2024,305,-23.340,-23.340,4.062,4.062,-7.478,10.454,5.411,11.980,35.738,14.175,5.679,13.939,6.374,11.788,6.194,2.275
Thu Dec 05 12:38:24 2024,310,-23.294,-23.294,4.076,4.076,-7.405,10.379,5.544,12.277,36.404,14.863,5.531,14.336,6.755,11.995,5.787,2.204
Thu Dec 05 12:38:24 2024,315,-23.275,-23.275,4.099,4.099,-7.334,10.323,5.709,12.577,37.092,15.650,5.315,14.679,7.219,12.355,5.317,2.200
Thu Dec 05 12:38:24 2024,320,-23.292,-23.292,4.127,4.127,-7.276,10.298,5.885,12.840,37.710,16.440,5.049,14.873,7.713,12.838,4.843,2.270
Thu Dec 05 12:38:24 2024,325,-23.308,-23.308,4.181,4.181,-7.194,10.257,6.042,13.170,38.488,17.497,4.758,25.108,8.184,13.344,4.307,2.315
Thu Dec 05 12:38:24 2024,330,-23.319,-23.319,4.247,4.247,-7.112,10.209,6.113,13.464,39.177,18.505,4.548,25.179,8.448,13.681,3.902,2.324
Thu Dec 05 12:38:24 2024,335,-23.321,-23.321,4.337,4.337,-6.949,10.127,6.184,13.882,40.101,20.106,4.335,25.541,8.820,14.124,3.418,2.365
Thu Dec 05 12:38:24 2024,340,-23.285,-23.285,4.440,4.440,-6.640,9.993,6.209,14.410,41.113,22.499,4.276,26.392,9.279,14.586,3.033,2.414
Thu Dec 05 12:38:24 2024,345,-23.265,-23.265,4.532,4.532,-6.377,9.757,6.169,14.955,42.182,24.925,4.243,27.278,9.689,15.029,2.674,2.425
Thu Dec 05 12:38:24 2024,350,-23.367,-23.367,4.576,4.576,-6.377,8.611,5.610,15.874,44.190,28.706,4.430,28.586,9.892,15.508,2.365,2.149
Thu Dec 05 12:38:24 2024,355,-23.459,-23.459,4.627,4.627,-6.363,7.517,5.105,16.699,45.769,31.825,4.563,30.107,9.938,15.929,2.119,1.944
Thu Dec 05 12:38:24 2024,360,-23.495,-23.495,4.709,4.709,-6.338,6.923,4.612,16.979,45.112,30.769,4.499,32.202,9.330,16.047,2.193,2.001
Thu Dec 05 12:38:24 2024,365,-23.566,-23.566,4.840,4.840,-6.320,6.405,4.208,17.516,44.350,29.147,4.297,34.206,8.759,16.081,2.296,2.078
Thu Dec 05 12:38:24 2024,370,-23.862,-23.862,5.361,5.361,-6.460,6.726,4.686,19.657,43.107,24.882,3.375,34.735,9.012,15.381,2.658,2.210
Thu Dec 05 12:38:24 2024,375,-24.137,-24.137,5.839,5.839,-6.588,7.084,5.209,21.516,19.960,20.873,2.538,35.067,9.346,14.702,2.956,2.316
Thu Dec 05 12:38:24 2024,380,-24.379,-24.379,6.218,6.218,-6.184,7.949,5.642,21.963,-3.067,20.928,2.555,36.100,10.381,14.342,3.072,2.230
Thu Dec 05 12:38:24 2024,385,-24.641,-24.641,6.608,6.608,-5.622,9.001,6.092,22.154,-3.252,21.896,2.777,37.387,11.734,14.011,3.159,2.182
Thu Dec 05 12:38:24 2024,390,-24.734,-24.734,6.610,6.610,-5.130,9.823,6.320,22.422,44.114,24.042,2.894,38.031,13.033,14.331,2.823,2.078
Thu Dec 05 12:38:24 2024,395,-24.773,-24.773,6.486,6.486,-4.656,10.590,6.486,22.714,45.400,26.888,2.976,38.483,14.394,14.874,2.335,1.946
Thu Dec 05 12:38:24 2024,400,-24.855,-24.855,6.421,6.421,-4.271,11.020,6.727,23.372,47.024,29.539,3.163,38.743,15.763,15.453,1.836,1.972
Thu Dec 05 12:38:24 2024,405,-24.952,-24.952,6.386,6.386,-3.946,11.273,6.989,24.152,48.701,32.008,3.389,38.909,17.086,16.015,1.360,2.246
Thu Dec 05 12:38:24 2024,410,-25.107,-25.107,6.480,6.480,-3.813,11.262,7.173,24.675,49.767,33.440,3.567,39.145,18.200,16.485,1.098,2.815
Thu Dec 05 12:38:24 2024,415,-25.272,-25.272,6.625,6.625,-3.792,11.124,7.292,24.992,50.360,34.121,3.698,39.387,19.056,16.841,0.975,3.464
Thu Dec 05 12:38:24 2024,420,-25.381,-25.381,6.729,6.729,-3.756,10.981,7.398,25.307,50.812,34.479,3.846,39.550,19.616,17.159,0.833,3.942
Thu Dec 05 12:38:24 2024,425,-25.439,-25.439,6.794,6.794,-3.699,10.821,7.498,25.645,51.143,34.501,4.023,39.634,19.875,17.462,0.663,4.229
Thu Dec 05 12:38:24 2024,430,-25.507,-25.507,6.913,6.913,-3.589,10.624,7.582,25.990,51.407,34.438,4.142,39.633,20.120,17.651,0.573,4.566
Thu Dec 05 12:38:24 2024,435,-25.592,-25.592,7.116,7.116,-3.395,10.370,7.640,26.341,51.564,34.239,4.165,39.490,20.335,17.647,0.625,4.970
Thu Dec 05 12:38:24 2024,440,-25.674,-25.674,7.348,7.348,-3.137,10.231,7.753,26.711,51.789,34.209,4.123,39.347,20.523,17.609,0.591,5.142
Thu Dec 05 12:38:24 2024,445,-25.743,-25.743,7.627,7.627,-2.760,10.351,7.979,27.101,52.137,34.545,3.944,39.211,20.644,17.502,0.354,4.796
Thu Dec 05 12:38:24 2024,450,-25.807,-25.807,7.852,7.852,-2.350,10.563,8.274,27.436,52.576,35.271,3.796,39.299,20.968,17.409,0.141,4.501
Thu Dec 05 12:38:24 2024,455,-25.839,-25.839,7.897,7.897,-2.011,10.907,8.608,27.556,53.055,36.539,3.754,39.794,21.590,17.379,0.088,4.389
Thu Dec 05 12:38:24 2024,460,-25.871,-25.871,7.959,7.959,-1.525,11.380,9.009,27.661,53.659,38.213,3.725,40.475,22.477,17.311,0.106,4.408
Thu Dec 05 12:38:24 2024,465,-25.853,-25.853,8.045,8.045,-0.758,12.041,9.271,27.507,54.159,40.028,3.827,41.401,23.803,17.104,0.577,5.286
Thu Dec 05 12:38:24 2024,470,-25.843,-25.843,8.143,8.143,0.216,12.784,9.595,27.321,54.850,42.425,3.958,42.596,25.527,16.848,1.122,6.324
Thu Dec 05 12:38:24 2024,475,-25.893,-25.893,8.167,8.167,0.537,13.280,9.791,27.304,55.677,44.853,4.130,43.715,26.887,16.645,1.429,6.811
Thu Dec 05 12:38:24 2024,480,-25.948,-25.948,8.194,8.194,0.929,13.795,10.004,27.283,56.628,47.698,4.323,44.955,28.496,16.428,1.759,7.353
Thu Dec 05 12:38:24 2024,485,-25.962,-25.962,8.236,8.236,1.285,14.500,10.204,27.236,57.863,50.129,4.553,46.259,30.131,16.288,2.125,7.966
Thu Dec 05 12:38:24 2024,490,-25.968,-25.968,8.273,8.273,1.576,15.091,10.374,27.189,58.985,52.176,4.756,47.383,31.602,16.181,2.430,8.498
Thu Dec 05 12:38:24 2024,495,-26.036,-26.036,8.214,8.214,1.819,15.488,10.447,27.360,59.902,53.464,4.900,48.092,32.396,16.094,2.614,8.576
Thu Dec 05 12:38:24 2024,500,-26.103,-26.103,8.149,8.149,2.030,15.783,10.498,27.549,60.688,54.507,5.021,48.660,33.024,16.022,2.759,8.580
Thu Dec 05 12:38:24 2024,505,-26.141,-26.141,8.106,8.106,2.143,15.917,10.585,27.484,61.148,55.381,5.102,49.104,33.509,16.094,2.801,8.727
Thu Dec 05 12:38:24 2024,510,-26.162,-26.162,8.081,8.081,2.200,15.974,10.660,27.360,61.400,55.984,5.152,49.401,33.828,16.190,2.798,8.881
Thu Dec 05 12:38:24 2024,515,-26.172,-26.172,8.095,8.095,2.322,16.070,10.736,27.407,61.712,56.606,5.278,49.780,34.203,16.158,2.844,8.910
Thu Dec 05 12:38:24 2024,520,-26.176,-26.176,8.131,8.131,2.488,16.176,10.816,27.550,62.077,57.299,5.455,50.230,34.648,16.057,2.917,8.876
Thu Dec 05 12:38:24 2024,525,-26.150,-26.150,8.120,8.120,2.696,16.183,10.876,27.517,62.285,57.924,5.636,50.683,35.235,15.914,3.088,9.086
Thu Dec 05 12:38:24 2024,530,-26.102,-26.102,8.081,8.081,2.982,16.127,10.940,27.377,62.466,58.681,5.871,51.266,36.068,15.711,3.354,9.487
Thu Dec 05 12:38:24 2024,535,-26.017,-26.017,8.106,8.106,3.252,16.018,10.982,27.289,62.730,59.705,6.124,51.972,37.055,15.535,3.605,9.868
Thu Dec 05 12:38:24 2024,540,-25.889,-25.889,8.205,8.205,3.491,15.875,10.996,27.266,63.083,61.033,6.388,52.801,38.206,15.396,3.829,10.215
Thu Dec 05 12:38:24 2024,545,-25.812,-25.812,8.262,8.262,3.661,15.822,10.999,27.240,63.587,62.441,6.631,53.682,39.409,15.257,4.074,10.616
Thu Dec 05 12:38:24 2024,550,-25.790,-25.790,8.266,8.266,3.782,15.903,10.982,27.197,64.640,64.678,6.955,55.102,41.304,15.047,4.474,11.331
Thu Dec 05 12:38:24 2024,555,-25.773,-25.773,8.269,8.269,3.870,15.935,10.969,27.162,65.448,66.392,7.207,56.187,42.806,14.887,4.758,11.878
Thu Dec 05 12:38:24 2024,560,-25.729,-25.729,8.270,8.270,3.993,15.960,11.087,27.194,66.854,69.185,7.497,57.643,44.837,14.780,4.958,12.224
Thu Dec 05 12:38:24 2024,565,-25.703,-25.703,8.256,8.256,4.080,15.917,11.155,27.204,67.897,71.260,7.714,58.723,46.419,14.678,5.119,12.482
Thu Dec 05 12:38:24 2024,570,-25.701,-25.701,8.167,8.167,4.161,15.833,11.168,27.173,68.957,73.449,7.878,59.730,47.994,14.502,5.325,12.571
Thu Dec 05 12:38:24 2024,575,-25.700,-25.700,8.085,8.085,4.235,15.725,11.182,27.145,69.955,75.469,8.038,60.670,49.523,14.338,5.512,12.653
Thu Dec 05 12:38:24 2024,580,-25.814,-25.814,8.121,8.121,4.336,15.540,11.292,27.392,70.724,76.677,8.110,61.458,50.716,14.276,5.602,12.728
Thu Dec 05 12:38:24 2024,585,-25.922,-25.922,8.157,8.157,4.426,24.656,11.396,27.624,71.415,77.742,8.178,62.172,51.809,14.222,5.679,12.797
Thu Dec 05 12:38:24 2024,590,-25.975,-25.975,8.141,8.141,4.393,24.697,11.381,27.782,72.090,78.684,8.179,62.841,52.799,14.151,5.757,12.852
Thu Dec 05 12:38:24 2024,595,-26.025,-26.025,8.118,8.118,4.346,24.725,11.352,27.936,72.775,79.612,8.179,63.518,53.808,14.076,5.837,12.907
Thu Dec 05 12:38:24 2024,600,-26.076,-26.076,8.139,8.139,4.217,24.597,11.339,28.124,73.206,80.403,8.173,63.820,54.605,14.034,5.877,12.903
Thu Dec 05 12:38:24 2024,605,-26.108,-26.108,8.143,8.143,4.114,24.487,11.331,28.278,73.512,80.910,8.163,64.033,55.151,14.022,5.887,12.888
Thu Dec 05 12:38:24 2024,610,-26.121,-26.121,8.110,8.110,4.018,24.368,11.330,28.436,73.758,81.138,8.136,64.213,55.478,14.063,5.847,12.846
Thu Dec 05 12:38:24 2024,615,-26.113,-26.113,8.043,8.043,3.938,24.253,11.334,28.583,73.921,81.076,8.096,64.345,55.560,14.152,5.761,12.784
Thu Dec 05 12:38:24 2024,620,-26.124,-26.124,8.022,8.022,3.786,24.066,11.332,28.525,73.913,81.189,8.030,64.509,55.721,14.241,5.672,12.816
Thu Dec 05 12:38:24 2024,625,-26.139,-26.139,8.025,8.025,3.639,23.895,11.327,28.397,73.837,81.347,7.971,64.649,55.876,14.310,5.602,12.880
Thu Dec 05 12:38:24 2024,630,-26.091,-26.091,8.024,8.024,3.456,23.602,11.289,28.500,73.756,81.103,7.876,64.559,55.680,14.451,5.453,12.794
Thu Dec 05 12:38:24 2024,635,-26.016,-26.016,8.023,8.023,3.286,16.660,11.238,28.714,73.688,80.683,7.781,64.356,55.327,14.605,5.288,12.641
Thu Dec 05 12:38:24 2024,640,-25.940,-25.940,8.055,8.055,3.139,16.853,11.195,28.888,73.485,80.384,7.749,64.084,55.021,14.717,5.166,12.472
Thu Dec 05 12:38:24 2024,645,-25.876,-25.876,8.105,8.105,3.030,16.970,11.166,29.005,73.225,80.212,7.765,63.813,54.796,14.782,5.093,12.320
Thu Dec 05 12:38:24 2024,650,-25.791,-25.791,8.130,8.130,2.945,17.052,11.137,28.997,72.919,79.840,7.706,63.515,54.370,14.844,5.009,12.084
Thu Dec 05 12:38:24 2024,655,-25.686,-25.686,8.117,8.117,2.906,17.084,11.109,28.817,72.583,79.237,7.547,63.213,53.715,14.897,4.916,11.761
Thu Dec 05 12:38:24 2024,660,-25.574,-25.574,8.111,8.111,2.862,17.104,11.070,28.696,72.242,78.622,7.350,62.891,53.125,14.903,4.870,11.525
Thu Dec 05 12:38:24 2024,665,-25.462,-25.462,8.114,8.114,2.814,17.095,11.018,28.658,71.916,78.037,7.113,62.562,52.659,14.849,4.895,11.418
Thu Dec 05 12:38:24 2024,670,-25.383,-25.383,8.140,8.140,2.772,17.060,10.964,28.617,71.608,77.473,6.855,62.207,52.186,14.836,4.860,11.181
Thu Dec 05 12:38:24 2024,675,-25.377,-25.377,8.211,8.211,2.742,17.016,10.908,28.573,71.348,76.993,6.564,61.818,51.721,14.906,4.706,10.692
Thu Dec 05 12:38:24 2024,680,-25.376,-25.376,8.284,8.284,2.712,16.961,10.852,28.529,71.092,76.517,6.278,61.430,51.255,14.979,4.538,10.200
Thu Dec 05 12:38:24 2024,685,-25.217,-25.217,8.196,8.196,2.548,17.004,10.864,27.958,70.865,76.338,5.917,60.938,50.769,15.063,4.390,10.058
Thu Dec 05 12:38:24 2024,690,-25.086,-25.086,8.131,8.131,2.409,17.011,10.867,27.477,70.647,76.130,5.600,60.488,50.316,15.142,4.243,9.892
Thu Dec 05 12:38:24 2024,695,-24.920,-24.920,7.916,7.916,2.122,16.896,10.756,27.032,70.250,75.548,5.376,59.308,49.101,15.328,3.931,9.252
Thu Dec 05 12:38:24 2024,700,-24.783,-24.783,7.746,7.746,1.888,16.739,10.671,26.658,69.926,75.080,5.198,58.374,48.139,15.477,3.672,8.752
Thu Dec 05 12:38:24 2024,705,-24.538,-24.538,7.701,7.701,1.469,16.651,10.518,26.710,68.613,72.626,4.847,56.716,45.324,15.505,3.592,8.385
Thu Dec 05 12:38:24 2024,710,-24.318,-24.318,7.666,7.666,1.094,16.505,10.378,26.782,67.456,70.340,4.558,55.248,42.894,15.527,3.524,8.076
Thu Dec 05 12:38:24 2024,715,-24.077,-24.077,7.428,7.428,0.576,16.540,10.098,26.503,64.271,63.610,4.670,52.163,37.704,15.172,3.762,7.718
Thu Dec 05 12:38:24 2024,720,-23.826,-23.826,7.151,7.151,0.017,16.528,9.788,26.205,60.849,56.087,5.013,48.830,32.751,14.748,4.044,7.368
Thu Dec 05 12:38:24 2024,725,-23.566,-23.566,7.194,7.194,-0.678,16.274,9.370,25.400,57.174,48.140,4.538,45.570,27.789,14.032,4.134,6.778
Thu Dec 05 12:38:24 2024,730,-23.215,-23.215,7.058,7.058,-1.184,16.076,8.988,23.752,53.865,42.442,4.188,42.819,24.532,13.530,3.961,6.355
Thu Dec 05 12:38:24 2024,735,-22.720,-22.720,6.570,6.570,-1.382,16.124,8.668,20.895,50.859,38.680,4.179,40.606,22.680,13.404,3.609,6.152
Thu Dec 05 12:38:24 2024,740,-22.158,-22.158,5.845,5.845,-1.305,16.412,8.446,17.458,48.602,36.463,4.454,39.089,21.933,13.608,3.200,6.138
Thu Dec 05 12:38:24 2024,745,-21.757,-21.757,5.523,5.523,-1.197,17.221,8.061,14.442,45.782,32.546,4.433,37.379,20.834,13.724,3.124,5.950
Thu Dec 05 12:38:24 2024,750,-21.572,-21.572,5.688,5.688,-1.128,18.306,7.512,12.305,42.472,27.505,4.051,35.470,19.240,13.656,3.393,5.596
Thu Dec 05 12:38:24 2024,755,-21.634,-21.634,5.792,5.792,-1.261,18.609,7.116,10.918,40.078,23.618,3.698,34.074,17.654,13.543,3.566,5.108
Thu Dec 05 12:38:24 2024,760,-21.948,-21.948,5.877,5.877,-1.626,21.633,6.720,9.652,37.615,19.133,3.236,32.649,15.485,13.353,3.713,4.293
Thu Dec 05 12:38:24 2024,765,-22.229,-22.229,5.837,5.837,-1.888,21.889,6.478,8.759,35.784,16.451,2.953,31.628,14.050,13.379,3.752,3.814
Thu Dec 05 12:38:24 2024,770,-22.561,-22.561,5.627,5.627,-2.124,22.150,6.357,8.018,34.092,14.795,2.803,30.770,13.029,13.670,3.667,3.591
Thu Dec 05 12:38:24 2024,775,-22.902,-22.902,5.382,5.382,-2.266,17.641,6.233,7.134,32.136,13.266,2.665,29.712,11.994,13.976,3.528,3.415
Thu Dec 05 12:38:24 2024,780,-23.110,-23.110,5.194,5.194,-2.226,17.594,6.159,6.442,30.652,12.490,2.604,28.848,11.366,14.170,3.387,3.367
Thu Dec 05 12:38:24 2024,785,-23.342,-23.342,4.962,4.962,-2.192,17.529,6.123,5.625,28.990,11.684,2.526,27.924,10.752,14.387,3.234,3.337
Thu Dec 05 12:38:24 2024,790,-23.516,-23.516,4.723,4.723,-2.191,17.520,6.218,4.914,27.713,11.243,2.453,27.322,10.490,14.550,3.131,3.379
Thu Dec 05 12:38:24 2024,795,-23.664,-23.664,4.491,4.491,-2.189,17.521,6.325,4.157,26.377,10.807,2.351,26.644,10.201,14.719,3.026,3.448
Thu Dec 05 12:38:24 2024,800,-23.614,-23.614,4.388,4.388,-2.184,17.567,6.451,3.452,25.220,10.574,2.142,25.815,9.862,14.857,2.953,3.626
Thu Dec 05 12:38:24 2024,805,-23.573,-23.573,4.300,4.300,-2.176,17.613,6.564,2.860,24.239,10.370,1.946,25.088,9.581,14.961,2.908,3.791
Thu Dec 05 12:38:24 2024,810,-23.538,-23.538,4.202,4.202,-2.116,17.755,6.752,2.303,23.286,10.225,1.464,23.994,9.262,14.914,3.077,4.126
Thu Dec 05 12:38:24 2024,815,-23.502,-23.502,4.103,4.103,-2.033,21.204,6.964,1.778,22.386,10.083,0.982,22.936,8.965,14.872,3.242,4.464
Thu Dec 05 12:38:24 2024,820,-23.467,-23.467,4.007,4.007,-1.864,21.868,7.249,1.404,21.734,9.996,0.514,22.063,8.739,14.850,3.385,4.767
Thu Dec 05 12:38:24 2024,825,-23.438,-23.438,3.914,3.914,-1.682,21.700,7.546,1.078,21.189,9.920,0.066,21.296,8.539,14.835,3.516,5.060
Thu Dec 05 12:38:24 2024,830,-23.395,-23.395,3.883,3.883,-1.422,21.568,7.645,0.833,19.160,9.738,-0.382,20.682,8.228,14.740,3.676,5.196
Thu Dec 05 12:38:24 2024,835,-23.340,-23.340,3.842,3.842,-1.121,21.598,7.756,0.568,19.232,9.545,-0.918,19.687,7.898,14.616,3.876,5.363
Thu Dec 05 12:38:24 2024,840,-23.250,-23.250,3.759,3.759,-0.879,21.768,7.912,0.383,19.054,9.496,-1.457,18.253,7.754,14.484,4.104,5.606
Thu Dec 05 12:38:24 2024,845,-23.137,-23.137,3.651,3.651,-0.656,22.051,8.103,0.233,18.762,9.516,-2.024,17.454,7.698,14.338,4.358,5.903
Thu Dec 05 12:38:24 2024,850,-23.195,-23.195,3.781,3.781,-0.445,22.389,8.266,0.222,18.521,9.458,-2.409,16.853,7.549,14.073,4.653,6.007
Thu Dec 05 12:38:24 2024,855,-23.289,-23.289,3.964,3.964,-0.247,22.751,8.414,0.238,18.312,9.387,-2.735,16.323,7.387,13.791,4.960,6.077
Thu Dec 05 12:38:24 2024,860,-23.298,-23.298,4.063,4.063,-0.137,23.050,8.504,0.196,18.182,9.370,-2.952,15.973,7.306,13.611,5.252,6.258
Thu Dec 05 12:38:24 2024,865,-23.244,-23.244,4.097,4.097,-0.097,23.290,8.551,0.114,18.106,9.394,-3.081,15.762,7.286,13.509,5.521,6.518
Thu Dec 05 12:38:24 2024,870,-23.233,-23.233,4.083,4.083,-0.044,23.521,8.636,0.000,17.957,9.405,-3.257,15.485,7.258,13.322,5.828,6.741
Thu Dec 05 12:38:24 2024,875,-23.270,-23.270,4.023,4.023,0.048,23.702,8.746,-0.088,17.758,9.400,-3.453,15.184,7.227,13.081,6.127,6.886
Thu Dec 05 12:38:24 2024,880,-23.288,-23.288,3.997,3.997,0.084,23.886,8.852,-0.200,17.516,9.390,-3.614,14.910,7.216,12.918,6.351,7.050
Thu Dec 05 12:38:24 2024,885,-23.276,-23.276,4.027,4.027,0.086,24.102,8.965,-0.335,17.170,9.372,-3.744,14.634,7.233,12.856,6.488,7.270
Thu Dec 05 12:38:24 2024,890,-23.274,-23.274,4.047,4.047,0.095,24.279,9.045,-0.485,16.803,9.324,-3.936,14.272,7.229,12.776,6.618,7.471
Thu Dec 05 12:38:24 2024,895,-23.283,-23.283,4.056,4.056,0.117,24.395,9.070,-0.661,16.397,9.226,-4.236,13.762,7.188,12.666,6.744,7.643
Thu Dec 05 12:38:24 2024,900,-23.289,-23.289,4.067,4.067,0.181,24.548,9.124,-0.877,15.862,9.056,-4.521,13.205,7.091,12.600,6.798,7.745
Thu Dec 05 12:38:24 2024,905,-23.280,-23.280,4.077,4.077,0.316,24.712,9.224,-1.074,15.311,8.805,-4.611,12.833,6.912,12.678,6.639,7.617
Thu Dec 05 12:38:24 2024,910,-23.277,-23.277,4.087,4.087,0.450,24.828,9.298,-1.325,14.684,8.538,-4.701,12.431,6.730,12.747,6.465,7.481
Thu Dec 05 12:38:24 2024,915,-23.293,-23.293,4.098,4.098,0.548,24.780,9.284,-1.689,13.944,8.260,-4.775,12.026,6.576,12.774,6.277,7.347
Thu Dec 05 12:38:24 2024,920,-23.308,-23.308,4.108,4.108,0.638,24.738,9.270,-2.023,13.263,8.007,-4.843,11.651,6.435,12.799,6.092,7.225
Thu Dec 05 12:38:24 2024,925,-23.282,-23.282,3.977,3.977,0.687,24.832,9.210,-2.383,12.853,7.752,-4.864,11.470,6.249,12.824,5.909,7.011
Thu Dec 05 12:38:24 2024,930,-23.255,-23.255,3.859,3.859,0.741,24.931,9.165,-2.731,12.434,7.506,-4.868,11.317,6.084,12.867,5.716,6.823
Thu Dec 05 12:38:24 2024,935,-23.212,-23.212,3.868,3.868,0.826,25.022,9.238,-2.922,12.069,7.380,-4.768,11.360,6.080,13.014,5.556,6.871
Thu Dec 05 12:38:24 2024,940,-23.173,-23.173,3.930,3.930,0.907,25.100,9.326,-3.062,11.744,7.285,-4.627,11.484,6.130,13.170,5.402,6.949
Thu Dec 05 12:38:24 2024,945,-23.161,-23.161,4.078,4.078,0.919,25.116,9.349,-3.125,11.582,7.213,-4.436,11.721,6.227,13.224,5.261,6.898
Thu Dec 05 12:38:24 2024,950,-23.150,-23.150,4.225,4.225,0.932,25.131,9.372,-3.189,11.420,7.142,-4.246,11.957,6.323,13.278,5.121,6.847
Thu Dec 05 12:38:24 2024,955,-23.138,-23.138,4.377,4.377,1.000,25.182,9.452,-3.150,11.349,7.132,-4.035,12.322,6.426,13.247,5.087,6.735
Thu Dec 05 12:38:24 2024,960,-23.124,-23.124,4.516,4.516,1.087,25.247,9.550,-3.083,11.306,7.142,-3.837,12.701,6.522,13.194,5.094,6.616
Thu Dec 05 12:38:24 2024,965,-23.161,-23.161,4.684,4.684,1.125,25.370,9.642,-2.976,11.437,7.159,-3.501,13.441,6.696,13.254,5.078,6.566
Thu Dec 05 12:38:24 2024,970,-23.207,-23.207,4.823,4.823,1.136,25.483,9.709,-2.883,11.598,7.173,-3.200,14.130,6.855,13.340,5.056,6.553
Thu Dec 05 12:38:24 2024,975,-23.238,-23.238,4.952,4.952,1.111,25.557,9.868,-2.684,11.827,7.315,-2.716,15.203,7.210,13.350,5.007,6.489
Thu Dec 05 12:38:24 2024,980,-23.243,-23.243,5.030,5.030,1.055,25.571,10.071,-2.440,12.052,7.544,-2.194,16.334,7.658,13.280,4.946,6.394
Thu Dec 05 12:38:24 2024,985,-23.211,-23.211,5.097,5.097,0.998,25.516,10.197,-2.234,12.210,7.683,-1.666,17.484,8.070,13.330,4.792,6.287
Thu Dec 05 12:38:24 2024,990,-23.141,-23.141,5.159,5.159,0.936,25.393,10.258,-2.048,12.319,7.751,-1.095,18.681,8.480,13.498,4.540,6.160
Thu Dec 05 12:38:24 2024,995,-23.068,-23.068,5.274,5.274,0.838,25.218,10.206,-1.921,12.359,7.729,-0.477,20.883,8.985,13.562,4.403,6.003
Thu Dec 05 12:38:25 2024,0,-22.996,-22.996,5.436,5.436,0.709,24.998,10.031,-1.870,12.324,7.611,0.149,22.259,9.572,13.503,4.404,5.825
Thu Dec 05 12:38:25 2024,5,-22.937,-22.937,5.566,5.566,0.591,24.801,9.870,-1.825,12.199,7.488,0.733,23.757,10.176,13.468,4.375,5.667
Thu Dec 05 12:38:25 2024,10,-22.885,-22.885,5.662,5.662,0.448,24.575,9.670,-1.775,11.771,7.294,1.511,25.591,11.104,13.482,4.248,5.494
Thu Dec 05 12:38:25 2024,15,-22.836,-22.836,5.788,5.788,0.315,24.370,9.464,-1.650,11.452,7.150,2.212,27.273,12.034,13.503,4.162,5.420
Thu Dec 05 12:38:25 2024,20,-22.786,-22.786,6.016,6.016,0.175,24.172,9.194,-1.312,11.328,7.091,2.886,28.898,13.138,13.548,4.168,5.566
Thu Dec 05 12:38:25 2024,25,-22.731,-22.731,6.228,6.228,0.064,24.050,8.904,-0.892,11.334,7.052,3.526,30.501,14.322,13.587,4.232,5.799
Thu Dec 05 12:38:25 2024,30,-22.631,-22.631,6.399,6.399,-0.108,24.236,8.447,0.193,11.925,7.066,4.167,32.399,16.077,13.604,4.562,6.420
Thu Dec 05 12:38:25 2024,35,-22.572,-22.572,6.504,6.504,-0.203,24.428,8.099,0.781,12.386,7.052,4.698,33.935,17.671,13.598,4.810,7.017
Thu Dec 05 12:38:25 2024,40,-22.610,-22.610,6.527,6.527,-0.302,24.727,7.768,1.705,12.880,6.901,5.478,35.844,20.184,13.523,5.033,8.036
Thu Dec 05 12:38:25 2024,45,-22.676,-22.676,6.550,6.550,-0.388,25.038,7.506,2.564,13.179,6.697,6.416,37.789,22.931,13.402,5.238,9.086
Thu Dec 05 12:38:25 2024,50,-22.863,-22.863,6.773,6.773,-0.422,25.589,7.583,3.273,13.007,6.047,9.244,40.881,26.657,12.823,5.577,10.454
Thu Dec 05 12:38:25 2024,55,-23.013,-23.013,6.964,6.964,-0.441,26.016,7.683,3.753,12.809,5.560,11.692,43.499,30.028,12.355,5.817,11.480
Thu Dec 05 12:38:25 2024,60,-23.097,-23.097,7.585,7.585,-0.651,26.123,7.634,4.316,13.320,5.847,12.456,43.600,32.538,11.836,5.964,11.762
Thu Dec 05 12:38:25 2024,65,-23.142,-23.142,8.265,8.265,-0.897,26.098,7.538,4.798,13.838,6.391,12.428,42.567,34.310,11.404,6.027,11.734
Thu Dec 05 12:38:25 2024,70,-22.759,-22.759,8.508,8.508,-0.631,25.743,7.355,5.779,13.754,6.648,8.867,34.789,26.196,10.627,7.081,11.410
Thu Dec 05 12:38:25 2024,75,-22.297,-22.297,8.602,8.602,-0.255,25.350,7.165,6.783,13.155,6.801,4.588,25.984,15.059,9.831,8.307,11.038
Thu Dec 05 12:38:25 2024,80,-21.883,-21.883,8.439,8.439,0.282,25.331,7.230,7.800,12.183,7.085,1.934,17.901,9.383,9.174,9.544,10.997
Thu Dec 05 12:38:25 2024,85,-21.601,-21.601,8.206,8.206,0.707,25.511,7.394,8.549,11.317,7.343,0.763,17.244,7.751,8.754,10.405,11.102
Thu Dec 05 12:38:25 2024,90,-21.458,-21.458,7.987,7.987,1.052,25.758,7.587,9.054,10.733,7.273,0.658,16.955,6.997,8.265,11.162,10.995
Thu Dec 05 12:38:25 2024,95,-21.457,-21.457,7.847,7.847,1.235,25.964,7.743,9.241,10.554,6.998,1.321,17.348,6.891,7.877,11.644,10.779
Thu Dec 05 12:38:25 2024,100,-21.460,-21.460,7.862,7.862,1.520,26.057,7.982,9.525,10.344,6.861,2.195,17.269,7.232,7.425,12.195,10.721
Thu Dec 05 12:38:25 2024,105,-21.462,-21.462,8.055,8.055,1.789,25.977,8.206,9.786,10.166,6.953,2.904,16.832,7.949,7.111,12.570,10.881
Thu Dec 05 12:38:25 2024,110,-21.460,-21.460,8.329,8.329,2.042,25.853,8.449,10.076,9.917,7.072,3.254,16.596,8.650,6.771,13.025,11.179
Thu Dec 05 12:38:25 2024,115,-21.447,-21.447,8.694,8.694,2.200,25.656,8.669,10.358,9.641,7.216,2.802,17.037,9.158,6.458,13.472,11.684
Thu Dec 05 12:38:25 2024,120,-21.444,-21.444,9.044,9.044,2.397,25.575,8.882,10.658,9.339,7.384,2.109,17.728,9.620,6.133,13.867,12.140
Thu Dec 05 12:38:25 2024,125,-21.466,-21.466,9.365,9.365,2.725,25.840,9.082,11.031,8.969,7.630,0.641,19.184,9.982,5.760,14.201,12.447
Thu Dec 05 12:38:25 2024,130,-21.488,-21.488,9.638,9.638,3.028,26.108,9.266,11.386,8.612,7.876,-0.750,20.394,10.394,5.496,20.046,12.804
Thu Dec 05 12:38:25 2024,135,-21.510,-21.510,9.838,9.838,3.325,26.420,9.443,11.764,8.218,8.168,-2.256,22.435,11.036,5.458,25.914,13.338
Thu Dec 05 12:38:25 2024,140,-21.522,-21.522,10.087,10.087,3.651,26.754,9.612,12.203,7.738,8.477,-3.843,24.313,11.710,5.391,26.287,13.958
Thu Dec 05 12:38:25 2024,145,-21.434,-21.434,10.388,10.388,3.781,26.812,9.510,12.530,7.373,8.518,-4.273,25.032,12.095,5.166,26.395,14.354
Thu Dec 05 12:38:25 2024,150,-21.331,-21.331,10.707,10.707,3.937,26.884,9.392,12.968,6.871,8.584,-4.845,25.957,12.499,4.886,26.584,14.825
Thu Dec 05 12:38:25 2024,155,-21.256,-21.256,10.682,10.682,4.063,26.932,9.322,13.609,6.086,8.753,-5.707,26.938,12.548,4.614,26.726,15.097
Thu Dec 05 12:38:25 2024,160,-21.184,-21.184,10.618,10.618,4.188,26.979,9.257,14.284,5.220,8.937,-6.603,27.930,12.545,4.337,26.901,15.358
Thu Dec 05 12:38:25 2024,165,-21.100,-21.100,10.691,10.691,4.263,27.164,9.279,14.594,35.341,9.142,-7.137,28.784,12.893,3.836,27.109,15.902
Thu Dec 05 12:38:25 2024,170,-21.033,-21.033,10.766,10.766,4.320,27.332,9.310,14.801,35.790,9.308,-7.538,29.478,13.206,3.393,27.340,16.389
Thu Dec 05 12:38:25 2024,175,-20.958,-20.958,10.799,10.799,4.457,27.492,9.283,14.965,36.234,9.509,-7.754,29.989,13.522,3.090,27.807,16.957
Thu Dec 05 12:38:25 2024,180,-20.876,-20.876,10.815,10.815,4.639,27.660,9.230,15.119,36.722,9.731,-7.903,30.458,13.853,2.827,28.424,17.613
Thu Dec 05 12:38:25 2024,185,-20.752,-20.752,10.922,10.922,4.877,27.946,9.273,15.352,37.198,9.904,-8.310,31.163,14.268,2.650,29.234,18.604
Thu Dec 05 12:38:25 2024,190,-20.606,-20.606,11.074,11.074,5.153,28.304,9.361,15.631,37.696,10.067,-8.855,32.010,14.736,2.494,30.192,19.840
Thu Dec 05 12:38:25 2024,195,-20.468,-20.468,11.150,11.150,5.348,28.626,9.531,15.884,38.137,10.254,-9.090,32.771,15.544,2.426,31.604,21.474
Thu Dec 05 12:38:25 2024,200,-20.300,-20.300,11.188,11.188,5.530,29.003,9.806,16.183,38.649,10.508,-9.158,33.716,16.862,2.405,33.736,23.931
Thu Dec 05 12:38:25 2024,205,-20.126,-20.126,11.324,11.324,5.688,29.403,9.999,16.376,39.152,10.639,-9.245,34.778,18.231,2.326,35.717,26.362
Thu Dec 05 12:38:25 2024,210,-19.945,-19.945,11.529,11.529,5.829,29.824,10.139,16.492,39.663,10.686,-9.360,35.957,19.718,2.203,37.615,28.886
Thu Dec 05 12:38:25 2024,215,-19.853,-19.853,11.760,11.760,5.908,30.330,10.378,16.582,40.201,10.786,-9.280,37.582,21.894,2.249,39.900,31.804
Thu Dec 05 12:38:25 2024,220,-19.905,-19.905,12.094,12.094,5.888,31.132,10.861,16.647,40.916,11.016,-8.815,40.605,26.158,2.640,43.444,36.198
Thu Dec 05 12:38:25 2024,225,-19.957,-19.957,12.354,12.354,5.852,31.701,11.250,16.624,41.472,11.252,-8.400,43.427,30.462,2.915,46.372,40.422
Thu Dec 05 12:38:25 2024,230,-20.047,-20.047,12.643,12.643,5.769,32.173,11.714,16.411,42.069,11.665,-7.739,47.553,37.642,3.173,50.091,47.158
Thu Dec 05 12:38:25 2024,235,-20.167,-20.167,12.877,12.877,5.605,32.575,12.171,16.135,42.657,12.120,-7.082,52.480,46.780,3.622,54.342,55.812
Thu Dec 05 12:38:25 2024,240,-20.383,-20.383,12.863,12.863,5.187,32.656,12.528,15.703,43.014,12.658,-6.382,58.830,59.550,4.504,59.797,68.694
Thu Dec 05 12:38:25 2024,245,-20.553,-20.553,12.828,12.828,4.819,32.700,12.801,15.343,43.318,13.093,-6.459,64.266,69.504,5.526,64.361,79.085
Thu Dec 05 12:38:25 2024,250,-20.668,-20.668,12.578,12.578,4.194,32.434,12.921,14.903,43.483,13.448,-7.403,69.928,77.252,6.693,68.459,87.483
Thu Dec 05 12:38:25 2024,255,-20.770,-20.770,12.367,12.367,3.671,32.237,13.017,14.540,43.649,13.751,9.339,74.848,82.728,7.880,72.055,93.819
Thu Dec 05 12:38:25 2024,260,-20.865,-20.865,12.272,12.272,3.490,32.164,12.899,14.479,43.890,13.759,10.901,78.027,85.822,8.498,73.772,96.518
Thu Dec 05 12:38:25 2024,265,-20.946,-20.946,12.157,12.157,3.297,32.082,12.766,14.415,44.132,13.772,12.777,81.318,88.682,9.193,75.596,99.126
Thu Dec 05 12:38:25 2024,270,-20.739,-20.739,11.933,11.933,3.177,31.911,12.583,14.342,44.017,13.751,12.951,81.498,89.280,9.353,76.147,100.026
Thu Dec 05 12:38:25 2024,275,-20.482,-20.482,11.680,11.680,3.056,31.720,12.384,14.263,43.854,13.727,12.929,81.331,89.685,9.542,76.602,100.787
Thu Dec 05 12:38:25 2024,280,-20.239,-20.239,11.442,11.442,2.871,31.740,12.212,14.056,43.699,13.601,12.740,81.261,89.975,-9.715,76.915,101.149
Thu Dec 05 12:38:25 2024,285,-19.978,-19.978,11.188,11.188,2.653,31.823,12.031,13.797,43.534,13.440,12.517,81.213,90.263,-9.911,77.222,101.444
Thu Dec 05 12:38:25 2024,290,-19.712,-19.712,10.980,10.980,2.546,31.799,11.877,13.548,43.279,13.208,12.250,80.834,90.707,-9.999,77.344,101.733
Thu Dec 05 12:38:25 2024,295,-19.432,-19.432,10.784,10.784,2.498,31.753,11.745,13.271,42.811,12.968,11.924,80.089,90.815,-9.982,77.137,101.561
Thu Dec 05 12:38:25 2024,300,-19.415,-19.415,10.820,10.820,2.702,31.743,11.852,13.158,41.878,13.048,11.709,78.650,88.883,-9.549,75.635,99.198
Thu Dec 05 12:38:25 2024,305,-19.397,-19.397,10.856,10.856,2.907,31.733,11.959,13.046,40.945,13.129,11.493,77.210,86.951,-9.115,74.133,96.835
Thu Dec 05 12:38:25 2024,310,-19.379,-19.379,10.892,10.892,3.112,31.723,12.066,12.934,40.011,13.209,11.278,75.771,85.019,-8.682,72.631,94.471
Thu Dec 05 12:38:25 2024,315,-19.361,-19.361,10.928,10.928,3.316,31.713,12.173,12.821,39.078,13.289,11.062,74.332,83.087,-8.248,71.129,92.108
Thu Dec 05 12:38:25 2024,320,-19.343,-19.343,10.964,10.964,3.521,31.703,12.280,12.709,38.145,13.370,10.847,72.892,81.155,-7.815,69.627,89.745
Thu Dec 05 12:38:25 2024,325,-19.325,-19.325,11.000,11.000,3.725,31.692,12.387,12.597,37.212,13.450,10.632,71.453,79.223,-7.381,68.125,87.382
Thu Dec 05 12:38:25 2024,330,-19.307,-19.307,11.036,11.036,3.930,31.682,12.494,12.484,36.278,13.530,10.416,70.014,77.291,-6.948,66.623,85.018
Thu Dec 05 12:38:25 2024,335,-19.289,-19.289,11.072,11.072,4.134,31.672,12.601,12.372,35.345,13.611,10.201,68.574,75.359,-6.514,65.121,82.655
Thu Dec 05 12:38:25 2024,340,-19.271,-19.271,11.108,11.108,4.339,31.662,12.707,12.260,34.412,13.691,9.985,67.135,73.427,-6.080,63.619,80.292
Thu Dec 05 12:38:25 2024,345,-19.253,-19.253,11.144,11.144,4.543,31.652,12.814,12.147,33.478,13.771,9.770,65.695,71.495,-5.647,62.117,77.928
Thu Dec 05 12:38:25 2024,350,-19.235,-19.235,11.180,11.180,4.748,31.642,12.921,12.035,32.545,13.852,9.554,64.256,69.563,-5.213,60.615,75.565
Thu Dec 05 12:38:25 2024,355,-19.218,-19.218,11.216,11.216,4.952,31.632,13.028,11.923,31.612,13.932,9.339,62.817,67.631,-4.780,59.113,73.202
Thu Dec 05 12:38:25 2024,360,-19.200,-19.200,11.252,11.252,5.157,31.622,13.135,11.810,30.678,14.012,9.124,61.377,65.699,-4.346,57.611,70.838
Thu Dec 05 12:38:25 2024,365,-19.182,-19.182,11.288,11.288,5.361,31.612,13.242,11.698,29.745,14.092,8.908,59.938,63.767,-3.913,56.109,68.475
Thu Dec 05 12:38:25 2024,370,-19.164,-19.164,11.324,11.324,5.566,31.602,13.349,11.586,28.812,14.173,8.693,58.499,61.835,-3.479,54.607,66.112
Thu Dec 05 12:38:25 2024,375,-19.146,-19.146,11.360,11.360,5.771,31.592,13.456,11.473,27.878,14.253,8.477,57.059,59.903,-3.046,53.105,63.748
Thu Dec 05 12:38:25 2024,380,-19.128,-19.128,11.396,11.396,5.975,31.582,13.563,11.361,26.945,14.333,8.262,55.620,57.971,-2.612,51.603,61.385
Thu Dec 05 12:38:25 2024,385,-19.110,-19.110,11.432,11.432,6.180,31.571,13.670,11.249,26.012,14.414,8.047,54.181,56.039,-2.179,50.101,59.022
Thu Dec 05 12:38:25 2024,390,-19.092,-19.092,11.468,11.468,6.384,31.561,13.776,11.136,25.079,14.494,7.831,52.741,54.107,-1.745,48.599,56.659
Thu Dec 05 12:38:25 2024,395,-19.074,-19.074,11.504,11.504,6.589,31.551,13.883,11.024,24.145,14.574,7.616,51.302,52.176,-1.312,47.097,54.295
Thu Dec 05 12:38:25 2024,400,-19.056,-19.056,11.540,11.540,6.793,31.541,13.990,10.912,23.212,14.655,7.400,49.862,50.244,-0.878,45.595,51.932
Thu Dec 05 12:38:25 2024,405,-19.039,-19.039,11.576,11.576,6.998,31.531,14.097,10.799,22.279,14.735,7.185,48.423,48.312,-0.445,44.093,49.569
Thu Dec 05 12:38:25 2024,410,-19.021,-19.021,11.612,11.612,7.202,31.521,14.204,10.687,21.345,14.815,6.970,46.984,46.380,-0.011,42.591,47.205
Thu Dec 05 12:38:25 2024,415,-19.003,-19.003,11.648,11.648,7.407,31.511,14.311,10.575,20.412,14.896,6.754,45.544,44.448,0.423,41.089,44.842
Thu Dec 05 12:38:25 2024,420,-18.985,-18.985,11.684,11.684,7.611,31.501,14.418,10.462,19.479,14.976,6.539,44.105,42.516,0.856,39.587,42.479
Thu Dec 05 12:38:25 2024,425,-18.967,-18.967,11.720,11.720,7.816,31.491,14.525,10.350,18.545,15.056,6.323,42.666,40.584,1.290,38.085,40.115
Thu Dec 05 12:38:25 2024,430,-18.949,-18.949,11.756,11.756,8.020,31.481,14.632,10.238,17.612,15.137,6.108,41.226,38.652,1.723,36.583,37.752
Thu Dec 05 12:38:25 2024,435,-18.931,-18.931,11.792,11.792,8.225,31.471,14.738,10.125,16.679,15.217,5.893,39.787,36.720,2.157,35.081,35.389
Thu Dec 05 12:38:25 2024,440,-18.913,-18.913,11.828,11.828,8.430,31.460,14.845,10.013,15.746,15.297,5.677,38.347,34.788,2.590,33.579,33.026
Thu Dec 05 12:38:25 2024,445,-18.895,-18.895,11.864,11.864,8.634,31.450,14.952,9.901,14.812,15.378,5.462,36.908,32.856,3.024,32.077,30.662
Thu Dec 05 12:38:25 2024,450,-18.877,-18.877,11.900,11.900,8.839,31.440,15.059,9.788,13.879,15.458,5.246,35.469,30.924,3.457,30.575,28.299
Thu Dec 05 12:38:25 2024,455,-18.860,-18.860,11.936,11.936,9.043,31.430,15.166,9.676,12.946,15.538,5.031,34.029,28.992,3.891,29.073,25.936
Thu Dec 05 12:38:25 2024,460,-18.842,-18.842,11.972,11.972,9.248,31.420,15.273,9.564,12.012,15.618,4.816,32.590,27.060,4.324,27.571,23.572
Thu Dec 05 12:38:25 2024,465,-18.824,-18.824,12.008,12.008,9.452,31.410,15.380,9.451,11.079,15.699,4.600,31.151,25.128,4.758,26.069,21.209
Thu Dec 05 12:38:25 2024,470,-18.813,-18.813,12.030,12.030,9.575,31.404,15.444,9.384,10.519,15.747,4.471,30.287,23.969,5.018,25.168,19.791
Thu Dec 05 12:38:25 2024,475,-18.813,-18.813,12.030,12.030,9.575,31.404,15.444,9.384,10.519,15.747,4.471,30.287,23.969,5.018,25.168,19.791
Thu Dec 05 12:38:25 2024,480,-18.985,-18.985,10.681,10.681,8.624,31.040,14.719,9.007,10.823,15.381,4.332,30.587,20.963,5.523,14.388,16.650
Thu Dec 05 12:38:25 2024,485,-19.237,-19.237,9.440,9.440,7.742,30.787,14.051,8.645,11.101,15.062,4.214,30.851,18.392,5.978,13.971,13.856
Thu Dec 05 12:38:25 2024,490,-19.875,-19.875,9.447,9.447,7.518,31.102,14.083,8.160,11.578,14.483,3.544,29.646,16.405,6.689,13.299,12.225
Thu Dec 05 12:38:25 2024,495,-20.422,-20.422,9.616,9.616,7.432,31.440,14.203,7.762,11.981,13.990,2.944,28.530,14.950,7.275,12.724,11.100
Thu Dec 05 12:38:25 2024,500,-20.858,-20.858,9.595,9.595,7.308,31.644,14.199,7.164,12.603,13.439,2.350,27.300,13.608,7.710,12.276,10.268
Thu Dec 05 12:38:25 2024,505,-21.298,-21.298,9.537,9.537,7.170,31.842,14.172,6.499,13.296,12.845,1.727,26.008,12.249,8.136,11.793,9.444
Thu Dec 05 12:38:25 2024,510,-21.470,-21.470,9.441,9.441,6.934,31.700,14.117,6.041,13.782,12.624,1.070,25.170,11.602,8.352,11.510,9.100
Thu Dec 05 12:38:25 2024,515,-21.632,-21.632,9.327,9.327,6.658,31.511,14.073,5.570,14.287,12.430,0.285,24.344,10.986,8.596,11.169,8.794
Thu Dec 05 12:38:25 2024,520,-21.804,-21.804,9.251,9.251,6.516,31.529,14.163,5.290,14.592,12.249,-0.418,23.704,10.472,8.911,10.762,8.566
Thu Dec 05 12:38:25 2024,525,-21.968,-21.968,9.206,9.206,6.470,31.675,14.334,5.167,14.735,12.119,-1.027,23.316,10.091,9.212,10.377,8.431
Thu Dec 05 12:38:25 2024,530,-22.115,-22.115,9.160,9.160,6.427,31.796,14.500,5.091,14.837,12.103,-1.632,23.046,9.849,9.348,10.131,8.410
Thu Dec 05 12:38:25 2024,535,-22.263,-22.263,9.115,9.115,6.383,31.917,14.665,5.015,14.938,12.088,-2.237,22.776,9.606,9.483,9.886,8.390
Thu Dec 05 12:38:25 2024,540,-22.354,-22.354,9.099,9.099,6.357,31.965,14.806,5.004,14.966,12.128,-2.775,22.911,9.413,9.556,9.618,8.334
Thu Dec 05 12:38:25 2024,545,-22.407,-22.407,9.109,9.109,6.347,31.961,14.933,5.033,14.947,12.177,-3.280,23.278,9.209,9.635,9.255,8.203
Thu Dec 05 12:38:25 2024,550,-22.453,-22.453,9.062,9.062,6.331,32.011,15.068,5.056,14.929,12.166,-3.725,23.779,8.994,9.677,8.958,8.064
Thu Dec 05 12:38:25 2024,555,-22.486,-22.486,8.968,8.968,6.309,32.107,15.200,5.072,14.915,12.099,-4.079,15.752,8.787,9.681,8.766,7.931
Thu Dec 05 12:38:25 2024,560,-22.544,-22.544,8.875,8.875,6.305,32.234,15.343,5.094,14.894,12.074,-4.455,15.184,8.579,9.721,8.522,7.848
Thu Dec 05 12:38:25 2024,565,-22.623,-22.623,8.834,8.834,6.319,32.342,15.435,5.105,14.884,12.117,-4.704,14.750,8.464,9.790,8.324,7.878
Thu Dec 05 12:38:25 2024,570,-22.724,-22.724,8.832,8.832,6.270,32.395,15.499,5.072,14.920,12.103,-4.977,14.291,8.351,9.788,8.171,7.853
Thu Dec 05 12:38:25 2024,575,-22.820,-22.820,8.838,8.838,6.211,32.433,15.552,5.033,14.962,12.077,-5.232,13.868,8.249,9.771,8.040,7.819
Thu Dec 05 12:38:25 2024,580,-22.894,-22.894,8.868,8.868,6.132,32.413,15.554,4.974,15.024,12.003,-5.433,13.550,8.175,9.685,8.001,7.762
Thu Dec 05 12:38:25 2024,585,-22.884,-22.884,8.831,8.831,6.198,32.434,15.514,4.992,15.008,11.950,-5.568,13.248,8.100,9.606,8.020,7.815
Thu Dec 05 12:38:25 2024,590,-22.876,-22.876,8.787,8.787,6.282,32.488,15.493,5.016,14.973,11.894,-5.716,12.909,8.034,9.500,8.063,7.876
Thu Dec 05 12:38:25 2024,595,-22.902,-22.902,8.767,8.767,6.342,32.625,15.586,5.026,14.954,11.881,-5.795,12.757,8.063,9.375,8.166,7.894
Thu Dec 05 12:38:25 2024,600,-22.931,-22.931,8.746,8.746,6.407,32.772,15.685,5.037,14.931,11.867,-5.881,12.592,8.094,9.240,8.277,7.915
Thu Dec 05 12:38:25 2024,605,-22.827,-22.827,8.740,8.740,6.441,32.794,15.680,5.011,14.926,11.763,-5.971,12.392,8.091,9.076,8.644,8.204
Thu Dec 05 12:38:25 2024,610,-22.742,-22.742,8.748,8.748,6.477,32.818,15.676,4.993,14.907,11.668,-6.041,12.222,8.093,8.926,8.988,8.484
Thu Dec 05 12:38:25 2024,615,-22.819,-22.819,8.838,8.838,6.571,32.973,15.766,5.038,14.841,11.647,-6.053,12.161,8.159,8.790,9.243,8.677
Thu Dec 05 12:38:25 2024,620,-22.933,-22.933,8.947,8.947,6.680,33.159,15.880,5.095,14.763,11.640,-6.054,12.119,8.241,8.653,9.485,8.856
Thu Dec 05 12:38:25 2024,625,-22.926,-22.926,8.959,8.959,6.768,33.237,15.977,5.137,14.709,11.686,-6.025,12.054,8.300,8.671,9.628,9.133
Thu Dec 05 12:38:25 2024,630,-22.885,-22.885,8.945,8.945,6.848,33.282,16.068,5.174,14.664,11.745,-5.988,11.982,8.350,8.730,9.733,9.427
Thu Dec 05 12:38:25 2024,635,-22.921,-22.921,8.919,8.919,6.843,33.322,16.149,5.195,14.636,11.798,-6.001,11.960,8.419,8.757,9.824,9.611
Thu Dec 05 12:38:25 2024,640,-22.979,-22.979,8.891,8.891,6.808,33.355,16.214,5.208,14.618,11.840,-6.029,11.958,8.486,8.769,9.897,9.728
Thu Dec 05 12:38:25 2024,645,-23.045,-23.045,8.945,8.945,6.738,33.333,16.212,5.185,14.629,11.850,-6.036,11.958,8.555,8.736,10.085,9.938
Thu Dec 05 12:38:25 2024,650,-23.110,-23.110,9.036,9.036,6.655,33.287,16.176,5.146,14.652,11.843,-6.033,11.959,8.620,8.682,10.311,10.182
Thu Dec 05 12:38:25 2024,655,-23.160,-23.160,9.055,9.055,6.637,33.269,16.195,5.171,14.631,11.886,-5.994,12.027,8.719,8.602,10.640,10.514
Thu Dec 05 12:38:25 2024,660,-23.178,-23.178,9.004,9.004,6.683,33.282,16.254,5.244,14.578,11.958,-5.938,12.130,8.811,8.529,10.929,10.808
Thu Dec 05 12:38:25 2024,665,-23.198,-23.198,8.946,8.946,6.736,33.297,16.322,5.327,14.516,12.041,-5.874,12.248,8.916,8.445,11.218,11.142
Thu Dec 05 12:38:25 2024,670,-23.208,-23.208,8.918,8.918,6.760,33.304,16.354,5.366,14.486,12.080,-5.843,12.303,8.966,8.406,11.340,11.300
Thu Dec 05 12:38:25 2024,675,-23.207,-23.207,9.018,9.018,6.860,33.345,16.343,5.422,14.404,12.075,-5.696,12.669,9.186,8.302,11.564,11.839
Thu Dec 05 12:38:25 2024,680,-23.208,-23.208,9.164,9.164,7.008,33.407,16.326,5.504,14.280,12.067,-5.476,13.210,9.516,8.148,11.844,12.651
Thu Dec 05 12:38:25 2024,685,-23.174,-23.174,9.253,9.253,7.131,33.381,16.325,5.615,14.156,12.122,-5.306,13.595,9.771,8.143,11.842,13.358
Thu Dec 05 12:38:25 2024,690,-23.059,-23.059,9.371,9.371,7.280,33.223,16.300,5.792,13.983,12.240,-5.118,14.005,10.057,8.361,11.547,14.233
Thu Dec 05 12:38:25 2024,695,-22.961,-22.961,9.473,9.473,7.409,33.091,16.278,5.945,13.834,12.343,-4.956,14.347,10.303,8.551,11.244,15.007
Thu Dec 05 12:38:25 2024,700,-23.080,-23.080,9.888,9.888,7.401,33.120,16.170,6.090,13.712,12.252,-4.688,14.926,10.555,8.741,29.169,16.038
Thu Dec 05 12:38:25 2024,705,-23.185,-23.185,10.277,10.277,7.402,33.139,16.068,6.233,13.589,12.174,-4.428,15.416,10.802,8.934,29.639,17.076
Thu Dec 05 12:38:25 2024,710,-23.197,-23.197,10.621,10.621,7.333,32.817,15.922,6.371,13.437,12.284,-4.266,24.317,11.256,9.059,30.167,18.619
Thu Dec 05 12:38:25 2024,715,-23.209,-23.209,10.877,10.877,7.283,32.581,15.814,6.474,13.324,12.364,-4.143,24.151,11.594,9.154,30.612,19.804
Thu Dec 05 12:38:25 2024,720,-23.222,-23.222,11.114,11.114,7.295,32.554,15.668,6.742,13.128,12.401,-3.927,23.966,11.882,9.702,31.733,21.460
Thu Dec 05 12:38:25 2024,725,-23.231,-23.231,11.272,11.272,7.310,32.557,15.565,6.941,12.974,12.422,-3.770,23.955,12.071,10.131,32.602,22.685
Thu Dec 05 12:38:25 2024,730,-23.199,-23.199,11.424,11.424,7.154,32.420,15.390,7.092,12.856,12.330,-3.628,24.118,12.261,10.524,33.718,24.380
Thu Dec 05 12:38:25 2024,735,-23.155,-23.155,11.573,11.573,6.932,32.228,15.187,7.222,12.752,12.197,-3.500,24.444,12.448,10.897,34.977,26.314
Thu Dec 05 12:38:25 2024,740,-23.066,-23.066,11.534,11.534,6.883,32.048,15.167,7.473,12.524,12.122,-3.195,24.922,12.669,11.493,36.621,28.347
Thu Dec 05 12:38:25 2024,745,-22.974,-22.974,11.467,11.467,6.866,31.879,15.178,7.731,12.267,12.061,-2.881,25.560,12.886,12.103,38.315,30.385
Thu Dec 05 12:38:25 2024,750,-22.741,-22.741,11.444,11.444,7.059,31.823,15.323,8.050,11.923,11.969,-2.373,26.572,13.068,13.367,41.518,34.006
Thu Dec 05 12:38:25 2024,755,-22.532,-22.532,11.452,11.452,7.275,31.849,15.477,8.274,11.670,11.898,-1.975,27.414,13.161,14.464,44.250,37.102
Thu Dec 05 12:38:25 2024,760,-22.422,-22.422,11.429,11.429,7.376,31.698,15.801,8.212,11.672,12.135,-1.287,28.246,13.623,15.579,47.891,42.602
Thu Dec 05 12:38:25 2024,765,-22.412,-22.412,11.396,11.396,7.372,31.475,16.142,7.980,11.830,12.508,-0.622,28.858,14.212,16.388,51.114,48.188
Thu Dec 05 12:38:25 2024,770,-22.469,-22.469,11.558,11.558,7.244,31.284,16.355,7.569,27.917,12.852,0.254,29.557,15.026,16.341,54.787,55.123
Thu Dec 05 12:38:25 2024,775,-22.592,-22.592,11.898,11.898,7.008,31.152,16.411,7.031,27.648,13.124,0.590,30.220,15.990,15.338,58.633,62.174
Thu Dec 05 12:38:25 2024,780,-22.714,-22.714,12.173,12.173,6.944,31.367,16.421,6.847,27.970,13.346,1.242,31.338,16.913,14.051,62.901,67.824
Thu Dec 05 12:38:25 2024,785,-22.808,-22.808,12.307,12.307,7.102,31.956,16.370,7.131,28.946,13.458,2.019,32.772,17.556,12.750,66.685,71.091
Thu Dec 05 12:38:25 2024,790,-22.793,-22.793,12.424,12.424,7.341,32.524,16.335,7.441,29.839,13.582,2.732,34.120,18.070,11.536,69.074,72.956
Thu Dec 05 12:38:25 2024,795,-22.555,-22.555,12.505,12.505,7.749,33.055,16.330,7.812,30.420,13.729,3.301,35.260,18.299,10.254,68.205,72.787
Thu Dec 05 12:38:25 2024,800,-22.343,-22.343,12.621,12.621,8.089,33.463,16.339,8.098,30.862,13.832,3.798,36.226,18.520,9.475,67.438,72.622
Thu Dec 05 12:38:25 2024,805,-22.177,-22.177,12.857,12.857,8.289,33.564,16.389,8.175,30.945,13.810,4.170,36.811,18.766,9.948,66.852,72.697
Thu Dec 05 12:38:25 2024,810,-22.013,-22.013,13.136,13.136,8.513,33.707,16.483,8.216,31.047,13.827,4.602,37.639,19.116,10.628,66.362,72.895
Thu Dec 05 12:38:25 2024,815,-21.999,-21.999,13.310,13.310,8.617,33.855,16.644,8.092,31.120,13.966,4.847,38.531,19.480,11.289,66.628,73.437
Thu Dec 05 12:38:25 2024,820,-21.986,-21.986,13.487,13.487,8.723,34.005,16.807,7.965,31.201,14.107,5.099,39.439,19.851,11.976,66.905,73.993
Thu Dec 05 12:38:25 2024,825,-22.161,-22.161,13.753,13.753,8.587,34.001,16.844,7.852,31.505,14.289,5.267,40.782,20.636,12.507,68.287,75.583
Thu Dec 05 12:38:25 2024,830,-22.354,-22.354,14.022,14.022,8.426,33.976,16.872,7.739,31.859,14.482,5.470,42.218,21.538,13.095,69.830,77.286
Thu Dec 05 12:38:25 2024,835,-22.478,-22.478,14.114,14.114,8.262,33.838,16.877,7.706,32.176,14.610,5.883,43.296,22.612,13.683,71.100,78.328
Thu Dec 05 12:38:25 2024,840,-22.606,-22.606,14.193,14.193,8.084,33.677,16.881,7.681,32.524,14.739,6.370,44.436,23.829,14.350,72.460,79.370
Thu Dec 05 12:38:25 2024,845,-22.733,-22.733,14.346,14.346,8.059,33.722,17.062,7.766,32.945,14.912,6.860,45.805,25.239,15.225,74.155,80.919
Thu Dec 05 12:38:25 2024,850,-22.824,-22.824,14.470,14.470,8.068,33.791,17.224,7.846,33.262,15.043,7.219,46.837,26.311,15.920,75.445,82.087
Thu Dec 05 12:38:25 2024,855,-22.823,-22.823,14.463,14.463,8.139,33.917,17.350,7.956,33.448,15.044,7.638,47.855,27.500,16.423,76.552,83.322
Thu Dec 05 12:38:25 2024,860,-22.783,-22.783,14.398,14.398,8.235,34.065,17.455,8.076,33.569,14.987,8.078,48.840,28.738,16.832,77.548,84.552
Thu Dec 05 12:38:25 2024,865,-22.751,-22.751,14.402,14.402,8.290,34.333,17.759,8.216,33.742,14.976,8.973,50.583,30.596,17.179,78.830,85.897
Thu Dec 05 12:38:25 2024,870,-22.724,-22.724,14.463,14.463,8.308,34.701,18.227,8.368,33.957,15.008,10.263,52.964,33.003,17.494,80.355,87.309
Thu Dec 05 12:38:25 2024,875,-22.681,-22.681,14.526,14.526,8.376,34.991,18.582,8.462,34.048,15.074,11.487,55.300,35.219,17.669,81.451,88.619
Thu Dec 05 12:38:25 2024,880,-22.619,-22.619,14.601,14.601,8.492,35.266,18.907,8.528,34.062,15.178,12.879,57.982,37.686,17.759,82.400,90.087
Thu Dec 05 12:38:25 2024,885,-22.629,-22.629,14.800,14.800,8.624,35.837,19.360,8.606,34.090,15.335,14.438,61.064,40.879,18.060,83.902,91.613
Thu Dec 05 12:38:25 2024,890,-22.714,-22.714,15.098,15.098,8.755,36.637,19.874,8.683,34.128,15.521,15.946,64.087,44.499,18.590,85.758,92.894
Thu Dec 05 12:38:25 2024,895,-22.788,-22.788,15.334,15.334,8.847,37.370,20.239,8.731,34.226,15.730,17.407,67.302,48.907,19.445,87.350,94.384
Thu Dec 05 12:38:25 2024,900,-22.836,-22.836,15.450,15.450,8.871,37.904,20.348,8.733,34.393,15.937,18.561,70.371,53.941,20.559,88.340,96.062
Thu Dec 05 12:38:25 2024,905,-22.883,-22.883,15.562,15.562,8.896,38.430,20.454,8.737,34.557,16.139,19.828,73.472,59.240,21.694,89.315,97.685
Thu Dec 05 12:38:25 2024,910,-23.049,-23.049,15.805,15.805,8.855,39.131,20.043,8.896,35.050,16.036,20.535,76.641,65.632,22.198,90.013,99.181
Thu Dec 05 12:38:25 2024,915,-23.159,-23.159,15.970,15.970,8.837,39.636,19.787,9.001,35.382,15.988,21.231,79.066,70.423,22.643,90.554,100.270
Thu Dec 05 12:38:25 2024,920,-23.301,-23.301,16.018,16.018,8.790,39.829,19.440,9.319,35.835,15.780,20.797,80.454,73.958,21.421,89.856,100.547
Thu Dec 05 12:38:25 2024,925,-23.455,-23.455,16.120,16.120,8.807,40.099,19.028,9.687,36.285,15.556,20.188,82.100,78.298,20.170,89.101,100.957
Thu Dec 05 12:38:25 2024,930,-23.556,-23.556,16.310,16.310,9.131,40.219,18.575,10.159,36.385,15.315,17.894,82.216,81.501,18.255,87.565,100.981
Thu Dec 05 12:38:25 2024,935,-23.671,-23.671,16.528,16.528,9.501,40.359,18.067,10.693,36.511,15.055,15.564,82.428,84.825,16.288,85.868,100.892
Thu Dec 05 12:38:25 2024,940,-23.729,-23.729,16.405,16.405,9.813,41.091,17.697,11.239,37.348,14.852,14.543,84.319,88.713,14.461,85.940,100.901
Thu Dec 05 12:38:25 2024,945,-23.771,-23.771,16.297,16.297,10.051,41.674,17.421,11.658,38.016,14.702,14.779,85.879,91.301,-14.667,86.122,100.596
Thu Dec 05 12:38:25 2024,950,-23.735,-23.735,16.198,16.198,9.974,42.534,17.893,11.879,39.030,15.107,14.379,85.100,91.923,-16.855,89.190,101.047
Thu Dec 05 12:38:25 2024,955,-23.691,-23.691,16.120,16.120,9.852,43.290,18.390,12.020,39.927,15.524,-13.938,84.115,92.132,-19.202,92.243,101.410
Thu Dec 05 12:38:25 2024,960,-23.600,-23.600,16.176,16.176,9.931,44.013,19.037,12.189,40.576,15.838,-13.385,82.973,93.073,-20.472,93.145,101.521
Thu Dec 05 12:38:25 2024,965,-23.529,-23.529,16.238,16.238,10.021,44.488,19.505,12.306,40.960,16.033,-13.003,82.188,93.850,-21.212,93.299,101.545
Thu Dec 05 12:38:25 2024,970,-23.405,-23.405,16.404,16.404,10.353,45.147,20.503,12.423,41.542,16.576,-12.378,81.053,94.252,-22.020,93.410,101.323
Thu Dec 05 12:38:25 2024,975,-23.260,-23.260,16.614,16.614,10.797,45.845,21.739,12.517,42.177,17.293,11.768,79.852,94.323,-22.761,93.470,100.973
Thu Dec 05 12:38:25 2024,980,-23.231,-23.231,16.678,16.678,11.045,46.356,22.982,12.462,42.627,18.246,11.467,79.061,93.776,-22.757,93.358,100.691
Thu Dec 05 12:38:25 2024,985,-23.248,-23.248,16.684,16.684,11.217,46.791,24.230,12.347,43.005,19.300,11.370,78.439,92.972,-22.463,93.187,100.437
Thu Dec 05 12:38:25 2024,990,-23.267,-23.267,16.723,16.723,11.407,47.234,25.416,12.243,43.383,20.557,11.210,77.618,91.966,-22.197,93.119,100.128
Thu Dec 05 12:38:25 2024,995,-23.283,-23.283,16.797,16.797,11.581,47.594,26.263,12.177,43.680,21.803,10.889,76.705,90.957,-22.027,93.192,99.816
Thu Dec 05 12:38:26 2024,0,-23.294,-23.294,16.858,16.858,11.724,47.891,26.970,12.121,43.927,22.860,10.640,75.954,90.122,-21.898,93.252,99.559
Thu Dec 05 12:38:26 2024,5,-23.421,-23.421,16.929,16.929,11.501,48.045,27.371,11.845,43.568,23.106,10.596,75.926,90.076,-21.763,93.602,99.828
Thu Dec 05 12:38:26 2024,10,-23.495,-23.495,16.960,16.960,11.375,48.179,27.747,11.676,43.437,23.529,10.478,75.691,89.869,-21.621,93.698,99.882
Thu Dec 05 12:38:26 2024,15,-23.516,-23.516,16.879,16.879,11.211,48.120,27.781,11.631,43.459,23.784,10.297,75.443,89.841,-21.295,93.243,99.763
Thu Dec 05 12:38:26 2024,20,-23.542,-23.542,16.808,16.808,11.058,48.079,27.836,11.580,43.470,24.038,10.134,75.208,89.801,-21.008,92.850,99.660
Thu Dec 05 12:38:26 2024,25,-23.662,-23.662,16.837,16.837,10.686,47.919,27.870,11.226,43.291,24.147,10.149,74.885,89.323,-20.155,92.195,99.745
Thu Dec 05 12:38:26 2024,30,-23.754,-23.754,16.851,16.851,10.394,47.800,27.899,10.957,43.161,24.249,10.160,74.622,88.963,-19.528,91.669,99.800
Thu Dec 05 12:38:26 2024,35,-23.824,-23.824,16.916,16.916,10.020,47.632,27.879,10.597,42.835,24.386,10.198,74.426,89.290,-18.420,90.536,100.370
Thu Dec 05 12:38:26 2024,40,-23.860,-23.860,16.981,16.981,9.591,47.361,27.830,10.250,42.574,24.438,10.222,74.010,89.441,-17.354,89.336,100.960
Thu Dec 05 12:38:26 2024,45,-23.878,-23.878,17.050,17.050,9.130,47.038,27.766,9.899,42.331,24.454,10.244,73.496,89.544,-10.067,88.065,101.585
Thu Dec 05 12:38:26 2024,50,-23.860,-23.860,17.114,17.114,8.684,46.665,27.682,9.603,42.162,24.398,10.272,72.875,89.526,15.418,86.869,102.166
Thu Dec 05 12:38:26 2024,55,-23.868,-23.868,17.228,17.228,8.166,45.947,27.406,9.038,41.417,24.180,9.916,71.774,88.760,14.145,84.585,102.830
Thu Dec 05 12:38:26 2024,60,-23.877,-23.877,17.332,17.332,7.699,45.283,27.150,8.516,40.716,23.983,9.587,70.761,88.020,13.324,82.484,103.346
Thu Dec 05 12:38:26 2024,65,-23.761,-23.761,17.467,17.467,7.298,44.386,26.765,8.181,40.118,23.766,9.393,69.415,86.108,12.566,80.037,102.964
Thu Dec 05 12:38:26 2024,70,-23.641,-23.641,17.619,17.619,6.926,43.469,26.351,7.876,39.532,23.540,9.275,68.068,83.935,12.080,77.675,102.293
Thu Dec 05 12:38:26 2024,75,-23.582,-23.582,17.810,17.810,6.647,42.678,25.931,7.604,38.987,23.263,9.236,66.960,81.619,11.859,75.867,101.459
Thu Dec 05 12:38:26 2024,80,-23.548,-23.548,18.065,18.065,6.370,41.801,25.423,7.295,38.354,22.905,9.252,65.779,78.736,11.790,74.038,100.293
