Timestamp,Millis,thumb_tm_aa,thumb_tm_flex,thumb_mcp_aa,thumb_mcp_flex,index_mcp_aa,index_mcp_flex,index_pip,middle_mcp_aa,middle_mcp_flex,middle_pip,ring_mcp_aa,ring_mcp_flex,ring_pip,little_mcp_aa,little_mcp_flex,little_pip
Thu Dec 05 12:40:32 2024,955,-8.446,-8.446,-6.103,-6.103,1.744,24.226,10.580,5.252,14.741,14.924,-1.954,16.653,10.972,17.182,2.742,9.884
Thu Dec 05 12:40:32 2024,960,-8.413,-8.413,-6.123,-6.123,1.755,24.250,10.586,5.248,14.745,14.922,-1.957,16.634,10.987,17.175,2.745,9.924
Thu Dec 05 12:40:32 2024,965,-8.363,-8.363,-6.153,-6.153,1.778,24.253,10.574,5.244,14.745,14.909,-1.951,16.597,11.006,17.159,2.759,9.973
Thu Dec 05 12:40:32 2024,970,-8.376,-8.376,-6.175,-6.175,1.776,24.290,10.583,5.234,14.756,14.890,-1.941,16.627,10.986,17.166,2.751,9.972
Thu Dec 05 12:40:32 2024,975,-8.427,-8.427,-6.190,-6.190,1.760,24.343,10.605,5.221,14.772,14.870,-1.930,16.694,10.945,17.186,2.730,9.939
Thu Dec 05 12:40:32 2024,980,-8.442,-8.442,-6.197,-6.197,1.771,24.357,10.615,5.231,14.764,14.881,-1.929,16.702,10.927,17.192,2.725,9.919
Thu Dec 05 12:40:32 2024,985,-8.422,-8.422,-6.196,-6.196,1.808,24.337,10.615,5.262,14.732,14.922,-1.935,16.655,10.927,17.187,2.734,9.906
Thu Dec 05 12:40:32 2024,990,-8.409,-8.409,-6.190,-6.190,1.832,24.321,10.619,5.276,14.717,14.951,-1.941,16.624,10.931,17.189,2.734,9.909
Thu Dec 05 12:40:32 2024,995,-8.418,-8.418,-6.161,-6.161,1.811,24.319,10.641,5.231,14.762,14.935,-1.944,16.653,10.951,17.219,2.698,9.970
Thu Dec 05 12:40:33 2024,0,-8.430,-8.430,-6.136,-6.136,1.794,24.321,10.664,5.196,14.796,14.923,-1.947,16.672,10.966,17.244,2.669,10.022
Thu Dec 05 12:40:33 2024,5,-8.471,-8.471,-6.112,-6.112,1.802,24.353,10.709,5.197,14.794,14.931,-1.945,16.656,10.966,17.263,2.650,10.060
Thu Dec 05 12:40:33 2024,10,-8.508,-8.508,-6.093,-6.093,1.813,24.384,10.749,5.204,14.786,14.940,-1.944,16.637,10.965,17.278,2.637,10.089
Thu Dec 05 12:40:33 2024,15,-8.503,-8.503,-6.107,-6.107,1.839,24.353,10.685,5.240,14.751,14.961,-1.916,16.658,10.970,17.245,2.673,10.080
Thu Dec 05 12:40:33 2024,20,-8.485,-8.485,-6.131,-6.131,1.871,24.305,10.590,5.286,14.708,14.987,-1.880,16.692,10.977,17.197,2.725,10.062
Thu Dec 05 12:40:33 2024,25,-8.497,-8.497,-6.148,-6.148,1.897,24.345,10.617,5.315,14.680,15.045,-1.885,16.708,11.011,17.207,2.718,10.053
Thu Dec 05 12:40:33 2024,30,-8.534,-8.534,-6.156,-6.156,1.915,24.454,10.745,5.326,14.670,15.124,-1.923,16.707,11.065,17.264,2.661,10.054
Thu Dec 05 12:40:33 2024,35,-8.548,-8.548,-6.172,-6.172,1.925,24.510,10.810,5.337,14.660,15.174,-1.949,16.682,11.091,17.304,2.623,10.056
Thu Dec 05 12:40:33 2024,40,-8.500,-8.500,-6.210,-6.210,1.918,24.429,10.722,5.346,14.650,15.154,-1.943,16.599,11.049,17.305,2.627,10.061
Thu Dec 05 12:40:33 2024,45,-8.471,-8.471,-6.228,-6.228,1.910,24.375,10.678,5.351,14.646,15.146,-1.936,16.556,11.030,17.314,2.621,10.079
Thu Dec 05 12:40:33 2024,50,-8.498,-8.498,-6.179,-6.179,1.895,24.394,10.780,5.337,14.659,15.185,-1.925,16.647,11.085,17.357,2.572,10.154
Thu Dec 05 12:40:33 2024,55,-8.524,-8.524,-6.130,-6.130,1.884,24.425,10.884,5.326,14.668,15.224,-1.916,16.736,11.140,17.393,2.528,10.224
Thu Dec 05 12:40:33 2024,60,-8.490,-8.490,-6.130,-6.130,1.914,24.467,10.876,5.360,14.636,15.234,-1.920,16.722,11.138,17.371,2.550,10.226
Thu Dec 05 12:40:33 2024,65,-8.436,-8.436,-6.140,-6.140,1.961,24.520,10.836,5.410,14.586,15.236,-1.928,16.678,11.122,17.330,2.591,10.209
Thu Dec 05 12:40:33 2024,70,-8.441,-8.441,-6.098,-6.098,1.990,24.513,10.843,5.402,14.590,15.212,-1.926,16.626,11.102,17.313,2.616,10.181
Thu Dec 05 12:40:33 2024,75,-8.476,-8.476,-6.034,-6.034,2.004,24.476,10.870,5.367,14.620,15.175,-1.918,16.576,11.083,17.311,2.627,10.151
Thu Dec 05 12:40:33 2024,80,-8.501,-8.501,-5.992,-5.992,1.998,24.424,10.879,5.352,14.631,15.137,-1.924,16.536,11.066,17.298,2.645,10.128
Thu Dec 05 12:40:33 2024,85,-8.503,-8.503,-5.995,-5.995,1.965,24.366,10.857,5.371,14.612,15.109,-1.947,16.526,11.056,17.273,2.667,10.122
Thu Dec 05 12:40:33 2024,90,-8.504,-8.504,-6.008,-6.008,1.940,24.325,10.834,5.386,14.599,15.102,-1.962,16.524,11.052,17.260,2.676,10.120
Thu Dec 05 12:40:33 2024,95,-8.508,-8.508,-6.066,-6.066,1.936,24.342,10.797,5.392,14.601,15.180,-1.947,16.553,11.071,17.293,2.641,10.128
Thu Dec 05 12:40:33 2024,100,-8.511,-8.511,-6.119,-6.119,1.936,24.362,10.766,5.396,14.601,15.253,-1.931,16.579,11.089,17.325,2.607,10.136
Thu Dec 05 12:40:33 2024,105,-8.516,-8.516,-6.110,-6.110,1.972,24.394,10.808,5.378,14.615,15.196,-1.942,16.534,11.062,17.332,2.605,10.098
Thu Dec 05 12:40:33 2024,110,-8.520,-8.520,-6.088,-6.088,2.012,24.427,10.863,5.356,14.628,15.115,-1.959,16.477,11.027,17.333,2.610,10.055
Thu Dec 05 12:40:33 2024,115,-8.500,-8.500,-6.039,-6.039,2.037,24.368,10.846,5.352,14.623,15.111,-1.964,16.407,11.026,17.280,2.671,10.049
Thu Dec 05 12:40:33 2024,120,-8.471,-8.471,-5.986,-5.986,2.052,24.274,10.796,5.356,14.612,15.146,-1.962,16.342,11.043,17.207,2.750,10.063
Thu Dec 05 12:40:33 2024,125,-8.478,-8.478,-5.998,-5.998,2.025,24.276,10.812,5.375,14.597,15.180,-1.961,16.355,11.055,17.215,2.744,10.056
Thu Dec 05 12:40:33 2024,130,-8.511,-8.511,-6.062,-6.062,1.972,24.356,10.877,5.402,14.581,15.205,-1.963,16.429,11.061,17.286,2.670,10.032
Thu Dec 05 12:40:33 2024,135,-8.532,-8.532,-6.123,-6.123,1.927,24.427,10.931,5.421,14.569,15.226,-1.966,16.491,11.062,17.349,2.605,10.016
Thu Dec 05 12:40:33 2024,140,-8.478,-8.478,-6.122,-6.122,1.960,24.380,10.884,5.391,14.595,15.211,-1.973,16.443,11.044,17.320,2.632,10.046
Thu Dec 05 12:40:33 2024,145,-8.436,-8.436,-6.112,-6.112,1.981,24.344,10.846,5.360,14.622,15.192,-1.981,16.414,11.030,17.296,2.654,10.072
Thu Dec 05 12:40:33 2024,150,-8.433,-8.433,-6.067,-6.067,1.963,24.336,10.836,5.326,14.656,15.157,-1.996,16.447,11.034,17.290,2.659,10.086
Thu Dec 05 12:40:33 2024,155,-8.438,-8.438,-6.016,-6.016,1.938,24.334,10.830,5.290,14.691,15.120,-2.012,16.491,11.040,17.287,2.660,10.098
Thu Dec 05 12:40:33 2024,160,-8.438,-8.438,-6.044,-6.044,1.928,24.287,10.802,5.291,14.684,15.048,-2.026,16.421,11.003,17.305,2.642,10.100
Thu Dec 05 12:40:33 2024,165,-8.436,-8.436,-6.113,-6.113,1.926,24.214,10.762,5.310,14.655,14.955,-2.040,16.289,10.942,17.333,2.614,10.098
Thu Dec 05 12:40:33 2024,170,-8.430,-8.430,-6.119,-6.119,1.955,24.215,10.764,5.331,14.634,14.958,-2.027,16.256,10.924,17.341,2.607,10.088
Thu Dec 05 12:40:33 2024,175,-8.421,-8.421,-6.077,-6.077,2.007,24.272,10.797,5.354,14.621,15.035,-1.995,16.297,10.936,17.334,2.613,10.072
Thu Dec 05 12:40:33 2024,180,-8.413,-8.413,-6.044,-6.044,2.038,24.326,10.827,5.366,14.616,15.098,-1.975,16.355,10.955,17.329,2.617,10.063
Thu Dec 05 12:40:33 2024,185,-8.412,-8.412,-6.049,-6.049,1.985,24.366,10.843,5.333,14.653,15.105,-2.009,16.477,10.995,17.333,2.609,10.082
Thu Dec 05 12:40:33 2024,190,-8.411,-8.411,-6.053,-6.053,1.943,24.397,10.854,5.308,14.681,15.111,-2.036,16.570,11.028,17.335,2.601,10.098
Thu Dec 05 12:40:33 2024,195,-8.440,-8.440,-6.062,-6.062,2.000,24.332,10.810,5.370,14.620,15.158,-2.016,16.463,11.025,17.342,2.595,10.122
Thu Dec 05 12:40:33 2024,200,-8.465,-8.465,-6.069,-6.069,2.049,24.277,10.772,5.424,14.567,15.199,-1.999,16.368,11.022,17.347,2.590,10.143
Thu Dec 05 12:40:33 2024,205,-8.474,-8.474,-6.054,-6.054,2.038,24.229,10.766,5.424,14.562,15.169,-1.997,16.350,11.024,17.336,2.602,10.162
Thu Dec 05 12:40:33 2024,210,-8.477,-8.477,-6.031,-6.031,2.006,24.182,10.772,5.407,14.572,15.115,-2.001,16.358,11.026,17.318,2.619,10.182
Thu Dec 05 12:40:33 2024,215,-8.483,-8.483,-6.054,-6.054,1.971,24.193,10.768,5.374,14.605,15.072,-1.999,16.420,11.030,17.337,2.596,10.179
Thu Dec 05 12:40:33 2024,220,-8.488,-8.488,-6.100,-6.100,1.941,24.239,10.760,5.338,14.646,15.045,-1.994,16.502,11.034,17.374,2.552,10.162
Thu Dec 05 12:40:33 2024,225,-8.487,-8.487,-6.123,-6.123,1.923,24.272,10.743,5.321,14.667,15.042,-1.984,16.569,11.046,17.408,2.513,10.163
Thu Dec 05 12:40:33 2024,230,-8.468,-8.468,-6.088,-6.088,1.937,24.266,10.712,5.353,14.638,15.094,-1.964,16.592,11.077,17.430,2.492,10.205
Thu Dec 05 12:40:33 2024,235,-8.450,-8.450,-6.051,-6.051,1.957,24.265,10.687,5.381,14.613,15.127,-1.946,16.598,11.091,17.442,2.481,10.229
Thu Dec 05 12:40:33 2024,240,-8.433,-8.433,-5.997,-5.997,2.008,24.287,10.678,5.392,14.598,15.080,-1.936,16.528,11.036,17.416,2.514,10.177
Thu Dec 05 12:40:33 2024,245,-8.413,-8.413,-5.932,-5.932,2.069,24.314,10.666,5.406,14.579,15.022,-1.926,16.441,10.970,17.384,2.552,10.113
Thu Dec 05 12:40:33 2024,250,-8.409,-8.409,-5.975,-5.975,2.052,24.306,10.665,5.445,14.545,15.071,-1.914,16.452,10.998,17.406,2.530,10.148
Thu Dec 05 12:40:33 2024,255,-8.408,-8.408,-6.034,-6.034,2.023,24.292,10.665,5.485,14.509,15.134,-1.904,16.476,11.040,17.435,2.498,10.196
Thu Dec 05 12:40:33 2024,260,-8.419,-8.419,-6.072,-6.072,1.994,24.296,10.680,5.483,14.512,15.152,-1.908,16.537,11.070,17.443,2.487,10.214
Thu Dec 05 12:40:33 2024,265,-8.438,-8.438,-6.100,-6.100,1.961,24.310,10.704,5.456,14.541,15.147,-1.922,16.624,11.096,17.440,2.484,10.214
Thu Dec 05 12:40:33 2024,270,-8.453,-8.453,-6.092,-6.092,1.948,24.294,10.709,5.442,14.556,15.127,-1.930,16.619,11.095,17.423,2.501,10.203
Thu Dec 05 12:40:33 2024,275,-8.462,-8.462,-6.026,-6.026,1.969,24.230,10.683,5.447,14.546,15.083,-1.931,16.468,11.050,17.383,2.552,10.174
Thu Dec 05 12:40:33 2024,280,-8.467,-8.467,-5.989,-5.989,1.996,24.185,10.661,5.452,14.536,15.050,-1.925,16.336,11.009,17.361,2.582,10.150
Thu Dec 05 12:40:33 2024,285,-8.455,-8.455,-6.083,-6.083,2.024,24.238,10.672,5.453,14.537,15.078,-1.902,16.386,11.017,17.418,2.522,10.161
Thu Dec 05 12:40:33 2024,290,-8.446,-8.446,-6.165,-6.165,2.048,24.285,10.679,5.453,14.538,15.102,-1.881,16.433,11.023,17.470,2.466,10.172
Thu Dec 05 12:40:33 2024,295,-8.495,-8.495,-6.115,-6.115,2.029,24.277,10.622,5.436,14.559,15.077,-1.889,16.490,11.015,17.497,2.436,10.181
Thu Dec 05 12:40:33 2024,300,-8.538,-8.538,-6.059,-6.059,2.008,24.262,10.572,5.422,14.575,15.052,-1.900,16.531,11.007,17.511,2.420,10.187
Thu Dec 05 12:40:33 2024,305,-8.532,-8.532,-6.053,-6.053,2.005,24.272,10.505,5.418,14.579,15.022,-1.902,16.528,11.003,17.504,2.424,10.191
Thu Dec 05 12:40:33 2024,310,-8.489,-8.489,-6.089,-6.089,2.019,24.298,10.437,5.424,14.572,14.993,-1.898,16.492,11.005,17.481,2.442,10.194
Thu Dec 05 12:40:33 2024,315,-8.469,-8.469,-6.096,-6.096,2.030,24.289,10.429,5.434,14.561,15.003,-1.888,16.476,11.015,17.451,2.473,10.189
Thu Dec 05 12:40:33 2024,320,-8.484,-8.484,-6.060,-6.060,2.040,24.223,10.511,5.452,14.544,15.073,-1.871,16.489,11.042,17.406,2.523,10.173
Thu Dec 05 12:40:33 2024,325,-8.495,-8.495,-6.044,-6.044,2.015,24.188,10.551,5.463,14.534,15.119,-1.864,16.512,11.051,17.393,2.536,10.163
Thu Dec 05 12:40:33 2024,330,-8.501,-8.501,-6.064,-6.064,1.927,24.221,10.510,5.464,14.536,15.111,-1.879,16.552,11.024,17.447,2.474,10.161
Thu Dec 05 12:40:33 2024,335,-8.505,-8.505,-6.084,-6.084,1.847,24.256,10.469,5.463,14.536,15.102,-1.893,16.587,10.999,17.497,2.415,10.160
Thu Dec 05 12:40:33 2024,340,-8.483,-8.483,-6.052,-6.052,1.885,24.245,10.424,5.483,14.516,15.110,-1.864,16.546,10.993,17.504,2.410,10.173
Thu Dec 05 12:40:33 2024,345,-8.459,-8.459,-6.017,-6.017,1.935,24.230,10.383,5.504,14.496,15.119,-1.833,16.498,10.989,17.506,2.411,10.187
Thu Dec 05 12:40:33 2024,350,-8.460,-8.460,-6.067,-6.067,1.914,24.235,10.351,5.468,14.532,15.073,-1.844,16.556,10.997,17.480,2.438,10.159
Thu Dec 05 12:40:33 2024,355,-8.470,-8.470,-6.148,-6.148,1.867,24.246,10.323,5.411,14.588,15.007,-1.870,16.651,11.009,17.446,2.474,10.117
Thu Dec 05 12:40:33 2024,360,-8.461,-8.461,-6.194,-6.194,1.844,24.208,10.277,5.380,14.620,14.983,-1.906,16.603,10.976,17.430,2.494,10.079
Thu Dec 05 12:40:33 2024,365,-8.437,-8.437,-6.199,-6.199,1.846,24.136,10.225,5.376,14.624,14.998,-1.943,16.445,10.912,17.433,2.495,10.053
Thu Dec 05 12:40:33 2024,370,-8.432,-8.432,-6.198,-6.198,1.854,24.110,10.202,5.379,14.620,15.003,-1.966,16.336,10.868,17.456,2.474,10.039
Thu Dec 05 12:40:33 2024,375,-8.499,-8.499,-6.176,-6.176,1.875,24.251,10.291,5.400,14.600,14.962,-1.932,16.451,10.912,17.543,2.382,10.069
Thu Dec 05 12:40:33 2024,380,-8.542,-8.542,-6.163,-6.163,1.896,24.358,10.337,5.421,14.579,14.941,-1.900,16.543,10.941,17.602,2.318,10.090
Thu Dec 05 12:40:33 2024,385,-8.552,-8.552,-6.163,-6.163,1.923,24.430,10.319,5.450,14.550,14.948,-1.864,16.622,10.950,17.628,2.288,10.102
Thu Dec 05 12:40:33 2024,390,-8.539,-8.539,-6.167,-6.167,1.954,24.476,10.265,5.478,14.520,14.974,-1.827,16.680,10.946,17.629,2.282,10.109
Thu Dec 05 12:40:33 2024,395,-8.524,-8.524,-6.138,-6.138,1.970,24.458,10.292,5.437,14.564,14.985,-1.842,16.602,10.946,17.584,2.329,10.123
Thu Dec 05 12:40:33 2024,400,-8.509,-8.509,-6.099,-6.099,1.985,24.422,10.339,5.375,14.624,14.993,-1.870,16.484,10.947,17.524,2.391,10.140
Thu Dec 05 12:40:33 2024,405,-8.524,-8.524,-6.098,-6.098,2.080,24.614,10.503,5.331,14.664,15.012,-1.882,16.467,10.969,17.501,2.410,10.178
Thu Dec 05 12:40:33 2024,410,-8.562,-8.562,-6.129,-6.129,2.245,25.000,10.771,5.298,14.690,15.039,-1.883,16.529,11.009,17.507,2.397,10.235
Thu Dec 05 12:40:33 2024,415,-8.623,-8.623,-6.099,-6.099,2.483,25.401,11.038,5.255,14.719,15.048,-1.847,16.566,11.037,17.524,2.380,10.282
Thu Dec 05 12:40:33 2024,420,-8.752,-8.752,-5.958,-5.958,2.965,26.053,11.451,5.172,14.755,15.036,-1.735,16.581,11.063,17.569,2.349,10.339
Thu Dec 05 12:40:33 2024,425,-8.893,-8.893,-5.822,-5.822,3.577,26.842,11.982,5.088,14.767,15.050,-1.661,16.524,11.060,17.604,2.333,10.362
Thu Dec 05 12:40:33 2024,430,-9.092,-9.092,-5.715,-5.715,4.838,28.319,13.110,4.998,14.740,15.195,-1.776,16.142,10.924,17.594,2.386,10.222
Thu Dec 05 12:40:33 2024,435,-9.319,-9.319,-5.604,-5.604,6.349,30.105,14.504,4.903,14.660,15.372,-1.931,15.682,10.764,17.567,2.434,10.055
Thu Dec 05 12:40:33 2024,440,-9.483,-9.483,-5.701,-5.701,8.644,33.224,18.529,5.339,14.039,15.480,-2.118,15.282,10.575,17.414,2.579,10.074
Thu Dec 05 12:40:33 2024,445,-9.602,-9.602,-5.809,-5.809,10.640,35.962,22.321,5.764,13.458,15.555,-2.273,14.973,10.424,17.269,2.692,10.117
Thu Dec 05 12:40:33 2024,450,-9.820,-9.820,-5.877,-5.877,11.952,39.852,29.513,6.373,12.899,15.167,-2.292,15.023,10.252,17.120,2.799,9.929
Thu Dec 05 12:40:33 2024,455,-10.084,-10.084,-5.912,-5.912,12.658,44.426,39.830,7.037,12.399,14.508,-2.208,15.324,10.089,16.984,2.895,9.586
Thu Dec 05 12:40:33 2024,460,-10.192,-10.192,-6.188,-6.188,12.548,48.532,50.740,7.462,12.058,14.073,-2.039,15.732,10.005,16.863,2.975,9.175
Thu Dec 05 12:40:33 2024,465,-10.090,-10.090,-6.727,-6.727,11.282,51.693,61.676,7.551,11.974,13.950,-1.784,16.225,10.030,16.778,3.027,8.735
Thu Dec 05 12:40:33 2024,470,-9.964,-9.964,-7.084,-7.084,10.407,55.280,71.660,7.631,12.006,13.867,-1.588,16.609,9.912,16.682,3.084,8.271
Thu Dec 05 12:40:33 2024,475,-9.815,-9.815,-6.925,-6.925,10.811,58.166,74.555,7.662,12.220,13.895,-1.580,16.659,9.470,16.584,3.142,7.840
Thu Dec 05 12:40:33 2024,480,-9.641,-9.641,-6.710,-6.710,11.320,62.027,78.612,7.708,12.282,13.982,-1.554,16.751,8.987,16.486,3.197,7.407
Thu Dec 05 12:40:33 2024,485,-9.505,-9.505,-6.454,-6.454,11.279,65.730,83.910,7.904,11.936,14.422,-1.423,17.029,9.149,16.588,3.151,7.891
Thu Dec 05 12:40:33 2024,490,-9.397,-9.397,-6.171,-6.171,11.259,69.970,89.657,8.110,28.706,14.982,-1.268,17.364,9.444,16.729,3.080,8.591
Thu Dec 05 12:40:33 2024,495,-9.327,-9.327,-5.987,-5.987,11.603,73.391,92.835,8.764,29.852,15.448,-1.118,17.788,9.673,16.747,3.059,8.929
Thu Dec 05 12:40:33 2024,500,-9.262,-9.262,-5.839,-5.839,12.224,76.631,94.868,9.690,31.300,15.901,-0.960,18.277,9.887,16.705,3.058,9.111
Thu Dec 05 12:40:33 2024,505,-9.161,-9.161,-5.694,-5.694,13.254,79.719,96.291,10.547,32.679,16.314,-0.916,18.669,10.022,16.616,3.099,9.130
Thu Dec 05 12:40:33 2024,510,-9.004,-9.004,-5.557,-5.557,14.687,82.363,97.028,11.283,33.877,16.646,-1.034,18.836,10.028,16.457,3.201,8.912
Thu Dec 05 12:40:33 2024,515,-8.871,-8.871,-5.389,-5.389,16.099,84.894,97.500,11.910,34.930,16.943,-1.153,21.166,10.042,16.259,3.334,8.674
Thu Dec 05 12:40:33 2024,520,-8.821,-8.821,-5.123,-5.123,16.921,86.797,97.478,12.100,35.358,17.067,-1.276,21.293,10.071,15.939,3.572,8.367
Thu Dec 05 12:40:33 2024,525,-8.789,-8.789,-4.906,-4.906,17.681,88.362,97.392,12.258,35.718,17.174,-1.377,21.454,10.098,15.675,3.763,8.116
Thu Dec 05 12:40:33 2024,530,-8.901,-8.901,-4.513,-4.513,18.739,89.769,97.066,12.398,36.168,17.482,-1.422,21.554,10.135,15.384,3.982,7.912
Thu Dec 05 12:40:33 2024,535,-9.015,-9.015,-4.174,-4.174,19.660,90.877,96.760,12.507,36.550,17.764,-1.451,21.629,10.167,15.146,4.159,7.755
Thu Dec 05 12:40:33 2024,540,-9.182,-9.182,-3.995,-3.995,20.364,91.715,96.576,12.635,36.950,18.105,-1.470,21.741,10.224,14.927,4.367,7.594
Thu Dec 05 12:40:33 2024,545,-9.334,-9.334,-3.891,-3.891,20.898,92.338,96.454,12.749,37.292,18.408,-1.483,21.857,10.280,14.752,4.549,7.460
Thu Dec 05 12:40:33 2024,550,-9.525,-9.525,-3.780,-3.780,21.667,93.020,96.401,12.875,37.694,18.781,-1.410,21.970,10.389,14.644,4.675,7.379
Thu Dec 05 12:40:33 2024,555,-9.730,-9.730,-3.669,-3.669,22.533,93.719,96.375,13.004,38.116,19.178,-1.301,22.093,10.518,14.566,4.776,7.323
Thu Dec 05 12:40:33 2024,560,-9.887,-9.887,-3.612,-3.612,23.261,94.302,96.333,13.130,38.480,19.488,-1.202,22.234,10.614,14.543,4.813,7.269
Thu Dec 05 12:40:33 2024,565,-10.005,-10.005,-3.640,-3.640,23.908,94.922,96.208,13.314,38.880,19.736,-1.119,22.429,10.659,14.582,4.773,7.159
Thu Dec 05 12:40:33 2024,570,-10.124,-10.124,-3.676,-3.676,24.561,95.544,96.076,13.502,39.284,19.982,-1.038,22.642,10.700,14.625,4.726,7.045
Thu Dec 05 12:40:33 2024,575,-10.182,-10.182,-3.767,-3.767,25.115,96.016,95.937,13.635,39.581,20.207,-0.891,22.909,10.854,14.671,4.724,7.048
Thu Dec 05 12:40:33 2024,580,-10.240,-10.240,-3.852,-3.852,25.632,96.449,95.805,13.756,39.853,20.417,-0.756,23.177,10.999,14.712,4.722,7.054
Thu Dec 05 12:40:33 2024,585,-10.296,-10.296,-3.926,-3.926,26.035,96.896,95.718,13.843,40.089,20.607,-0.604,23.516,11.093,14.798,4.678,7.067
Thu Dec 05 12:40:33 2024,590,-10.347,-10.347,-3.987,-3.987,26.355,97.296,95.655,13.909,40.285,20.770,-0.466,23.850,11.157,14.889,4.622,7.081
Thu Dec 05 12:40:33 2024,595,-10.379,-10.379,-4.100,-4.100,26.593,97.512,95.583,13.990,40.438,20.888,-0.302,24.042,11.188,14.911,4.611,7.061
Thu Dec 05 12:40:33 2024,600,-10.393,-10.393,-4.238,-4.238,26.744,97.572,95.516,14.073,40.543,20.960,-0.138,24.111,11.192,14.881,4.636,7.020
Thu Dec 05 12:40:33 2024,605,-10.420,-10.420,-4.344,-4.344,26.667,97.535,95.459,14.102,40.618,21.022,0.056,24.199,11.198,14.858,4.645,6.976
Thu Dec 05 12:40:33 2024,610,-10.453,-10.453,-4.359,-4.359,26.274,97.368,95.443,14.035,40.614,21.039,0.148,24.269,11.204,14.856,4.626,6.951
Thu Dec 05 12:40:33 2024,615,-10.479,-10.479,-4.383,-4.383,25.814,97.147,95.434,13.955,40.587,21.040,0.250,24.346,11.212,14.849,4.615,6.932
Thu Dec 05 12:40:33 2024,620,-10.442,-10.442,-4.455,-4.455,25.258,96.739,95.495,13.861,40.424,20.932,0.281,24.387,11.224,14.813,4.663,6.978
Thu Dec 05 12:40:33 2024,625,-10.403,-10.403,-4.531,-4.531,24.676,96.305,95.557,13.761,40.251,20.816,0.315,24.430,11.236,14.775,4.714,7.027
Thu Dec 05 12:40:33 2024,630,-10.358,-10.358,-4.648,-4.648,23.762,95.530,95.630,13.570,39.933,20.576,0.384,24.393,11.233,14.742,4.713,6.962
Thu Dec 05 12:40:33 2024,635,-10.324,-10.324,-4.744,-4.744,23.030,94.882,95.678,13.408,39.668,20.373,0.441,24.346,11.226,14.718,4.697,6.884
Thu Dec 05 12:40:33 2024,640,-10.239,-10.239,-4.849,-4.849,22.257,94.145,95.806,13.160,39.297,20.073,0.476,24.285,11.161,14.694,4.712,6.868
Thu Dec 05 12:40:33 2024,645,-10.120,-10.120,-4.955,-4.955,21.517,93.396,95.987,12.859,38.869,19.719,0.490,24.220,11.053,14.670,4.751,6.903
Thu Dec 05 12:40:33 2024,650,-10.006,-10.006,-5.063,-5.063,20.684,92.545,96.196,12.623,38.436,19.386,0.557,24.071,10.946,14.655,4.738,6.870
Thu Dec 05 12:40:33 2024,655,-9.907,-9.907,-5.168,-5.168,19.800,91.636,96.422,12.476,38.029,19.101,0.678,23.836,10.844,14.651,4.666,6.757
Thu Dec 05 12:40:33 2024,660,-9.816,-9.816,-5.274,-5.274,18.885,90.653,96.662,12.304,37.616,18.802,0.794,23.644,10.745,14.649,4.596,6.658
Thu Dec 05 12:40:33 2024,665,-9.810,-9.810,-5.347,-5.347,17.886,89.491,96.999,12.024,37.299,18.475,0.840,23.792,10.707,14.672,4.597,6.703
Thu Dec 05 12:40:33 2024,670,-9.800,-9.800,-5.423,-5.423,16.882,88.260,97.316,11.733,36.960,18.133,0.894,23.938,10.661,14.696,4.596,6.742
Thu Dec 05 12:40:33 2024,675,-9.764,-9.764,-5.476,-5.476,16.084,87.188,97.484,11.522,36.604,17.822,0.997,23.985,10.576,14.709,4.584,6.710
Thu Dec 05 12:40:33 2024,680,-9.722,-9.722,-5.526,-5.526,15.331,86.116,97.607,11.322,36.232,17.511,1.115,24.012,10.477,14.719,4.570,6.660
Thu Dec 05 12:40:33 2024,685,-9.706,-9.706,-5.575,-5.575,14.397,84.898,97.699,10.995,35.807,17.096,1.229,24.257,10.409,14.644,4.689,6.660
Thu Dec 05 12:40:33 2024,690,-9.710,-9.710,-5.608,-5.608,13.712,84.018,97.738,10.714,35.499,16.768,1.304,24.528,10.380,14.552,4.834,6.684
Thu Dec 05 12:40:33 2024,695,-9.734,-9.734,-5.636,-5.636,13.006,82.873,97.580,10.436,35.142,16.499,1.364,24.732,10.327,14.454,4.978,6.630
Thu Dec 05 12:40:33 2024,700,-9.778,-9.778,-5.652,-5.652,12.422,81.682,97.226,10.221,34.805,16.350,1.393,24.821,10.261,14.369,5.094,6.498
Thu Dec 05 12:40:33 2024,705,-9.821,-9.821,-5.693,-5.693,11.667,79.897,96.379,10.004,34.426,16.171,1.430,24.907,10.150,14.276,5.210,6.271
Thu Dec 05 12:40:33 2024,710,-9.841,-9.841,-5.764,-5.764,10.966,77.694,94.772,9.913,34.165,16.022,1.465,24.935,9.990,14.215,5.262,5.935
Thu Dec 05 12:40:33 2024,715,-9.868,-9.868,-5.837,-5.837,10.391,75.576,92.987,9.829,33.916,15.885,1.506,24.969,9.846,14.166,5.303,5.616
Thu Dec 05 12:40:33 2024,720,-9.906,-9.906,-5.978,-5.978,9.181,72.486,88.925,9.930,33.710,15.770,1.774,25.159,9.955,14.340,5.095,5.370
Thu Dec 05 12:40:33 2024,725,-9.971,-9.971,-6.159,-6.159,7.882,68.762,83.545,10.050,33.459,15.632,2.111,25.407,10.094,14.557,4.834,5.065
Thu Dec 05 12:40:33 2024,730,-9.826,-9.826,-6.046,-6.046,7.482,68.075,80.048,9.923,32.964,15.388,2.165,25.178,10.100,14.375,4.984,4.877
Thu Dec 05 12:40:33 2024,735,-9.614,-9.614,-5.829,-5.829,7.195,67.951,76.126,9.705,32.286,15.048,2.162,24.771,10.074,14.045,5.275,4.669
Thu Dec 05 12:40:33 2024,740,-9.433,-9.433,-5.544,-5.544,6.648,65.042,68.308,9.518,31.798,14.919,1.937,24.150,10.015,13.730,5.651,4.773
Thu Dec 05 12:40:33 2024,745,-9.261,-9.261,-5.096,-5.096,6.269,58.818,54.318,9.307,31.330,14.960,1.432,23.097,9.911,13.309,6.238,5.214
Thu Dec 05 12:40:33 2024,750,-9.165,-9.165,-4.747,-4.747,6.271,53.593,43.550,8.938,30.638,14.822,1.060,22.225,9.779,12.936,6.728,5.611
Thu Dec 05 12:40:33 2024,755,-9.067,-9.067,-4.661,-4.661,6.070,49.946,36.375,8.241,29.526,14.303,0.966,21.852,9.585,12.745,6.959,5.894
Thu Dec 05 12:40:33 2024,760,-8.973,-8.973,-4.576,-4.576,5.944,46.199,29.642,7.504,28.378,13.756,0.885,21.486,9.395,12.553,7.193,6.197
Thu Dec 05 12:40:33 2024,765,-8.932,-8.932,-4.589,-4.589,5.480,43.541,25.845,6.791,27.452,13.879,1.228,21.733,9.546,12.748,7.063,6.446
Thu Dec 05 12:40:33 2024,770,-8.903,-8.903,-4.603,-4.603,5.101,41.268,22.747,6.171,26.656,13.977,1.524,21.969,9.677,12.914,6.944,6.659
Thu Dec 05 12:40:33 2024,775,-8.884,-8.884,-4.678,-4.678,4.788,39.372,20.274,5.728,26.058,13.956,1.834,22.262,9.802,13.125,6.792,6.867
Thu Dec 05 12:40:33 2024,780,-8.879,-8.879,-4.777,-4.777,4.513,37.696,18.132,5.374,25.575,13.879,2.145,22.575,9.923,13.354,6.612,7.069
Thu Dec 05 12:40:33 2024,785,-8.902,-8.902,-4.898,-4.898,4.085,35.765,15.892,5.013,14.896,13.750,2.424,22.832,10.067,13.585,6.408,7.204
Thu Dec 05 12:40:33 2024,790,-8.954,-8.954,-4.993,-4.993,3.604,34.319,14.445,4.811,15.146,13.606,2.518,22.874,10.178,13.713,6.286,7.166
Thu Dec 05 12:40:33 2024,795,-9.035,-9.035,-5.106,-5.106,3.061,32.688,12.940,4.622,15.368,13.451,2.642,22.950,10.308,13.840,6.160,7.146
Thu Dec 05 12:40:33 2024,800,-9.110,-9.110,-5.191,-5.191,2.737,31.677,12.272,4.627,15.370,13.374,2.768,23.060,10.391,13.868,6.129,7.206
Thu Dec 05 12:40:33 2024,805,-9.208,-9.208,-5.292,-5.292,2.346,30.473,11.492,4.636,15.364,13.279,2.919,23.197,10.493,13.906,6.083,7.272
Thu Dec 05 12:40:33 2024,810,-9.228,-9.228,-5.362,-5.362,2.042,29.482,10.926,4.704,15.290,13.136,3.037,23.368,10.622,13.988,5.994,7.225
Thu Dec 05 12:40:33 2024,815,-9.239,-9.239,-5.428,-5.428,1.752,28.543,10.406,4.781,15.201,12.988,3.150,23.544,10.754,14.075,5.898,7.160
Thu Dec 05 12:40:33 2024,820,-9.237,-9.237,-5.452,-5.452,1.437,27.627,9.957,4.887,15.084,12.897,3.237,23.688,10.871,14.094,5.870,7.155
Thu Dec 05 12:40:33 2024,825,-9.227,-9.227,-5.451,-5.451,1.146,26.839,9.602,4.998,14.970,12.848,3.301,23.797,10.966,14.072,5.884,7.185
Thu Dec 05 12:40:33 2024,830,-9.220,-9.220,-5.450,-5.450,0.905,26.194,9.313,5.089,14.876,12.808,3.353,23.887,11.043,14.054,5.895,7.210
Thu Dec 05 12:40:33 2024,835,-9.183,-9.183,-5.380,-5.380,0.887,25.674,9.110,5.232,14.725,12.803,3.414,23.907,11.095,14.076,5.867,7.247
Thu Dec 05 12:40:33 2024,840,-9.154,-9.154,-5.339,-5.339,0.760,25.105,8.866,5.347,14.606,12.778,3.469,23.958,11.147,14.082,5.850,7.287
Thu Dec 05 12:40:33 2024,845,-9.132,-9.132,-5.339,-5.339,0.568,24.722,8.668,5.385,14.576,12.739,3.493,24.020,11.164,14.072,5.842,7.326
Thu Dec 05 12:40:33 2024,850,-9.111,-9.111,-5.345,-5.345,0.381,24.302,8.464,5.438,14.532,12.696,3.518,24.069,11.162,14.068,5.829,7.346
Thu Dec 05 12:40:33 2024,855,-9.099,-9.099,-5.374,-5.374,0.262,23.842,8.290,5.527,14.448,12.655,3.541,24.054,11.092,14.083,5.813,7.290
Thu Dec 05 12:40:33 2024,860,-9.092,-9.092,-5.411,-5.411,0.171,23.378,8.132,5.629,14.350,12.615,3.562,24.016,10.998,14.105,5.796,7.206
Thu Dec 05 12:40:33 2024,865,-9.123,-9.123,-5.371,-5.371,-0.015,22.744,7.980,5.686,14.298,12.560,3.527,23.983,10.926,14.162,5.739,7.197
Thu Dec 05 12:40:33 2024,870,-9.163,-9.163,-5.306,-5.306,-0.217,22.162,7.853,5.713,14.276,12.510,3.474,23.959,10.875,14.225,5.675,7.222
Thu Dec 05 12:40:33 2024,875,-9.210,-9.210,-5.299,-5.299,-0.376,21.595,7.760,5.848,14.146,12.546,3.465,23.943,10.830,14.258,5.647,7.211
Thu Dec 05 12:40:33 2024,880,-9.263,-9.263,-5.331,-5.331,-0.511,21.086,7.692,6.050,13.948,12.638,3.484,23.932,10.789,14.270,5.644,7.176
Thu Dec 05 12:40:33 2024,885,-9.330,-9.330,-5.339,-5.339,-0.650,20.744,7.630,6.214,13.786,12.688,3.522,23.953,10.744,14.335,5.587,7.139
Thu Dec 05 12:40:33 2024,890,-9.411,-9.411,-5.311,-5.311,-0.807,20.651,7.575,6.300,13.701,12.657,3.589,24.036,10.693,14.506,5.421,7.106
Thu Dec 05 12:40:33 2024,895,-9.405,-9.405,-5.339,-5.339,-0.944,19.965,7.526,6.367,13.631,12.658,3.612,24.096,10.678,14.614,5.312,7.100
Thu Dec 05 12:40:33 2024,900,-9.400,-9.400,-5.368,-5.368,-1.080,19.279,7.477,6.435,13.561,12.658,3.636,24.156,10.662,14.721,5.202,7.094
Thu Dec 05 12:40:33 2024,905,-9.394,-9.394,-5.397,-5.397,-1.216,18.593,7.428,6.503,13.491,12.659,3.660,24.216,10.647,14.829,5.093,7.087
Thu Dec 05 12:40:33 2024,910,-9.388,-9.388,-5.425,-5.425,-1.353,17.907,7.379,6.570,13.421,12.660,3.683,24.276,10.632,14.936,4.984,7.081
Thu Dec 05 12:40:33 2024,915,-9.374,-9.374,-5.439,-5.439,-1.407,17.654,7.377,6.638,13.351,12.706,3.667,24.282,10.655,14.973,4.947,7.114
Thu Dec 05 12:40:33 2024,920,-9.357,-9.357,-5.398,-5.398,-1.434,17.420,7.364,6.680,13.312,12.705,3.611,24.224,10.641,14.980,4.945,7.123
Thu Dec 05 12:40:33 2024,925,-9.341,-9.341,-5.353,-5.353,-1.457,17.187,7.349,6.714,13.280,12.695,3.554,24.162,10.620,14.984,4.946,7.126
Thu Dec 05 12:40:33 2024,930,-9.350,-9.350,-5.336,-5.336,-1.442,16.975,7.337,6.742,13.251,12.679,3.515,24.108,10.564,14.999,4.941,7.074
Thu Dec 05 12:40:33 2024,935,-9.397,-9.397,-5.406,-5.406,-1.383,16.798,7.352,6.811,13.173,12.720,3.510,24.100,10.495,15.050,4.905,6.970
Thu Dec 05 12:40:33 2024,940,-9.459,-9.459,-5.456,-5.456,-1.327,16.571,7.354,6.884,13.087,12.759,3.524,24.118,10.424,15.101,4.866,6.864
Thu Dec 05 12:40:33 2024,945,-9.559,-9.559,-5.412,-5.412,-1.285,16.135,7.302,6.966,12.987,12.779,3.581,24.202,10.332,15.148,4.823,6.753
Thu Dec 05 12:40:33 2024,950,-9.655,-9.655,-5.358,-5.358,-1.251,15.706,7.245,7.039,12.893,12.792,3.638,24.287,10.248,15.188,4.785,6.653
Thu Dec 05 12:40:33 2024,955,-9.847,-9.847,-5.286,-5.286,-1.281,15.108,7.246,7.186,12.725,12.845,3.710,24.337,10.136,15.178,4.804,6.542
Thu Dec 05 12:40:33 2024,960,-10.031,-10.031,-5.223,-5.223,-1.327,14.582,7.267,7.327,12.568,12.900,3.772,24.364,10.038,15.152,4.838,6.450
Thu Dec 05 12:40:33 2024,965,-10.154,-10.154,-5.156,-5.156,-1.364,14.173,7.162,7.501,12.362,12.889,3.882,24.464,9.909,15.146,4.849,6.261
Thu Dec 05 12:40:33 2024,970,-10.238,-10.238,-5.095,-5.095,-1.393,13.858,7.016,7.672,12.154,12.851,4.001,24.583,9.780,15.148,4.849,6.052
Thu Dec 05 12:40:33 2024,975,-10.305,-10.305,-5.025,-5.025,-1.413,13.569,6.890,7.836,11.956,12.818,4.098,24.674,9.683,15.176,4.822,5.917
Thu Dec 05 12:40:33 2024,980,-10.338,-10.338,-4.962,-4.962,-1.418,13.372,6.813,7.953,11.812,12.796,4.151,24.715,9.641,15.226,4.773,5.889
Thu Dec 05 12:40:33 2024,985,-10.374,-10.374,-4.911,-4.911,-1.424,13.172,6.733,8.085,28.350,12.782,4.208,24.758,9.586,15.279,4.721,5.842
Thu Dec 05 12:40:33 2024,990,-10.405,-10.405,-4.965,-4.965,-1.427,13.078,6.687,8.217,28.521,12.831,4.254,24.787,9.483,15.321,4.680,5.703
Thu Dec 05 12:40:33 2024,995,-10.438,-10.438,-5.020,-5.020,-1.431,12.985,6.642,8.351,28.694,12.881,4.300,24.816,9.378,15.362,4.638,5.564
Thu Dec 05 12:40:34 2024,0,-10.445,-10.445,-5.000,-5.000,-1.436,12.869,6.579,8.408,28.772,12.880,4.335,24.797,9.318,15.325,4.674,5.537
Thu Dec 05 12:40:34 2024,5,-10.438,10.438,-4.972,-4.972,-1.436,12.772,6.529,8.451,28.834,12.884,4.360,24.772,9.278,15.287,4.712,5.537
Thu Dec 05 12:40:34 2024,10,-10.400,10.400,-4.971,-4.971,-1.417,12.748,6.529,8.511,28.925,12.946,4.361,24.749,9.273,15.298,4.701,5.557
Thu Dec 05 12:40:34 2024,15,-10.342,-10.342,-4.992,-4.992,-1.388,12.787,6.566,8.582,29.041,13.050,4.340,24.720,9.292,15.338,4.661,5.590
Thu Dec 05 12:40:34 2024,20,-10.309,-10.309,-5.013,-5.013,-1.378,12.835,6.589,8.655,29.166,13.146,4.307,24.672,9.295,15.351,4.647,5.610
Thu Dec 05 12:40:34 2024,25,-10.328,-10.328,-5.032,-5.032,-1.405,12.904,6.579,8.728,29.305,13.219,4.252,24.585,9.264,15.305,4.693,5.604
Thu Dec 05 12:40:34 2024,30,-10.334,-10.334,-5.059,-5.059,-1.419,13.032,6.580,8.794,29.446,13.290,4.214,24.531,9.242,15.300,4.697,5.601
Thu Dec 05 12:40:34 2024,35,-10.293,-10.293,-5.106,-5.106,-1.386,13.327,6.618,8.821,29.560,13.334,4.238,24.591,9.250,15.433,4.564,5.607
Thu Dec 05 12:40:34 2024,40,-10.242,-10.242,-5.131,-5.131,-1.365,13.547,6.652,8.858,29.663,13.388,4.240,24.597,9.244,15.507,4.490,5.604
Thu Dec 05 12:40:34 2024,45,-10.184,-10.184,-5.128,-5.128,-1.363,13.648,6.674,8.901,29.736,13.448,4.214,24.536,9.223,15.499,4.495,5.591
Thu Dec 05 12:40:34 2024,50,-10.128,-10.128,-5.113,-5.113,-1.376,13.669,6.684,8.942,29.788,13.509,4.171,24.445,9.196,15.451,4.539,5.574
Thu Dec 05 12:40:34 2024,55,-10.091,-10.091,-5.148,-5.148,-1.434,13.644,6.648,8.958,29.863,13.579,4.090,24.351,9.190,15.462,4.529,5.572
Thu Dec 05 12:40:34 2024,60,-10.070,-10.070,-5.196,-5.196,-1.496,13.604,6.599,8.958,29.929,13.636,4.013,24.281,9.194,15.496,4.497,5.580
Thu Dec 05 12:40:34 2024,65,-10.084,-10.084,-5.265,-5.265,-1.514,13.568,6.598,8.972,29.968,13.684,3.937,24.208,9.200,15.560,4.432,5.566
Thu Dec 05 12:40:34 2024,70,-10.122,-10.122,-5.333,-5.333,-1.487,13.544,6.636,8.997,29.971,13.714,3.884,24.152,9.204,15.630,4.358,5.540
Thu Dec 05 12:40:34 2024,75,-10.156,-10.156,-5.374,-5.374,-1.462,13.496,6.649,9.004,29.961,13.743,3.825,24.088,9.200,15.696,4.288,5.515
Thu Dec 05 12:40:34 2024,80,-10.179,10.179,-5.383,-5.383,-1.441,13.428,6.636,8.992,29.938,13.770,3.767,24.023,9.190,15.752,4.230,5.497
Thu Dec 05 12:40:34 2024,85,-10.201,10.201,-5.383,-5.383,-1.422,13.347,6.614,8.972,29.909,13.804,3.701,23.946,9.181,15.809,4.171,5.487
Thu Dec 05 12:40:34 2024,90,-10.214,10.214,-5.440,-5.440,-1.410,13.331,6.680,8.981,29.905,13.912,3.606,23.837,9.245,15.889,4.091,5.548
Thu Dec 05 12:40:34 2024,95,-10.232,10.232,-5.510,-5.510,-1.396,13.311,6.759,8.992,29.901,14.043,3.492,23.705,9.322,15.987,3.993,5.623
Thu Dec 05 12:40:34 2024,100,-10.218,10.218,-5.542,-5.542,-1.327,13.384,6.790,8.993,29.919,14.043,3.433,23.672,9.322,16.039,3.942,5.632
Thu Dec 05 12:40:34 2024,105,-10.198,10.198,-5.562,-5.562,-1.263,13.472,6.822,8.997,29.946,14.049,3.384,23.654,9.339,16.101,3.881,5.659
Thu Dec 05 12:40:34 2024,110,-10.173,10.173,-5.559,-5.559,-1.227,13.556,6.848,9.005,29.979,14.078,3.356,23.656,9.388,16.173,3.812,5.713
Thu Dec 05 12:40:34 2024,115,-10.142,10.142,-5.540,-5.540,-1.210,13.644,6.877,9.019,30.021,14.131,3.340,23.670,9.470,16.259,3.730,5.798
Thu Dec 05 12:40:34 2024,120,-10.092,10.092,-5.550,-5.550,-1.204,13.769,6.898,9.027,30.072,14.194,3.309,23.672,9.540,16.323,3.668,5.860
Thu Dec 05 12:40:34 2024,125,-10.003,10.003,-5.657,-5.657,-1.201,13.970,6.895,9.013,30.127,14.237,3.228,23.626,9.522,16.304,3.688,5.818
Thu Dec 05 12:40:34 2024,130,-9.932,9.932,-5.743,-5.743,-1.199,14.133,6.893,9.001,30.173,14.272,3.162,23.590,9.508,16.289,3.703,5.783
Thu Dec 05 12:40:34 2024,135,-9.881,9.881,-5.722,-5.722,-1.106,14.331,6.915,9.042,30.224,14.339,3.177,23.521,9.512,16.300,3.687,5.762
Thu Dec 05 12:40:34 2024,140,-9.829,9.829,-5.701,-5.701,-1.011,14.533,6.936,9.084,30.277,14.407,3.192,23.459,9.516,16.311,3.669,5.740
Thu Dec 05 12:40:34 2024,145,-9.788,9.788,-5.730,-5.730,-0.881,14.843,6.932,9.066,30.400,14.505,3.118,23.379,9.503,16.318,3.665,5.808
Thu Dec 05 12:40:34 2024,150,-9.751,9.751,-5.755,-5.755,-0.754,15.144,6.932,9.043,30.525,14.604,3.045,23.310,9.497,16.330,3.655,5.872
Thu Dec 05 12:40:34 2024,155,-9.712,9.712,-5.744,-5.744,-0.613,15.460,6.961,9.026,30.643,14.728,2.995,23.267,9.532,16.370,3.617,5.898
Thu Dec 05 12:40:34 2024,160,-9.678,9.678,-5.709,-5.709,-0.485,15.732,7.006,9.017,30.735,14.849,2.972,23.250,9.593,16.422,3.564,5.890
Thu Dec 05 12:40:34 2024,165,-9.646,9.646,-5.691,-5.691,-0.322,16.046,7.092,8.986,30.816,14.990,2.911,23.218,9.673,16.505,3.478,5.928
Thu Dec 05 12:40:34 2024,170,-9.639,9.639,-5.719,-5.719,-0.190,16.250,7.213,8.926,30.821,15.086,2.813,23.175,9.744,16.602,3.378,6.036
Thu Dec 05 12:40:34 2024,175,-9.623,4.828,-5.746,-5.746,-0.097,16.388,7.296,8.880,30.831,15.181,2.727,23.126,9.805,16.670,3.308,6.119
Thu Dec 05 12:40:34 2024,180,-9.569,-9.569,-5.782,-5.782,-0.079,16.395,7.309,8.854,30.861,15.332,2.634,23.015,9.870,16.678,3.301,6.168
Thu Dec 05 12:40:34 2024,185,-9.530,-9.530,-5.817,-5.817,-0.065,16.399,7.325,8.848,30.909,15.475,2.558,22.921,9.932,16.696,3.283,6.214
Thu Dec 05 12:40:34 2024,190,-9.597,9.597,-5.853,-5.853,0.003,16.495,7.425,8.964,31.111,15.639,2.552,22.919,10.015,16.842,3.136,6.288
Thu Dec 05 12:40:34 2024,195,-9.680,9.680,-5.884,-5.884,0.080,16.593,7.528,9.087,31.313,15.778,2.563,22.939,10.088,16.993,2.983,6.357
Thu Dec 05 12:40:34 2024,200,-9.695,9.695,-5.872,-5.872,0.097,16.735,7.617,9.329,31.739,15.995,2.531,22.913,10.140,17.097,2.874,6.389
Thu Dec 05 12:40:34 2024,205,-9.678,9.678,-5.847,-5.847,0.093,16.856,7.677,9.553,32.139,16.183,2.491,22.876,10.168,17.154,2.811,6.397
Thu Dec 05 12:40:34 2024,210,-9.677,9.677,-5.805,-5.805,0.110,16.974,7.759,9.859,32.690,16.444,2.463,22.876,10.232,17.237,2.714,6.375
Thu Dec 05 12:40:34 2024,215,-9.699,9.699,-5.750,-5.750,0.148,17.058,7.851,10.206,33.313,16.742,2.462,22.935,10.329,17.337,2.591,6.316
Thu Dec 05 12:40:34 2024,220,-9.710,9.710,-5.717,-5.717,0.199,17.158,7.938,10.509,33.890,17.004,2.441,22.990,10.403,17.404,2.494,6.224
Thu Dec 05 12:40:34 2024,225,-9.699,9.699,-5.728,-5.728,0.264,17.282,8.009,10.708,34.331,17.185,2.384,23.035,10.428,17.404,2.458,6.076
Thu Dec 05 12:40:34 2024,230,-9.678,9.678,-5.735,-5.735,0.346,17.414,8.087,10.886,34.738,17.352,2.327,23.092,10.452,17.404,2.411,5.914
Thu Dec 05 12:40:34 2024,235,-9.598,9.598,-5.673,-5.673,0.534,17.591,8.234,11.000,34.992,17.498,2.290,23.205,10.499,17.463,2.262,5.678
Thu Dec 05 12:40:34 2024,240,-9.522,5.326,-5.595,-5.595,0.742,17.791,8.397,11.066,35.142,17.599,2.262,23.321,10.542,17.532,2.108,5.505
Thu Dec 05 12:40:34 2024,245,-9.464,-5.222,-5.513,-5.513,0.958,18.047,8.576,11.100,35.228,17.660,2.234,23.430,10.573,17.598,1.985,5.418
Thu Dec 05 12:40:34 2024,250,-9.418,-9.418,-5.426,-5.426,1.190,18.280,8.772,11.116,35.278,17.697,2.205,23.538,10.599,17.667,1.879,5.384
Thu Dec 05 12:40:34 2024,255,-9.432,-9.432,-5.387,-5.387,1.434,18.461,9.054,11.157,35.360,17.768,2.282,23.688,10.623,17.746,1.769,5.310
Thu Dec 05 12:40:34 2024,260,-9.500,-9.500,-5.410,-5.410,1.645,18.330,9.375,11.233,35.490,17.883,2.467,23.861,10.645,17.821,1.658,5.168
Thu Dec 05 12:40:34 2024,265,-9.531,-9.531,-5.422,-5.422,1.864,22.115,9.713,11.299,35.609,18.035,2.645,24.009,10.705,17.870,1.579,5.090
Thu Dec 05 12:40:34 2024,270,-9.471,-9.471,-5.402,-5.402,1.962,22.364,9.885,11.304,35.634,18.171,2.706,24.015,10.805,17.838,1.614,5.189
Thu Dec 05 12:40:34 2024,275,-9.436,-9.436,-5.364,-5.364,2.068,22.642,10.053,11.332,35.710,18.335,2.796,24.048,10.898,17.810,1.644,5.273
Thu Dec 05 12:40:34 2024,280,-9.564,-9.564,-5.223,-5.223,2.182,22.831,10.077,11.512,36.105,18.599,3.038,24.245,10.870,17.823,1.619,5.181
Thu Dec 05 12:40:34 2024,285,-9.721,-9.721,-5.077,-5.077,2.291,22.951,10.075,11.726,36.560,18.913,3.292,24.476,10.831,17.847,1.579,5.064
Thu Dec 05 12:40:34 2024,290,-9.896,-9.896,-4.977,-4.977,2.440,22.865,10.179,12.055,37.174,19.717,3.536,24.785,10.949,17.900,1.511,5.013
Thu Dec 05 12:40:34 2024,295,-10.100,-10.100,-4.880,-4.880,2.614,21.399,10.324,12.469,37.934,20.839,3.798,25.172,11.147,17.970,1.428,4.983
Thu Dec 05 12:40:34 2024,300,-10.317,-10.317,-4.704,-4.704,2.764,17.237,10.388,12.993,39.089,22.747,4.033,25.889,11.535,18.055,1.381,4.974
Thu Dec 05 12:40:34 2024,305,-10.484,-10.484,-4.519,-4.519,2.861,16.976,10.365,13.463,40.251,24.789,4.181,26.699,11.963,18.128,1.370,4.981
Thu Dec 05 12:40:34 2024,310,-10.647,-10.647,-4.353,-4.353,2.979,16.379,10.273,13.875,41.531,27.104,4.316,27.746,12.322,18.194,1.365,4.939
Thu Dec 05 12:40:34 2024,315,-10.810,-10.810,-4.235,-4.235,3.183,15.190,9.954,14.096,43.332,30.634,4.418,29.708,12.439,18.242,1.392,4.710
Thu Dec 05 12:40:34 2024,320,-10.927,-10.927,-4.085,-4.085,3.390,14.045,9.633,14.291,44.630,33.596,4.386,31.605,12.422,18.274,1.414,4.525
Thu Dec 05 12:40:34 2024,325,-10.924,-10.924,-3.697,-3.697,3.646,13.344,9.243,14.560,43.869,33.815,3.830,33.938,11.909,18.276,1.444,4.461
Thu Dec 05 12:40:34 2024,330,-10.938,-10.938,-3.323,-3.323,3.870,12.835,8.983,15.085,43.070,33.387,3.267,36.027,11.526,18.251,1.482,4.403
Thu Dec 05 12:40:34 2024,335,-11.209,-11.209,-2.694,-2.694,4.010,13.032,9.553,18.629,43.539,30.858,2.475,37.676,12.846,17.870,1.719,4.194
Thu Dec 05 12:40:34 2024,340,-11.522,-11.522,-2.059,-2.059,4.117,13.378,10.282,22.312,44.991,28.282,1.762,39.122,14.600,17.414,1.962,3.972
Thu Dec 05 12:40:34 2024,345,-11.724,-11.724,-1.954,-1.954,4.360,13.699,10.713,24.229,47.186,28.809,1.293,40.499,16.357,17.289,1.754,3.574
Thu Dec 05 12:40:34 2024,350,-11.813,-11.813,-2.233,-2.233,4.650,13.902,10.874,24.796,49.535,31.327,1.170,41.572,17.873,17.406,1.256,3.143
Thu Dec 05 12:40:34 2024,355,-11.878,-11.878,-2.459,-2.459,4.901,14.039,11.209,25.497,52.325,34.549,-1.362,43.246,20.222,17.395,0.947,3.283
Thu Dec 05 12:40:34 2024,360,-11.887,-11.887,-2.532,-2.532,5.009,14.127,11.791,26.247,54.955,38.592,-1.825,45.703,23.741,17.167,1.127,4.531
Thu Dec 05 12:40:34 2024,365,-11.940,-11.940,-2.590,-2.590,5.167,14.222,12.475,26.992,58.272,44.025,-2.465,48.830,28.328,16.927,1.348,5.963
Thu Dec 05 12:40:34 2024,370,-12.093,-12.093,-2.499,-2.499,5.420,14.261,12.966,27.082,61.210,49.325,-2.824,51.733,31.878,16.820,1.580,6.670
Thu Dec 05 12:40:34 2024,375,-12.222,-12.222,-2.400,-2.400,5.624,14.144,13.254,26.998,63.237,53.631,-3.095,53.540,34.694,16.881,1.647,7.032
Thu Dec 05 12:40:34 2024,380,-12.351,-12.351,-2.301,-2.301,5.829,14.027,13.542,26.915,65.264,57.937,-3.366,55.346,37.510,16.942,1.714,7.393
Thu Dec 05 12:40:34 2024,385,-12.480,-12.480,-2.202,-2.202,6.033,13.909,13.830,26.831,67.291,62.243,-3.636,57.153,40.326,17.002,1.782,7.755
Thu Dec 05 12:40:34 2024,390,-12.556,-12.556,-2.166,-2.166,6.234,14.369,13.987,26.702,69.257,65.968,-3.272,58.943,43.353,17.064,1.833,8.096
Thu Dec 05 12:40:34 2024,395,-12.550,-12.550,-2.227,-2.227,6.427,15.695,13.948,26.506,71.133,68.821,-1.955,60.710,46.694,17.126,1.862,8.407
Thu Dec 05 12:40:34 2024,400,-12.545,-12.545,-2.288,-2.288,6.621,17.021,13.908,26.310,73.008,71.674,-0.639,62.476,50.036,17.188,1.891,8.718
Thu Dec 05 12:40:34 2024,405,-12.540,-12.540,-2.348,-2.348,6.815,18.346,13.869,26.114,74.884,74.526,0.678,64.242,53.378,17.250,1.919,9.029
Thu Dec 05 12:40:34 2024,410,-12.534,-12.534,-2.409,-2.409,7.009,19.672,13.829,25.917,76.759,77.379,1.995,66.008,56.720,17.312,1.948,9.339
Thu Dec 05 12:40:34 2024,415,-12.529,-12.529,-2.469,-2.469,7.203,20.998,13.790,25.721,78.635,80.232,3.312,67.774,60.061,17.374,1.976,9.650
Thu Dec 05 12:40:34 2024,420,-12.523,-12.523,-2.530,-2.530,7.396,22.324,13.751,25.525,80.511,83.085,4.629,69.540,63.403,17.436,2.005,9.961
Thu Dec 05 12:40:34 2024,425,-12.518,-12.518,-2.591,-2.591,7.590,23.649,13.711,25.329,82.386,85.938,5.946,71.306,66.745,17.498,2.033,10.272
Thu Dec 05 12:40:34 2024,430,-12.513,-12.513,-2.651,-2.651,7.784,24.975,13.672,25.132,84.262,88.790,7.262,73.072,70.087,17.560,2.062,10.583
Thu Dec 05 12:40:34 2024,435,-12.507,-12.507,-2.712,-2.712,7.978,26.301,13.632,24.936,86.137,91.643,8.579,74.838,73.428,17.622,2.091,10.893
Thu Dec 05 12:40:34 2024,440,-12.502,-12.502,-2.773,-2.773,8.172,27.626,13.593,24.740,88.013,94.496,9.896,76.605,76.770,17.684,2.119,11.204
Thu Dec 05 12:40:34 2024,445,-12.496,-12.496,-2.833,-2.833,8.365,28.952,13.553,24.544,89.888,97.349,11.213,78.371,80.112,17.746,2.148,11.515
Thu Dec 05 12:40:34 2024,450,-12.491,-12.491,-2.894,-2.894,8.559,30.278,13.514,24.347,91.764,100.201,12.530,80.137,83.454,17.808,2.176,11.826
Thu Dec 05 12:40:34 2024,455,-12.541,-12.541,-2.925,-2.925,8.715,30.761,13.547,24.856,93.106,101.474,13.378,81.335,85.309,17.956,2.047,11.930
Thu Dec 05 12:40:34 2024,460,-12.527,-12.527,-3.012,-3.012,8.852,31.072,13.744,25.615,94.102,102.004,14.295,82.200,86.303,17.991,2.009,12.091
Thu Dec 05 12:40:34 2024,465,-12.518,-12.518,-3.097,-3.097,8.978,31.373,13.932,26.383,95.069,102.481,15.243,83.052,87.209,18.026,1.969,12.249
Thu Dec 05 12:40:34 2024,470,-12.595,-12.595,-3.149,-3.149,8.980,31.512,13.988,26.818,95.636,102.622,15.945,83.616,87.549,18.090,1.897,12.380
Thu Dec 05 12:40:34 2024,475,-12.686,-12.686,-3.210,-3.210,8.982,31.677,14.053,27.346,96.305,102.777,16.807,84.288,87.924,18.165,1.810,12.536
Thu Dec 05 12:40:34 2024,480,-12.752,-12.752,-3.254,-3.254,8.982,31.797,14.099,27.738,96.788,102.881,17.452,84.778,88.174,18.218,1.745,12.649
Thu Dec 05 12:40:34 2024,485,-12.808,-12.808,-3.157,-3.157,8.876,31.651,14.133,27.709,96.632,102.560,17.061,84.541,87.755,18.320,1.642,12.758
Thu Dec 05 12:40:34 2024,490,-12.858,-12.858,-3.126,-3.126,8.825,31.623,14.165,27.831,96.724,102.440,17.097,84.597,87.638,18.387,1.571,12.850
Thu Dec 05 12:40:34 2024,495,-12.915,-12.915,-3.090,-3.090,8.768,31.591,14.202,27.968,96.828,102.305,17.138,84.661,87.507,18.463,1.488,12.954
Thu Dec 05 12:40:34 2024,500,-12.969,-12.969,-3.062,-3.062,8.684,31.543,14.273,27.934,96.732,102.136,16.997,84.553,87.302,18.517,1.433,13.066
Thu Dec 05 12:40:34 2024,505,-13.015,-13.015,-3.053,-3.053,8.534,31.456,14.430,27.475,96.133,101.875,16.405,84.015,86.899,18.511,1.444,13.196
Thu Dec 05 12:40:34 2024,510,-13.048,-13.048,-3.048,-3.048,8.405,31.380,14.563,27.074,95.595,101.618,15.867,83.523,86.498,18.506,1.453,13.297
Thu Dec 05 12:40:34 2024,515,-12.982,-12.982,-3.069,-3.069,8.368,31.334,14.577,26.784,95.183,101.325,15.322,83.084,86.010,18.507,1.457,13.210
Thu Dec 05 12:40:34 2024,520,-12.899,-12.899,-3.095,-3.095,8.322,31.276,14.594,26.435,94.674,100.952,14.670,82.542,85.386,18.507,1.461,13.103
Thu Dec 05 12:40:34 2024,525,-12.874,-12.874,-3.022,-3.022,8.292,31.242,14.645,26.176,94.282,100.814,14.266,82.211,85.062,18.453,1.519,13.046
Thu Dec 05 12:40:34 2024,530,-12.849,-12.849,-2.918,-2.918,8.257,31.202,14.712,25.874,93.812,100.672,13.809,81.832,84.691,18.378,1.600,12.984
Thu Dec 05 12:40:34 2024,535,-12.830,-12.830,-2.862,-2.862,8.239,31.166,14.728,25.684,93.444,100.569,13.496,81.512,84.406,18.319,1.666,12.788
Thu Dec 05 12:40:34 2024,540,-12.812,-12.812,-2.838,-2.838,8.232,31.133,14.713,25.562,93.146,100.492,13.270,81.234,84.182,18.272,1.722,12.524
Thu Dec 05 12:40:34 2024,545,-12.792,-12.792,-2.814,-2.814,8.163,31.044,14.700,25.315,92.796,100.320,13.057,80.952,83.852,18.202,1.796,12.288
Thu Dec 05 12:40:34 2024,550,-12.771,-12.771,-2.796,-2.796,8.006,30.881,14.691,24.912,92.428,100.026,12.900,80.717,83.415,18.109,1.892,12.135
Thu Dec 05 12:40:34 2024,555,-12.747,-12.747,-2.783,-2.783,7.856,30.717,14.678,24.508,92.036,99.714,12.742,80.462,82.938,18.026,1.976,11.944
Thu Dec 05 12:40:34 2024,560,-12.722,-12.722,-2.805,-2.805,7.836,30.642,14.651,24.333,91.770,99.533,12.677,80.271,82.585,18.048,1.953,11.665
Thu Dec 05 12:40:34 2024,565,-12.697,-12.697,-2.828,-2.828,7.816,30.566,14.624,24.158,91.499,99.345,12.612,80.076,82.225,18.069,1.927,11.385
Thu Dec 05 12:40:34 2024,570,-12.632,-12.632,-2.800,-2.800,7.715,30.425,14.604,23.842,91.232,99.069,12.455,79.893,81.858,18.005,1.985,11.253
Thu Dec 05 12:40:34 2024,575,-12.571,-12.571,-2.770,-2.770,7.618,30.296,14.589,23.555,91.006,98.820,12.310,79.740,81.546,17.938,2.046,11.165
Thu Dec 05 12:40:34 2024,580,-12.480,-12.480,-2.775,-2.775,7.516,30.235,14.658,23.449,90.903,98.425,12.158,79.590,81.051,17.953,2.026,10.966
Thu Dec 05 12:40:34 2024,585,-12.373,-12.373,-2.806,-2.806,7.417,30.226,14.784,23.475,90.891,97.955,12.013,79.451,80.460,18.024,1.950,10.706
Thu Dec 05 12:40:34 2024,590,-12.246,-12.246,-2.846,-2.846,7.293,30.181,14.924,23.545,90.928,97.404,11.799,79.259,79.797,18.111,1.861,10.501
Thu Dec 05 12:40:34 2024,595,-12.096,-12.096,-2.899,-2.899,7.137,30.076,15.079,23.680,91.042,96.763,11.496,78.995,79.060,18.218,1.758,10.397
Thu Dec 05 12:40:34 2024,600,-11.948,-11.948,-2.967,-2.967,6.963,29.917,15.209,23.696,90.931,95.977,11.108,78.576,78.045,18.276,1.701,10.339
Thu Dec 05 12:40:34 2024,605,-11.782,-11.782,-3.105,-3.105,6.672,29.494,15.264,23.249,89.866,94.363,10.272,77.412,75.611,18.145,1.829,10.459
Thu Dec 05 12:40:34 2024,610,-11.610,-11.610,-3.241,-3.241,6.376,29.048,15.303,22.864,88.724,92.565,9.480,76.158,72.953,18.008,1.960,10.536
Thu Dec 05 12:40:34 2024,615,-11.435,-11.435,-3.279,-3.279,6.154,28.525,15.093,23.100,86.937,89.707,8.442,74.037,68.881,17.855,2.082,9.919
Thu Dec 05 12:40:34 2024,620,-11.281,-11.281,-3.314,-3.314,5.959,28.070,14.910,23.393,85.398,87.037,7.677,72.212,65.262,17.721,2.180,9.390
Thu Dec 05 12:40:34 2024,625,-11.173,-11.173,-3.405,-3.405,5.797,27.623,14.752,23.626,83.236,83.845,-6.805,69.649,60.849,17.709,2.161,8.821
Thu Dec 05 12:40:34 2024,630,-11.105,-11.105,-3.520,-3.520,5.673,27.241,14.630,23.845,80.975,80.610,-6.096,66.982,56.532,17.773,2.077,8.295
Thu Dec 05 12:40:34 2024,635,-10.994,-10.994,-3.694,-3.694,5.580,26.895,14.537,23.816,78.391,77.141,-5.396,64.378,52.430,17.768,2.025,7.907
Thu Dec 05 12:40:34 2024,640,-10.791,-10.791,-4.001,-4.001,5.485,26.471,14.443,23.553,74.492,72.016,-4.393,60.841,47.247,17.682,1.968,7.533
Thu Dec 05 12:40:34 2024,645,-10.493,-10.493,-4.154,-4.154,5.352,26.067,14.283,23.660,70.577,66.163,3.633,57.617,42.495,17.554,1.966,7.389
Thu Dec 05 12:40:34 2024,650,-9.861,-9.861,-3.984,-3.984,5.091,25.533,13.900,24.524,65.328,56.702,2.970,53.982,36.726,17.289,2.165,7.731
Thu Dec 05 12:40:34 2024,655,-9.322,-9.322,-3.879,-3.879,4.811,25.060,13.525,24.837,61.249,49.569,2.578,50.834,32.628,17.055,2.355,7.970
Thu Dec 05 12:40:34 2024,660,-9.114,-9.114,-4.137,-4.137,4.284,24.502,12.944,21.578,59.804,48.252,2.326,49.148,29.904,16.904,2.620,7.603
Thu Dec 05 12:40:34 2024,665,-8.932,-8.932,-4.364,-4.364,3.820,24.010,12.434,18.716,58.667,47.049,2.126,47.718,27.772,16.771,2.845,7.280
Thu Dec 05 12:40:34 2024,670,-8.613,-8.613,-4.571,-4.571,3.967,24.224,12.157,16.774,55.580,42.214,2.141,44.955,26.209,16.671,2.923,7.440
Thu Dec 05 12:40:34 2024,675,-8.283,-8.283,-4.751,-4.751,4.312,24.667,11.996,15.510,52.371,37.642,2.464,42.052,25.107,16.595,2.941,7.779
Thu Dec 05 12:40:34 2024,680,-8.059,-8.059,-4.668,-4.668,4.505,25.094,11.437,14.599,49.682,33.287,3.021,40.309,23.718,16.348,3.200,7.754
Thu Dec 05 12:40:34 2024,685,-7.826,-7.826,-4.306,-4.306,4.655,25.799,10.260,13.549,46.236,26.906,3.971,38.838,21.372,15.840,3.789,7.379
Thu Dec 05 12:40:34 2024,690,-7.782,-7.782,-4.051,-4.051,4.576,26.149,9.378,12.658,43.423,22.565,4.766,37.848,19.576,15.448,4.264,7.038
Thu Dec 05 12:40:34 2024,695,-8.035,-8.035,-3.918,-3.918,4.090,25.884,8.770,11.721,40.723,19.513,5.481,37.305,18.148,15.143,4.673,6.660
Thu Dec 05 12:40:34 2024,700,-8.306,-8.306,-3.798,-3.798,3.577,25.571,8.181,10.813,38.139,16.759,6.197,36.786,16.761,14.883,5.016,6.284
Thu Dec 05 12:40:34 2024,705,-8.554,8.554,-3.774,-3.774,3.028,24.715,7.677,10.398,36.491,15.726,6.945,36.037,15.753,15.035,4.921,6.021
Thu Dec 05 12:40:34 2024,710,-8.755,8.755,-3.755,-3.755,2.587,24.038,7.283,10.055,35.204,14.908,7.522,35.499,14.969,15.160,4.825,5.818
Thu Dec 05 12:40:34 2024,715,-9.000,9.000,-3.753,-3.753,2.098,23.316,7.035,9.781,34.211,14.423,8.036,35.248,14.403,15.372,4.629,5.917
Thu Dec 05 12:40:34 2024,720,-9.260,9.260,-3.757,-3.757,1.606,22.598,6.844,9.536,33.352,14.054,8.510,35.118,13.936,15.609,4.369,6.121
Thu Dec 05 12:40:34 2024,725,-9.586,9.586,-3.857,-3.857,1.095,21.713,6.711,9.314,32.469,13.739,8.973,34.906,13.509,15.801,4.136,6.237
Thu Dec 05 12:40:34 2024,730,-9.898,9.898,-4.002,-4.002,0.676,20.908,6.644,9.149,31.766,13.521,9.328,34.689,13.200,15.922,3.984,6.262
Thu Dec 05 12:40:34 2024,735,-10.195,10.195,-4.073,-4.073,0.324,19.676,6.588,8.984,31.146,13.272,9.614,34.583,12.936,16.046,3.827,6.277
Thu Dec 05 12:40:34 2024,740,-10.501,10.501,-4.009,-4.009,0.044,19.493,6.541,8.795,30.551,12.925,9.828,34.637,12.704,16.198,3.640,6.274
Thu Dec 05 12:40:34 2024,745,-10.793,10.793,-3.953,-3.953,-0.237,18.955,6.494,8.595,29.968,12.560,10.016,34.696,12.495,16.324,3.477,6.266
Thu Dec 05 12:40:34 2024,750,-10.912,10.912,-3.940,-3.940,-0.429,18.578,6.465,8.441,29.582,12.299,10.054,34.736,12.426,16.318,3.466,6.246
Thu Dec 05 12:40:34 2024,755,-11.053,11.053,-3.926,-3.926,-0.651,18.133,6.430,8.264,29.153,11.993,10.099,34.783,12.347,16.312,3.452,6.224
Thu Dec 05 12:40:34 2024,760,-11.238,11.238,-3.924,-3.924,-0.758,17.896,6.457,8.138,28.847,11.817,10.129,34.692,12.240,16.303,3.450,6.219
Thu Dec 05 12:40:34 2024,765,-11.409,11.409,-3.925,-3.925,-0.830,17.729,6.493,8.037,28.610,11.685,10.152,34.588,12.141,16.293,3.451,6.220
Thu Dec 05 12:40:34 2024,770,-11.447,11.447,-3.941,-3.941,-0.903,17.551,6.490,7.873,28.311,11.498,10.134,34.486,12.038,16.243,3.484,6.245
Thu Dec 05 12:40:34 2024,775,-11.344,11.344,-3.973,-3.973,-0.974,17.366,6.447,7.647,27.960,11.255,10.074,34.388,11.933,16.150,3.549,6.297
Thu Dec 05 12:40:34 2024,780,-11.320,11.320,-3.960,-3.960,-1.062,17.235,6.420,7.394,12.397,10.990,10.003,34.264,11.813,16.068,3.617,6.314
Thu Dec 05 12:40:34 2024,785,-11.406,11.406,-3.880,-3.880,-1.189,17.163,6.415,7.063,12.821,10.656,9.904,34.083,11.653,15.990,3.703,6.285
Thu Dec 05 12:40:34 2024,790,-11.492,11.492,-3.805,-3.805,-1.311,17.084,6.427,6.724,13.231,10.346,9.800,33.901,11.516,15.935,3.770,6.247
Thu Dec 05 12:40:34 2024,795,-11.544,11.544,-3.793,-3.793,-1.357,17.025,6.521,6.514,13.475,10.287,9.718,33.788,11.550,16.020,3.710,6.179
Thu Dec 05 12:40:34 2024,800,-11.592,11.592,-3.782,-3.782,-1.400,16.969,6.609,6.314,13.687,10.230,9.641,33.681,11.583,16.100,3.653,6.115
Thu Dec 05 12:40:34 2024,805,-11.550,11.550,-3.776,-3.776,-1.421,16.890,6.612,6.174,13.820,10.165,9.551,33.592,11.604,16.165,3.632,5.989
Thu Dec 05 12:40:34 2024,810,-11.493,11.493,-3.771,-3.771,-1.435,16.812,6.596,6.059,13.918,10.103,9.466,33.515,11.620,16.221,3.617,5.862
Thu Dec 05 12:40:34 2024,815,-11.474,11.474,-3.718,-3.718,-1.427,16.812,6.604,5.897,14.049,9.998,9.362,33.474,11.622,16.254,3.609,5.755
Thu Dec 05 12:40:34 2024,820,-11.486,11.486,-3.627,-3.627,-1.401,16.870,6.629,5.700,14.200,9.857,9.242,33.463,11.613,16.269,3.607,5.665
Thu Dec 05 12:40:34 2024,825,-11.509,11.509,-3.597,-3.597,-1.392,16.914,6.658,5.525,14.320,9.776,9.132,33.462,11.644,16.321,3.568,5.602
Thu Dec 05 12:40:34 2024,830,-11.550,11.550,-3.664,-3.664,-1.406,16.930,6.692,5.398,14.404,9.790,9.046,33.476,11.738,16.426,3.471,5.582
Thu Dec 05 12:40:34 2024,835,-11.587,11.587,-3.718,-3.718,-1.423,16.946,6.724,5.275,14.480,9.800,8.962,33.489,11.824,16.515,3.390,5.567
Thu Dec 05 12:40:34 2024,840,-11.621,11.621,-3.681,-3.681,-1.513,16.982,6.766,5.053,14.641,9.752,8.812,33.475,11.911,16.490,3.423,5.564
Thu Dec 05 12:40:34 2024,845,-11.646,11.646,-3.651,-3.651,-1.586,17.011,6.800,4.874,14.762,9.712,8.690,33.470,11.984,16.470,3.450,5.563
Thu Dec 05 12:40:34 2024,850,-11.603,11.603,-3.630,-3.630,-1.593,17.117,6.870,4.840,14.761,9.687,8.645,33.560,12.089,16.454,3.460,5.605
Thu Dec 05 12:40:34 2024,855,-11.557,11.557,-3.614,-3.614,-1.590,17.218,6.935,4.831,14.742,9.668,8.615,33.653,12.186,16.441,3.468,5.647
Thu Dec 05 12:40:34 2024,860,-11.515,11.515,-3.581,-3.581,-1.599,17.242,6.965,4.748,14.763,9.629,8.575,33.666,12.250,16.404,3.500,5.737
Thu Dec 05 12:40:34 2024,865,-11.466,11.466,-3.532,-3.532,-1.617,17.224,6.980,4.602,14.804,9.570,8.520,33.634,12.310,16.343,3.554,5.876
Thu Dec 05 12:40:34 2024,870,-11.452,11.452,-3.536,-3.536,-1.641,17.232,6.991,4.510,14.832,9.540,8.458,33.620,12.356,16.294,3.601,5.925
Thu Dec 05 12:40:34 2024,875,-11.478,11.478,-3.603,-3.603,-1.670,17.272,6.996,4.481,14.858,9.548,8.390,33.626,12.384,16.260,3.638,5.866
Thu Dec 05 12:40:34 2024,880,-11.482,11.482,-3.648,-3.648,-1.692,17.299,7.011,4.475,14.863,9.565,8.343,33.670,12.441,16.258,3.642,5.836
Thu Dec 05 12:40:34 2024,885,-11.420,11.420,-3.638,-3.638,-1.704,17.304,7.071,4.540,14.798,9.620,8.345,33.849,12.618,16.366,3.543,5.877
Thu Dec 05 12:40:34 2024,890,-11.357,11.357,-3.621,-3.621,-1.725,17.284,7.131,4.602,14.730,9.667,8.344,34.043,12.801,16.484,3.434,5.918
Thu Dec 05 12:40:34 2024,895,-11.353,11.353,-3.578,-3.578,-1.870,17.002,7.145,4.560,14.676,9.599,8.269,34.257,12.950,16.616,3.320,5.869
Thu Dec 05 12:40:34 2024,900,-11.360,11.360,-3.534,-3.534,-2.023,16.700,7.150,4.506,14.622,9.518,8.189,34.462,13.083,16.741,3.210,5.811
Thu Dec 05 12:40:34 2024,905,-11.430,11.430,-3.440,-3.440,-2.152,16.454,7.190,4.533,14.561,9.542,8.198,34.858,13.308,16.819,3.142,5.748
Thu Dec 05 12:40:34 2024,910,-11.531,11.531,-3.319,-3.319,-2.286,16.202,7.248,4.593,14.493,9.603,8.239,35.369,13.589,16.889,3.083,5.678
Thu Dec 05 12:40:34 2024,915,-11.715,11.715,-3.233,-3.233,-2.440,15.952,7.308,4.704,14.336,9.601,8.359,36.065,13.950,17.028,2.952,5.581
Thu Dec 05 12:40:34 2024,920,-11.933,11.933,-3.203,-3.203,-2.575,15.770,7.356,4.836,14.135,9.537,8.523,36.759,14.296,17.199,2.787,5.486
Thu Dec 05 12:40:34 2024,925,-12.160,12.160,-3.154,-3.154,-2.715,15.579,7.412,5.058,13.915,9.598,8.720,37.648,14.850,17.380,2.608,5.449
Thu Dec 05 12:40:34 2024,930,-12.270,12.270,-3.083,-3.083,-2.790,15.476,7.457,5.384,13.760,9.950,8.883,38.516,15.624,17.483,2.498,5.587
Thu Dec 05 12:40:34 2024,935,-12.404,12.404,-2.998,-2.998,-2.878,15.355,7.512,5.775,13.548,10.375,9.081,39.566,16.560,17.606,2.364,5.754
Thu Dec 05 12:40:34 2024,940,-12.850,12.850,-3.317,-3.317,-2.841,15.745,7.627,6.502,13.087,10.896,9.309,40.789,18.871,17.699,2.264,6.302
Thu Dec 05 12:40:34 2024,945,-13.216,13.216,-3.575,-3.575,-2.807,16.047,7.716,7.069,12.669,11.294,9.494,41.762,20.784,17.771,2.187,6.767
Thu Dec 05 12:40:34 2024,950,-13.820,13.820,-3.908,-3.908,-2.995,16.313,7.914,7.540,12.173,10.474,10.788,43.696,23.842,17.754,2.221,7.816
Thu Dec 05 12:40:34 2024,955,-14.525,14.525,-4.266,-4.266,-3.285,16.432,8.165,7.925,11.682,9.121,12.726,46.162,27.799,17.683,2.312,9.182
Thu Dec 05 12:40:34 2024,960,-14.864,14.864,-4.251,-4.251,-3.769,16.024,7.969,8.222,11.452,8.201,14.293,46.830,30.131,17.053,2.946,10.070
Thu Dec 05 12:40:34 2024,965,-14.976,14.976,-3.954,-3.954,-4.469,15.259,7.420,8.497,11.339,7.448,15.840,46.240,31.077,15.950,4.049,10.681
Thu Dec 05 12:40:34 2024,970,-15.076,15.076,-3.686,-3.686,-5.091,14.579,6.939,8.734,11.198,6.799,17.382,45.855,31.765,14.989,5.009,11.216
Thu Dec 05 12:40:34 2024,975,-14.876,14.876,-3.456,-3.456,-5.179,14.274,6.646,9.510,10.472,7.518,16.180,38.602,19.918,13.262,6.508,11.608
Thu Dec 05 12:40:34 2024,980,-14.740,14.740,-3.269,-3.269,-5.308,13.954,6.390,10.104,9.737,7.991,15.414,4.412,11.742,11.866,32.565,11.943
Thu Dec 05 12:40:34 2024,985,-14.770,14.770,-3.304,-3.304,-5.399,13.891,6.430,10.673,8.984,8.180,15.711,4.267,9.375,11.204,32.365,11.903
Thu Dec 05 12:40:34 2024,990,-14.836,14.836,-3.388,-3.388,-5.459,13.904,6.535,11.114,31.615,8.252,16.191,3.746,8.806,10.881,32.416,11.784
Thu Dec 05 12:40:34 2024,995,-14.916,14.916,-3.384,-3.384,-5.637,13.744,6.441,11.468,31.956,7.898,15.975,4.008,8.877,10.561,32.282,11.566
Thu Dec 05 12:40:35 2024,0,-14.988,14.988,-3.357,-3.357,-5.818,13.564,6.310,11.742,19.952,7.482,15.619,4.380,9.124,10.294,32.120,11.356
Thu Dec 05 12:40:35 2024,5,-14.903,14.903,-3.184,-3.184,-5.876,13.388,6.146,12.012,7.658,7.302,15.279,4.692,9.778,10.024,32.025,11.424
Thu Dec 05 12:40:35 2024,10,-14.729,14.729,-2.931,-2.931,-5.866,13.204,5.966,12.272,7.502,7.258,14.951,4.966,10.635,9.756,31.979,11.647
Thu Dec 05 12:40:35 2024,15,-14.547,14.547,-2.626,-2.626,-5.880,12.948,5.794,12.546,7.279,7.341,14.277,5.507,11.756,9.309,31.886,11.972
Thu Dec 05 12:40:35 2024,20,-14.419,14.419,-2.347,-2.347,-5.930,12.685,5.701,12.738,7.051,7.618,13.262,6.264,12.906,8.721,31.760,12.352
Thu Dec 05 12:40:35 2024,25,-14.314,14.314,-2.073,-2.073,-5.950,12.453,5.652,13.009,6.698,8.048,12.025,32.891,14.061,8.106,31.799,12.892
Thu Dec 05 12:40:35 2024,30,-14.386,14.386,-1.960,-1.960,-5.774,12.583,5.890,13.597,34.234,9.148,10.084,31.276,14.910,7.668,32.545,14.070
Thu Dec 05 12:40:35 2024,35,-14.463,14.463,-1.874,-1.874,-5.586,12.743,6.131,14.130,35.202,10.215,8.429,30.002,15.649,7.278,33.375,15.232
Thu Dec 05 12:40:35 2024,40,-14.512,14.512,-1.804,-1.804,-5.272,13.038,6.432,14.552,36.265,11.433,7.786,29.744,16.694,6.839,34.395,16.706
Thu Dec 05 12:40:35 2024,45,-14.552,14.552,-1.748,-1.748,-4.954,13.338,6.724,14.897,37.313,12.558,7.462,29.784,17.690,6.419,35.416,18.126
Thu Dec 05 12:40:35 2024,50,-14.522,14.522,-1.648,-1.648,-4.623,13.604,6.938,15.182,38.409,13.520,6.512,29.846,18.886,6.034,36.534,19.746
Thu Dec 05 12:40:35 2024,55,-14.446,14.446,-1.524,-1.524,-4.290,13.836,7.094,15.404,39.512,14.323,5.108,30.188,20.197,5.676,37.692,21.510
Thu Dec 05 12:40:35 2024,60,-14.380,14.380,-1.340,-1.340,-3.878,14.280,7.257,15.596,40.649,14.917,3.553,31.975,21.969,5.451,39.240,23.504
Thu Dec 05 12:40:35 2024,65,-14.346,14.346,-1.165,-1.165,-3.525,14.786,7.378,15.710,41.447,15.143,2.357,34.541,23.627,5.426,40.647,25.091
Thu Dec 05 12:40:35 2024,70,-14.317,14.317,-0.978,-0.978,-3.128,15.381,7.597,15.838,42.344,15.401,1.233,37.936,25.774,5.332,42.488,27.310
Thu Dec 05 12:40:35 2024,75,-14.342,14.342,-0.822,-0.822,-2.840,15.908,8.104,15.959,42.884,15.643,1.194,41.636,28.733,5.005,44.877,30.665
Thu Dec 05 12:40:35 2024,80,-14.343,14.343,-0.718,-0.718,-2.615,16.350,8.533,16.035,43.341,15.836,-1.582,44.842,31.393,4.704,47.028,33.848
Thu Dec 05 12:40:35 2024,85,-14.177,14.177,-0.653,0.653,-2.472,16.776,8.800,15.926,43.860,15.953,-2.152,48.148,34.523,4.334,49.587,37.738
Thu Dec 05 12:40:35 2024,90,-13.980,13.980,-0.676,0.676,-2.363,17.150,9.015,15.766,44.382,16.043,-2.819,51.334,37.730,4.022,52.164,41.898
Thu Dec 05 12:40:35 2024,95,-13.862,13.862,-0.756,0.756,-2.207,17.479,9.110,15.804,44.803,16.066,-3.383,53.912,40.793,3.963,54.181,45.354
Thu Dec 05 12:40:35 2024,100,-13.784,13.784,-0.846,0.846,-2.027,17.785,9.142,15.944,45.169,16.057,-3.890,56.175,43.850,4.033,55.908,48.502
Thu Dec 05 12:40:35 2024,105,-13.690,13.690,-0.894,0.894,-1.910,17.963,9.153,16.037,45.520,16.118,-4.333,57.982,46.484,4.118,57.353,51.362
Thu Dec 05 12:40:35 2024,110,-13.594,13.594,-0.904,0.904,-1.849,18.044,9.150,16.087,45.830,16.225,-4.683,59.302,48.567,4.203,58.465,53.747
Thu Dec 05 12:40:35 2024,115,-13.483,13.483,-0.900,0.900,-1.792,18.124,9.144,16.137,46.202,16.412,-5.074,60.874,51.146,4.372,59.877,56.763
Thu Dec 05 12:40:35 2024,120,-13.410,13.410,-0.853,0.853,-1.788,18.138,9.133,16.151,46.479,16.710,-5.251,62.025,53.248,4.607,61.140,59.305
Thu Dec 05 12:40:35 2024,125,-13.347,13.347,-0.812,0.812,-1.786,18.151,9.124,16.161,46.726,16.976,-5.433,63.049,55.109,4.832,62.267,61.599
Thu Dec 05 12:40:35 2024,130,-13.322,13.322,-0.751,0.751,-1.719,18.225,9.048,16.219,46.938,17.111,-5.775,63.990,56.623,5.205,63.774,64.149
Thu Dec 05 12:40:35 2024,135,-13.305,13.305,-0.696,0.696,-1.652,18.298,8.974,16.275,47.121,17.215,-6.108,64.809,57.904,5.571,65.162,66.449
Thu Dec 05 12:40:35 2024,140,-13.398,13.398,-0.678,0.678,-1.621,21.652,8.954,16.249,47.273,17.388,-6.243,65.699,59.414,5.958,66.556,68.877
Thu Dec 05 12:40:35 2024,145,-13.523,13.523,-0.668,0.668,-1.596,21.612,8.948,16.202,47.425,17.586,-6.366,66.647,61.036,6.386,68.022,71.424
Thu Dec 05 12:40:35 2024,150,-13.615,13.615,-0.684,0.684,-1.588,21.588,8.983,16.160,47.642,17.793,-6.654,67.953,63.315,6.857,69.600,74.229
Thu Dec 05 12:40:35 2024,155,-13.666,13.666,-0.716,0.716,-1.592,21.637,9.039,16.130,47.866,17.970,-7.016,69.278,65.640,7.280,70.970,76.686
Thu Dec 05 12:40:35 2024,160,-13.718,13.718,-0.771,0.771,-1.593,21.752,9.070,16.087,48.087,18.127,-7.482,70.833,68.258,7.778,72.510,79.365
Thu Dec 05 12:40:35 2024,165,-13.744,13.744,-0.845,0.845,-1.586,21.822,9.028,16.043,48.168,18.150,-7.846,71.957,70.022,8.098,73.479,81.017
Thu Dec 05 12:40:35 2024,170,-13.775,13.775,-0.937,0.937,-1.577,21.920,8.979,15.992,48.262,18.177,-8.304,73.274,72.042,8.496,74.617,82.899
Thu Dec 05 12:40:35 2024,175,-13.721,13.721,-0.960,0.960,-1.534,22.014,9.008,16.048,48.370,18.269,-8.583,74.024,73.134,8.706,75.155,84.001
Thu Dec 05 12:40:35 2024,180,-13.682,13.682,-0.978,0.978,-1.502,22.094,9.028,16.089,48.449,18.337,-8.796,74.582,73.934,8.867,75.558,84.810
Thu Dec 05 12:40:35 2024,185,-13.575,13.575,-1.015,1.015,-1.528,22.309,9.058,16.059,48.516,18.330,9.038,75.214,74.698,9.058,76.021,85.593
Thu Dec 05 12:40:35 2024,190,-13.476,13.476,-1.048,1.048,-1.565,22.514,9.082,16.013,48.561,18.299,9.233,75.698,75.236,9.208,76.377,86.147
Thu Dec 05 12:40:35 2024,195,-13.391,13.391,-1.077,1.077,-1.598,22.695,9.102,15.974,48.599,18.273,9.410,76.116,75.692,9.340,76.685,86.620
Thu Dec 05 12:40:35 2024,200,-13.336,13.336,-1.096,1.096,-1.620,22.814,9.115,15.948,48.624,18.256,9.530,76.387,75.984,9.426,76.884,86.923
Thu Dec 05 12:40:35 2024,205,-12.993,12.993,-0.899,0.899,-1.377,22.688,9.229,15.851,48.651,18.451,9.077,75.270,73.413,8.901,75.488,84.881
Thu Dec 05 12:40:35 2024,210,-12.858,12.858,-0.794,0.794,-1.369,22.688,9.289,15.809,48.587,18.463,8.770,74.502,71.901,8.673,74.789,83.773
Thu Dec 05 12:40:35 2024,215,-12.724,12.724,-0.695,0.695,-1.362,22.687,9.349,15.768,48.525,18.474,8.472,73.737,70.387,8.455,74.094,82.651
Thu Dec 05 12:40:35 2024,220,-12.563,12.563,-0.611,0.611,-1.249,22.684,9.485,15.731,48.438,18.446,7.891,72.204,67.309,8.012,72.424,79.875
Thu Dec 05 12:40:35 2024,225,-12.396,12.396,-0.560,0.560,-1.036,22.694,9.688,15.705,48.338,18.376,-7.187,70.051,62.904,7.525,69.947,75.470
Thu Dec 05 12:40:35 2024,230,-12.178,12.178,-0.536,0.536,-0.912,22.712,9.851,15.680,48.184,18.462,-6.660,68.304,59.910,7.113,67.962,71.772
Thu Dec 05 12:40:35 2024,235,-11.948,11.948,-0.565,-0.565,-0.805,22.736,10.011,15.656,48.017,18.580,-6.176,66.609,57.134,6.747,66.066,68.118
Thu Dec 05 12:40:35 2024,240,-11.860,11.860,-0.595,-0.595,-0.705,22.855,10.112,15.644,47.853,18.547,-5.664,64.685,54.054,6.415,63.990,64.117
Thu Dec 05 12:40:35 2024,245,-11.856,11.856,-0.604,-0.604,-0.611,23.028,10.173,15.637,47.695,18.431,-5.186,62.699,50.855,6.142,61.897,60.066
Thu Dec 05 12:40:35 2024,250,-11.815,11.815,-0.637,-0.637,-0.488,23.208,10.228,15.604,47.530,18.415,-4.688,60.640,47.536,5.991,59.709,55.744
Thu Dec 05 12:40:35 2024,255,-11.739,11.739,-0.698,-0.698,-0.351,23.374,10.267,15.547,47.377,18.508,-4.209,58.754,44.534,5.986,57.681,51.689
Thu Dec 05 12:40:35 2024,260,-11.673,11.673,-0.755,-0.755,-0.232,23.524,10.300,15.497,47.244,18.590,-3.821,57.119,41.980,6.022,55.943,48.314
Thu Dec 05 12:40:35 2024,265,-11.626,11.626,-0.798,-0.798,-0.148,23.632,10.323,15.461,47.149,18.648,-3.561,55.962,40.212,6.065,54.724,46.027
Thu Dec 05 12:40:35 2024,270,-11.603,11.603,-0.820,-0.820,-0.105,23.689,10.334,15.443,47.101,18.677,-3.432,55.372,39.324,6.092,54.106,44.896
Thu Dec 05 12:40:35 2024,275,-11.688,11.688,-0.691,-0.691,0.180,24.068,10.502,15.028,46.066,18.635,2.978,53.414,38.908,6.028,50.591,40.744
Thu Dec 05 12:40:35 2024,280,-11.692,11.692,-0.676,-0.676,0.310,24.246,10.563,14.881,45.705,18.652,2.935,52.218,37.827,6.051,48.928,38.480
Thu Dec 05 12:40:35 2024,285,-11.615,11.615,-0.642,-0.642,0.450,24.385,10.580,14.540,45.139,18.622,3.231,50.695,36.712,6.033,46.976,35.791
Thu Dec 05 12:40:35 2024,290,-11.493,11.493,-0.596,-0.596,0.596,24.503,10.568,14.074,44.440,18.559,3.977,48.979,35.522,5.992,44.838,32.907
Thu Dec 05 12:40:35 2024,295,-11.367,11.367,-0.642,-0.642,0.735,24.556,10.497,13.572,43.621,18.319,5.111,47.659,34.473,6.013,42.806,30.372
Thu Dec 05 12:40:35 2024,300,-11.234,11.234,-0.780,-0.780,0.866,24.554,10.373,13.044,42.704,17.926,6.501,46.729,33.531,6.088,40.881,28.111
Thu Dec 05 12:40:35 2024,305,-11.108,11.108,-0.904,-0.904,0.957,24.615,10.243,12.571,41.899,17.540,7.654,45.696,32.475,6.266,39.066,25.968
Thu Dec 05 12:40:35 2024,310,-10.989,10.989,-0.977,-0.977,0.961,24.816,10.098,12.206,41.323,17.175,8.241,44.261,31.224,6.672,37.432,23.875
Thu Dec 05 12:40:35 2024,315,-10.864,10.864,-1.056,-1.056,0.969,25.026,9.945,11.826,40.724,16.796,8.849,42.811,29.850,7.083,35.806,21.828
Thu Dec 05 12:40:35 2024,320,-10.650,10.650,-0.965,-0.965,0.974,25.361,10.023,11.162,40.557,16.908,9.968,41.368,28.763,7.170,34.429,20.268
Thu Dec 05 12:40:35 2024,325,-10.497,10.497,-0.894,-0.894,0.976,25.610,10.094,10.672,40.476,17.015,10.804,40.440,27.938,7.216,33.492,19.251
Thu Dec 05 12:40:35 2024,330,-10.300,10.300,-0.802,-0.802,0.688,25.532,9.882,9.859,40.010,17.170,11.310,40.052,27.542,7.074,32.856,18.774
Thu Dec 05 12:40:35 2024,335,-10.104,10.104,-0.718,-0.718,0.312,25.341,9.572,8.997,39.439,17.326,11.631,39.916,27.392,6.877,32.404,18.566
Thu Dec 05 12:40:35 2024,340,-10.026,10.026,-0.639,-0.639,0.197,25.504,9.512,8.517,39.227,17.487,11.504,41.357,28.840,7.324,32.407,18.750
Thu Dec 05 12:40:35 2024,345,-10.063,10.063,-0.571,-0.571,0.318,25.981,9.702,8.422,39.357,17.650,10.925,44.401,31.576,8.347,32.895,19.280
Thu Dec 05 12:40:35 2024,350,-10.135,10.135,-0.550,-0.550,0.419,26.320,9.821,8.462,39.568,17.743,10.634,46.997,33.463,9.119,33.354,19.711
Thu Dec 05 12:40:35 2024,355,-10.364,10.364,-0.617,-0.617,0.532,26.440,9.786,8.952,40.169,17.672,11.144,49.308,34.402,9.616,33.848,20.123
Thu Dec 05 12:40:35 2024,360,-10.604,10.604,-0.672,-0.672,0.697,26.572,9.756,9.465,40.730,17.594,11.552,51.367,34.905,10.112,34.335,20.489
Thu Dec 05 12:40:35 2024,365,-10.815,10.815,-0.469,-0.469,1.390,26.776,9.793,9.938,40.460,17.489,10.576,50.263,33.062,10.271,34.366,19.990
Thu Dec 05 12:40:35 2024,370,-10.992,10.992,-0.300,-0.300,1.976,26.991,9.820,10.331,40.245,17.405,9.813,49.382,31.635,10.406,34.394,19.571
Thu Dec 05 12:40:35 2024,375,-10.987,10.987,-0.288,-0.288,2.580,27.381,9.580,10.575,40.125,17.451,8.924,47.746,29.286,10.509,34.023,18.422
Thu Dec 05 12:40:35 2024,380,-10.914,10.914,-0.346,-0.346,3.108,27.793,9.272,10.728,40.058,17.539,8.142,46.103,27.049,10.584,33.579,17.164
Thu Dec 05 12:40:35 2024,385,-10.801,10.801,-0.351,-0.351,3.555,28.148,8.973,10.961,40.026,17.488,7.526,44.466,24.801,10.660,33.233,15.786
Thu Dec 05 12:40:35 2024,390,-10.650,10.650,-0.335,-0.335,3.940,28.458,8.680,11.265,40.026,17.318,7.036,42.814,22.511,10.741,32.965,14.298
Thu Dec 05 12:40:35 2024,395,-10.538,10.538,-0.370,-0.370,4.220,28.704,8.470,11.466,39.898,17.121,6.669,41.367,20.675,10.802,32.713,13.044
Thu Dec 05 12:40:35 2024,400,-10.504,10.504,-0.432,-0.432,4.297,28.806,8.424,11.482,39.588,16.910,6.528,40.410,19.670,10.826,32.509,12.314
Thu Dec 05 12:40:35 2024,405,-10.470,10.470,-0.492,-0.492,4.377,28.908,8.385,11.488,39.254,16.689,6.380,39.437,18.672,10.851,32.318,11.586
Thu Dec 05 12:40:35 2024,410,-10.454,10.454,-0.516,-0.516,4.471,28.987,8.475,11.352,38.664,16.416,6.132,38.391,17.815,10.873,32.208,11.106
Thu Dec 05 12:40:35 2024,415,-10.438,10.438,-0.542,-0.542,4.562,29.070,8.564,11.226,38.104,16.151,5.900,37.394,17.006,10.892,32.106,10.640
Thu Dec 05 12:40:35 2024,420,-10.429,10.429,-0.609,-0.609,4.650,29.256,8.655,11.151,37.743,15.889,5.685,36.661,16.407,10.865,31.961,10.229
Thu Dec 05 12:40:35 2024,425,-10.421,10.421,-0.681,-0.681,4.730,29.449,8.741,11.094,37.454,15.649,5.493,36.043,15.901,10.830,31.824,9.862
Thu Dec 05 12:40:35 2024,430,-10.425,10.425,-0.718,-0.718,4.823,29.618,8.858,11.052,37.163,15.477,5.294,35.441,15.440,10.763,31.660,9.538
Thu Dec 05 12:40:35 2024,435,-10.437,10.437,-0.730,-0.730,4.923,29.766,8.996,11.021,36.879,15.356,5.097,34.868,15.025,10.674,31.483,9.255
Thu Dec 05 12:40:35 2024,440,-10.466,10.466,-0.708,-0.708,4.970,29.841,9.137,10.927,36.567,15.222,4.830,34.333,14.657,10.523,31.271,9.068
Thu Dec 05 12:40:35 2024,445,-10.519,10.519,-0.645,-0.645,4.962,29.844,9.301,10.746,36.180,15.056,4.450,33.769,14.291,10.280,30.990,8.961
Thu Dec 05 12:40:35 2024,450,-10.603,10.603,-0.602,-0.602,4.976,29.881,9.470,10.616,35.823,14.900,4.113,33.153,13.936,10.077,30.745,8.864
Thu Dec 05 12:40:35 2024,455,-10.770,10.770,-0.607,-0.607,5.053,30.023,9.662,10.619,35.526,14.765,3.867,32.338,13.576,9.978,30.590,8.780
Thu Dec 05 12:40:35 2024,460,-10.923,10.923,-0.619,-0.619,5.136,30.164,9.837,10.625,35.251,14.637,3.639,31.530,13.216,9.894,30.458,8.697
Thu Dec 05 12:40:35 2024,465,-10.970,10.970,-0.638,-0.638,5.220,30.256,9.944,10.591,35.006,14.518,3.439,30.771,12.806,9.840,30.369,8.590
Thu Dec 05 12:40:35 2024,470,-10.986,10.986,-0.665,-0.665,5.318,30.346,10.043,10.537,34.729,14.382,3.217,29.901,12.312,9.786,30.283,8.458
Thu Dec 05 12:40:35 2024,475,-11.082,11.082,-0.639,-0.639,5.322,30.363,10.122,10.447,34.455,14.234,3.083,29.191,11.929,9.712,30.184,8.317
Thu Dec 05 12:40:35 2024,480,-11.226,11.226,-0.590,-0.590,5.288,30.352,10.202,10.329,34.142,14.061,2.966,28.449,11.540,9.619,30.066,8.152
Thu Dec 05 12:40:35 2024,485,-11.334,11.334,-0.580,-0.580,5.280,30.376,10.249,10.231,33.850,13.913,2.878,27.835,11.240,9.550,29.988,8.040
Thu Dec 05 12:40:35 2024,490,-11.379,11.379,-0.640,-0.640,5.324,30.468,10.234,10.166,33.581,13.802,2.845,27.438,11.090,9.524,29.984,8.024
Thu Dec 05 12:40:35 2024,495,-11.440,11.440,-0.702,-0.702,5.352,30.559,10.244,10.103,33.346,13.708,2.801,27.075,10.947,9.486,29.964,8.002
Thu Dec 05 12:40:35 2024,500,-11.575,11.575,-0.762,-0.762,5.322,30.697,10.379,10.050,33.261,13.715,2.708,26.945,10.891,9.396,29.879,7.995
Thu Dec 05 12:40:35 2024,505,-11.702,11.702,-0.814,-0.814,5.294,30.830,10.499,9.995,33.178,13.715,2.621,26.830,10.845,9.305,29.799,7.992
Thu Dec 05 12:40:35 2024,510,-11.779,11.779,-0.798,-0.798,5.280,30.934,10.532,9.922,33.092,13.654,2.557,26.796,10.850,9.186,29.751,8.028
Thu Dec 05 12:40:35 2024,515,-11.834,11.834,-0.770,-0.770,5.272,31.019,10.544,9.855,33.018,13.588,2.508,26.782,10.866,9.081,29.718,8.067
Thu Dec 05 12:40:35 2024,520,-11.902,11.902,-0.758,-0.758,5.212,31.149,10.592,9.784,33.004,13.580,2.405,26.858,10.901,8.982,29.683,8.101
Thu Dec 05 12:40:35 2024,525,-11.965,11.965,-0.755,-0.755,5.143,31.274,10.646,9.723,33.016,13.596,2.300,26.957,10.937,8.906,29.653,8.128
Thu Dec 05 12:40:35 2024,530,-12.017,12.017,-0.756,-0.756,5.113,31.370,10.722,9.651,32.970,13.594,2.188,26.920,10.925,8.753,29.578,8.198
Thu Dec 05 12:40:35 2024,535,-12.042,12.042,-0.759,-0.759,5.134,31.402,10.801,9.588,32.872,13.571,2.105,26.739,10.863,8.564,29.479,8.295
Thu Dec 05 12:40:35 2024,540,-12.061,12.061,-0.755,-0.755,5.156,31.479,10.859,9.528,32.762,13.519,1.995,26.486,10.762,8.341,29.367,8.378
Thu Dec 05 12:40:35 2024,545,-12.065,12.065,-0.734,-0.734,5.178,31.660,10.864,9.478,32.629,13.402,1.832,26.085,10.580,8.057,29.228,8.422
Thu Dec 05 12:40:35 2024,550,-12.068,12.068,-0.711,-0.711,5.201,31.844,10.866,9.429,32.499,13.283,1.669,25.685,10.397,7.777,29.103,8.464
Thu Dec 05 12:40:35 2024,555,-12.171,12.171,-0.636,-0.636,5.264,32.015,11.009,9.328,32.195,13.178,1.631,25.277,10.299,7.560,29.083,8.633
Thu Dec 05 12:40:35 2024,560,-12.256,12.256,-0.578,-0.578,5.316,32.149,11.127,9.245,31.950,13.096,1.607,24.958,10.226,7.395,29.084,8.770
Thu Dec 05 12:40:35 2024,565,-12.324,12.324,-0.581,-0.581,5.351,32.358,11.211,9.162,31.621,12.956,1.522,24.478,10.120,7.215,29.141,8.866
Thu Dec 05 12:40:35 2024,570,-12.372,12.372,-0.603,-0.603,5.372,32.545,11.263,9.097,31.343,12.829,1.435,24.054,10.027,7.073,29.214,8.925
Thu Dec 05 12:40:35 2024,575,-12.409,12.409,-0.620,-0.620,5.389,32.691,11.305,9.046,31.129,12.728,1.366,23.723,9.954,6.962,29.278,8.970
Thu Dec 05 12:40:35 2024,580,-12.437,12.437,-0.633,-0.633,5.402,32.801,11.335,9.007,30.971,12.653,1.313,23.476,9.899,6.879,29.331,9.004
Thu Dec 05 12:40:35 2024,585,-12.445,12.445,-0.637,-0.637,5.406,32.834,11.345,8.995,30.923,12.630,1.297,23.400,9.882,6.854,29.348,9.015
Thu Dec 05 12:40:35 2024,590,-12.716,12.716,-0.526,-0.526,5.659,33.422,11.886,9.016,30.414,12.424,1.236,22.978,10.116,6.448,30.154,10.238
Thu Dec 05 12:40:35 2024,595,-12.822,12.822,-0.508,-0.508,5.744,33.654,12.062,9.008,30.211,12.322,1.190,22.770,10.177,6.318,30.504,10.644
Thu Dec 05 12:40:35 2024,600,-12.982,12.982,-0.482,-0.006,5.854,33.893,12.260,9.048,30.068,12.233,1.152,22.818,10.369,6.360,31.077,11.230
Thu Dec 05 12:40:35 2024,605,-13.153,13.153,-0.462,0.462,5.964,34.128,12.456,9.094,29.950,12.147,1.115,22.918,10.582,6.437,31.688,11.843
Thu Dec 05 12:40:35 2024,610,-13.373,13.373,-0.472,0.472,6.263,34.536,12.841,9.315,30.006,12.147,1.153,23.222,10.865,6.757,32.516,12.538
Thu Dec 05 12:40:35 2024,615,-13.571,13.571,-0.489,0.489,6.553,34.917,13.203,9.532,30.093,12.161,1.200,23.519,11.120,7.078,33.264,13.149
Thu Dec 05 12:40:35 2024,620,-13.731,13.731,-0.491,0.491,6.942,35.289,13.525,9.966,30.401,12.254,1.356,24.189,11.584,7.610,34.451,14.392
Thu Dec 05 12:40:35 2024,625,-13.789,13.789,-0.476,0.476,7.275,35.507,13.680,10.443,9.196,12.388,1.555,24.962,12.071,8.140,35.610,15.795
Thu Dec 05 12:40:35 2024,630,-13.815,13.815,-0.468,0.468,7.626,35.726,13.826,11.074,8.607,12.498,1.694,25.803,12.552,8.759,37.136,17.589
Thu Dec 05 12:40:35 2024,635,-13.747,13.747,-0.502,-0.502,7.888,35.841,13.875,11.808,7.838,12.536,1.674,26.531,12.878,9.347,38.895,19.597
Thu Dec 05 12:40:35 2024,640,-13.638,13.638,-0.550,-0.550,8.090,35.912,13.906,12.450,7.169,12.580,1.698,27.400,13.251,9.940,40.762,21.691
Thu Dec 05 12:40:35 2024,645,-13.363,13.363,-0.559,-0.559,8.094,35.823,13.879,12.851,6.758,12.670,1.885,28.894,13.846,10.599,43.216,24.229
Thu Dec 05 12:40:35 2024,650,-13.116,13.116,-0.568,-0.568,8.076,35.730,13.850,13.161,6.441,12.749,2.061,30.226,14.365,11.178,45.395,26.489
Thu Dec 05 12:40:35 2024,655,-12.930,12.930,-0.609,-0.609,7.796,35.423,14.043,13.055,6.400,13.197,2.375,31.620,14.789,12.309,48.573,29.846
Thu Dec 05 12:40:35 2024,660,-12.813,12.813,-0.656,-0.656,7.522,35.145,14.244,12.868,33.579,13.625,2.642,32.649,15.054,13.327,51.199,32.611
Thu Dec 05 12:40:35 2024,665,-12.602,12.602,-0.581,-0.581,7.362,34.796,14.653,12.734,33.608,14.163,2.952,33.872,15.422,13.904,54.179,36.212
Thu Dec 05 12:40:35 2024,670,-12.322,12.322,0.150,-0.482,7.293,34.402,15.213,12.635,33.667,14.784,3.276,35.240,15.857,14.121,57.513,40.582
Thu Dec 05 12:40:35 2024,675,-12.162,12.162,0.532,-0.532,7.199,34.046,15.680,12.447,33.672,15.277,3.605,36.441,16.269,13.921,61.360,45.781
Thu Dec 05 12:40:35 2024,680,-12.168,12.168,0.723,-0.723,7.071,33.752,16.004,12.152,33.614,15.571,3.941,37.364,16.659,13.175,65.818,51.937
Thu Dec 05 12:40:35 2024,685,-12.177,12.177,0.940,-0.940,6.961,33.490,16.296,11.883,33.577,15.836,4.240,38.203,17.014,12.596,70.119,57.336
Thu Dec 05 12:40:35 2024,690,-12.320,12.320,1.041,-1.041,6.979,33.488,16.390,11.605,33.499,16.129,4.403,38.994,17.467,12.942,73.180,59.718
Thu Dec 05 12:40:35 2024,695,-12.428,12.428,1.175,-1.175,6.992,33.483,16.497,11.322,33.477,16.461,4.666,40.003,18.028,13.360,76.558,62.267
Thu Dec 05 12:40:35 2024,700,-12.313,12.313,1.329,1.329,7.048,33.642,16.498,11.165,33.749,16.903,5.417,41.998,19.133,13.472,78.896,64.132
Thu Dec 05 12:40:35 2024,705,-12.168,12.168,1.534,1.534,7.107,33.821,16.491,11.026,34.073,17.344,6.188,44.049,20.272,13.659,80.966,65.713
Thu Dec 05 12:40:35 2024,710,-12.068,12.068,1.738,1.738,7.082,34.212,16.403,11.052,34.500,17.358,6.919,46.144,21.282,13.406,81.754,66.875
Thu Dec 05 12:40:35 2024,715,-11.987,11.987,1.960,1.960,7.007,34.736,16.267,11.168,34.999,17.142,7.668,48.366,22.288,12.895,81.876,67.904
Thu Dec 05 12:40:35 2024,720,-12.096,12.096,2.126,2.126,6.916,35.210,16.386,11.284,35.279,16.850,8.436,50.888,24.023,13.188,82.882,69.265
Thu Dec 05 12:40:35 2024,725,-12.453,12.453,2.139,2.139,6.827,35.537,16.848,11.384,35.195,16.504,9.151,53.460,26.597,14.520,85.048,70.907
Thu Dec 05 12:40:35 2024,730,-12.779,12.779,2.123,2.123,6.765,35.858,17.413,11.603,35.206,16.272,10.220,56.494,29.869,16.292,87.695,72.915
Thu Dec 05 12:40:35 2024,735,-12.937,12.937,2.030,2.030,6.781,36.063,18.065,12.050,35.451,16.373,11.823,59.783,33.852,18.567,90.738,75.162
Thu Dec 05 12:40:35 2024,740,-13.059,13.059,1.958,1.958,6.803,36.269,18.612,12.436,35.696,16.476,13.360,62.951,37.786,20.839,93.488,77.298
Thu Dec 05 12:40:35 2024,745,-12.991,12.991,1.992,1.992,6.857,36.537,18.602,12.554,36.017,16.648,14.361,66.161,42.002,22.686,95.310,79.986
Thu Dec 05 12:40:35 2024,750,-12.908,12.908,2.037,2.037,6.910,36.774,18.507,12.618,36.308,16.808,15.235,69.003,46.110,24.277,96.720,82.383
Thu Dec 05 12:40:35 2024,755,-12.870,12.870,2.191,2.191,7.006,36.988,18.540,12.549,36.256,16.937,15.571,70.708,49.485,25.290,97.447,84.147
Thu Dec 05 12:40:35 2024,760,-12.856,12.856,2.426,2.426,7.135,37.212,18.647,12.403,36.017,17.063,15.639,71.978,52.879,26.092,97.880,85.739
Thu Dec 05 12:40:35 2024,765,-12.782,12.782,2.643,2.643,7.204,37.352,18.706,12.348,35.951,17.216,15.949,73.193,55.968,26.650,98.225,87.030
Thu Dec 05 12:40:35 2024,770,-12.622,12.622,2.932,2.932,7.245,37.478,18.747,12.352,36.010,17.455,16.621,74.870,60.114,27.208,98.640,88.591
Thu Dec 05 12:40:35 2024,775,-12.492,12.492,3.193,3.193,7.331,37.700,18.734,12.454,36.131,17.561,16.942,76.577,64.245,27.379,98.763,89.925
Thu Dec 05 12:40:35 2024,780,-12.372,12.372,3.508,3.508,7.560,38.244,18.586,12.825,36.455,17.402,16.539,79.100,69.951,26.704,98.248,91.352
Thu Dec 05 12:40:35 2024,785,-12.269,12.269,3.850,3.850,7.811,38.844,18.416,13.244,36.851,17.218,16.156,81.933,76.225,25.751,97.617,92.886
Thu Dec 05 12:40:35 2024,790,-12.370,12.370,4.099,4.099,7.982,39.323,18.241,13.633,37.489,17.101,15.376,84.363,81.763,23.564,96.813,94.249
Thu Dec 05 12:40:35 2024,795,-12.479,12.479,4.288,4.288,8.100,39.669,18.107,13.926,38.012,17.027,15.304,86.197,85.623,22.220,96.180,95.135
Thu Dec 05 12:40:35 2024,800,-12.678,12.678,4.600,4.600,7.978,40.287,18.380,13.960,38.746,17.210,15.860,87.682,87.926,23.030,97.128,95.935
Thu Dec 05 12:40:35 2024,805,-12.916,12.916,4.972,4.972,7.717,41.049,18.881,13.836,39.616,17.530,16.619,88.880,89.334,25.046,98.986,96.658
Thu Dec 05 12:40:35 2024,810,-13.010,13.010,5.273,5.273,7.414,41.581,19.213,13.863,40.461,17.817,-16.806,89.057,90.027,26.227,99.972,97.174
Thu Dec 05 12:40:35 2024,815,-13.006,13.006,5.510,5.510,7.102,41.932,19.418,13.980,41.223,18.065,-16.588,88.564,90.202,26.707,100.333,97.553
Thu Dec 05 12:40:35 2024,820,-13.036,13.036,5.762,5.762,6.848,42.226,19.609,14.068,41.818,18.276,-16.452,88.114,90.279,27.068,100.604,97.843
Thu Dec 05 12:40:35 2024,825,-13.159,13.159,6.037,6.037,6.773,42.330,19.759,14.078,41.901,18.386,-16.433,87.810,90.149,27.063,100.610,97.886
Thu Dec 05 12:40:35 2024,830,-13.279,13.279,6.324,6.324,6.708,42.444,19.904,14.092,41.981,18.484,-16.456,87.475,89.995,27.054,100.614,97.926
Thu Dec 05 12:40:35 2024,835,-13.248,13.248,6.450,6.450,6.767,42.512,19.886,14.112,41.963,18.409,-16.344,87.143,89.951,27.019,100.598,97.912
Thu Dec 05 12:40:35 2024,840,-13.207,13.207,6.557,6.557,6.842,42.573,19.853,14.130,41.928,18.321,-16.237,86.842,89.925,26.996,100.592,97.887
Thu Dec 05 12:40:35 2024,845,-13.190,13.190,6.642,6.642,6.932,42.610,19.835,14.132,41.852,18.258,-16.221,86.727,89.948,27.036,100.639,97.840
Thu Dec 05 12:40:35 2024,850,-13.183,13.183,6.730,6.730,7.051,42.641,19.821,14.123,41.737,18.197,-16.253,86.701,90.006,-27.122,100.729,97.770
Thu Dec 05 12:40:35 2024,855,-13.099,13.099,6.756,6.756,7.144,42.572,19.753,14.141,41.613,18.115,-16.256,86.799,90.129,-27.030,100.670,97.772
Thu Dec 05 12:40:35 2024,860,-12.992,12.992,6.747,6.747,7.207,42.466,19.671,14.170,41.506,18.036,-16.247,86.939,90.259,-26.866,100.548,97.809
Thu Dec 05 12:40:35 2024,865,-12.864,12.864,6.724,6.724,7.262,42.324,19.590,14.152,41.348,17.983,-16.247,87.200,90.411,26.667,100.403,97.844
Thu Dec 05 12:40:35 2024,870,-12.746,12.746,6.676,6.676,7.273,42.163,19.549,14.035,41.136,18.010,-16.287,87.625,90.539,26.481,100.271,97.852
Thu Dec 05 12:40:35 2024,875,-12.614,12.614,6.624,6.624,7.293,41.926,19.464,13.919,40.886,18.026,-16.317,87.977,90.698,26.193,100.045,97.894
Thu Dec 05 12:40:35 2024,880,-12.429,12.429,6.545,6.545,7.373,41.251,19.097,13.849,40.459,17.955,-15.978,87.683,91.165,-25.282,99.239,98.161
Thu Dec 05 12:40:35 2024,885,-12.236,12.236,6.472,6.472,7.462,40.506,18.675,13.780,39.998,17.857,-15.598,87.286,91.686,-24.386,98.342,98.452
Thu Dec 05 12:40:35 2024,890,-12.138,12.138,6.565,6.565,7.454,39.957,18.288,13.655,39.594,17.511,-15.235,86.811,92.223,-23.819,97.751,98.687
Thu Dec 05 12:40:35 2024,895,-12.062,12.062,6.726,6.726,7.410,39.430,17.880,13.500,39.177,17.057,-14.852,86.274,92.814,-23.334,97.214,98.916
Thu Dec 05 12:40:35 2024,900,-11.930,11.930,6.845,6.845,7.396,38.885,17.405,13.334,38.798,16.576,-14.494,85.743,93.426,-22.843,96.623,99.178
Thu Dec 05 12:40:35 2024,905,-11.812,11.812,6.903,6.903,7.403,38.517,17.054,13.220,38.570,16.246,-14.273,85.400,93.838,-22.522,96.203,99.365
Thu Dec 05 12:40:35 2024,910,-11.694,11.694,6.986,6.986,7.361,38.078,16.658,13.075,38.301,15.887,-13.924,84.854,94.244,-22.044,95.610,99.557
Thu Dec 05 12:40:35 2024,915,-11.617,11.617,7.102,7.102,7.215,37.609,16.283,12.903,38.022,15.575,-13.378,83.992,94.486,-21.310,94.780,99.697
Thu Dec 05 12:40:35 2024,920,-11.568,11.463,7.166,7.166,7.123,37.288,16.057,12.774,37.815,15.407,-12.986,83.186,94.295,-20.741,93.967,99.422
Thu Dec 05 12:40:35 2024,925,-11.560,10.935,7.114,7.114,7.132,37.143,16.098,12.666,37.649,15.535,-12.679,81.845,92.615,-20.079,92.477,97.648
Thu Dec 05 12:40:35 2024,930,-11.553,10.407,7.063,7.063,7.141,36.999,16.139,12.559,37.484,15.663,-12.371,80.503,90.935,-19.417,90.988,95.874
Thu Dec 05 12:40:35 2024,935,-11.546,9.878,7.011,7.011,7.150,36.854,16.180,12.452,37.318,15.792,-12.063,79.162,89.255,-18.755,89.498,94.100
Thu Dec 05 12:40:35 2024,940,-11.539,9.350,6.960,6.960,7.159,36.709,16.221,12.345,37.153,15.920,-11.755,77.821,87.574,-18.094,88.008,92.326
Thu Dec 05 12:40:35 2024,945,-11.531,8.822,6.909,6.909,7.168,36.565,16.262,12.238,36.987,16.049,-11.447,76.480,85.894,-17.432,86.519,90.551
Thu Dec 05 12:40:35 2024,950,-11.524,8.293,6.857,6.857,7.177,36.420,16.302,12.130,36.822,16.177,-11.140,75.139,84.214,-16.770,85.029,88.777
Thu Dec 05 12:40:35 2024,955,-11.517,7.765,6.806,6.806,7.186,36.276,16.343,12.023,36.656,16.306,-10.832,73.798,82.534,-16.108,83.539,87.003
Thu Dec 05 12:40:35 2024,960,-11.510,7.236,6.754,6.754,7.195,36.131,16.384,11.916,36.491,16.434,-10.524,72.457,80.854,-15.447,82.050,85.229
Thu Dec 05 12:40:35 2024,965,-11.502,6.708,6.703,6.703,7.204,35.986,16.425,11.809,36.325,16.562,-10.216,71.115,79.174,-14.785,80.560,83.455
Thu Dec 05 12:40:35 2024,970,-11.495,6.180,6.651,6.651,7.214,35.842,16.466,11.702,36.160,16.691,-9.908,69.774,77.494,-14.123,79.070,81.680
Thu Dec 05 12:40:35 2024,975,-11.488,5.651,6.600,6.600,7.223,35.697,16.507,11.594,35.994,16.819,-9.601,68.433,75.813,-13.461,77.581,79.906
Thu Dec 05 12:40:35 2024,980,-11.481,5.123,6.548,6.548,7.232,35.552,16.548,11.487,35.829,16.948,-9.293,67.092,74.133,-12.800,76.091,78.132
Thu Dec 05 12:40:35 2024,985,-11.473,4.595,6.497,6.497,7.241,35.408,16.589,11.380,35.663,17.076,-8.985,65.751,72.453,-12.138,74.601,76.358
Thu Dec 05 12:40:35 2024,990,-11.466,4.066,6.446,6.446,7.250,35.263,16.629,11.273,35.497,17.204,-8.677,64.410,70.773,-11.476,73.112,74.584
Thu Dec 05 12:40:35 2024,995,-11.459,3.538,6.394,6.394,7.259,35.118,16.670,11.166,35.332,17.333,-8.369,63.068,69.093,-10.814,71.622,72.810
Thu Dec 05 12:40:36 2024,0,-11.452,3.010,6.343,6.343,7.268,34.974,16.711,11.058,35.166,17.461,-8.062,61.727,67.413,-10.152,70.132,71.036
Thu Dec 05 12:40:36 2024,5,-11.444,2.481,6.291,6.291,7.277,34.829,16.752,10.951,35.001,17.590,-7.754,60.386,65.733,-9.491,68.643,69.261
Thu Dec 05 12:40:36 2024,10,-11.437,1.953,6.240,6.240,7.286,34.684,16.793,10.844,34.835,17.718,-7.446,59.045,64.052,-8.829,67.153,67.487
Thu Dec 05 12:40:36 2024,15,-11.430,1.425,6.188,6.188,7.295,34.540,16.834,10.737,34.670,17.846,-7.138,57.704,62.372,-8.167,65.663,65.713
Thu Dec 05 12:40:36 2024,20,-11.423,0.896,6.137,6.137,7.304,34.395,16.875,10.630,34.504,17.975,-6.830,56.363,60.692,-7.505,64.174,63.939
Thu Dec 05 12:40:36 2024,25,-11.415,0.368,6.086,6.086,7.313,34.250,16.916,10.522,34.339,18.103,-6.523,55.021,59.012,-6.844,62.684,62.165
Thu Dec 05 12:40:36 2024,30,-11.408,-0.161,6.034,6.034,7.322,34.106,16.957,10.415,34.173,18.232,-6.215,53.680,57.332,-6.182,61.194,60.390
Thu Dec 05 12:40:36 2024,35,-11.401,-0.689,5.983,5.983,7.332,33.961,16.997,10.308,34.008,18.360,-5.907,52.339,55.652,-5.520,59.705,58.616
Thu Dec 05 12:40:36 2024,40,-11.394,-1.217,5.931,5.931,7.341,33.816,17.038,10.201,33.842,18.488,-5.599,50.998,53.972,-4.858,58.215,56.842
Thu Dec 05 12:40:36 2024,45,-11.386,-1.746,5.880,5.880,7.350,33.672,17.079,10.094,33.677,18.617,-5.291,49.657,52.292,-4.197,56.725,55.068
Thu Dec 05 12:40:36 2024,50,-11.379,-2.274,5.828,5.828,7.359,33.527,17.120,9.986,33.511,18.745,-4.984,48.316,50.611,-3.535,55.235,53.294
Thu Dec 05 12:40:36 2024,55,-11.372,-2.802,5.777,5.777,7.368,33.382,17.161,9.879,33.346,18.874,-4.676,46.975,48.931,-2.873,53.746,51.520
Thu Dec 05 12:40:36 2024,60,-11.365,-3.331,5.726,5.726,7.377,33.238,17.202,9.772,33.180,19.002,-4.368,45.633,47.251,-2.211,52.256,49.746
Thu Dec 05 12:40:36 2024,65,-11.357,-3.859,5.674,5.674,7.386,33.093,17.243,9.665,33.014,19.130,-4.060,44.292,45.571,-1.550,50.766,47.971
Thu Dec 05 12:40:36 2024,70,-11.350,-4.387,5.623,5.623,7.395,32.948,17.284,9.558,32.849,19.259,-3.752,42.951,43.891,-0.888,49.277,46.197
Thu Dec 05 12:40:36 2024,75,-11.343,-4.916,5.571,5.571,7.404,32.804,17.324,9.450,32.683,19.387,-3.445,41.610,42.211,-0.226,47.787,44.423
Thu Dec 05 12:40:36 2024,80,-11.336,-5.444,5.520,5.520,7.413,32.659,17.365,9.343,32.518,19.516,-3.137,40.269,40.531,0.436,46.297,42.649
Thu Dec 05 12:40:36 2024,85,-11.328,-5.972,5.468,5.468,7.422,32.515,17.406,9.236,32.352,19.644,-2.829,38.928,38.850,1.097,44.808,40.875
Thu Dec 05 12:40:36 2024,90,-11.321,-6.501,5.417,5.417,7.431,32.370,17.447,9.129,32.187,19.772,-2.521,37.586,37.170,1.759,43.318,39.101
Thu Dec 05 12:40:36 2024,95,-11.314,-7.029,5.365,5.365,7.440,32.225,17.488,9.022,32.021,19.901,-2.213,36.245,35.490,2.421,41.828,37.326
Thu Dec 05 12:40:36 2024,100,-11.307,-7.558,5.314,5.314,7.449,32.081,17.529,8.914,31.856,20.029,-1.906,34.904,33.810,3.083,40.339,35.552
Thu Dec 05 12:40:36 2024,105,-11.299,-8.086,5.263,5.263,7.459,31.936,17.570,8.807,31.690,20.158,-1.598,33.563,32.130,3.744,38.849,33.778
Thu Dec 05 12:40:36 2024,110,-11.292,-8.614,5.211,5.211,7.468,31.791,17.611,8.700,31.525,20.286,-1.290,32.222,30.450,4.406,37.359,32.004
Thu Dec 05 12:40:36 2024,115,-11.285,-9.143,5.160,5.160,7.477,31.647,17.651,8.593,31.359,20.414,-0.982,30.881,28.770,5.068,35.870,30.230
Thu Dec 05 12:40:36 2024,120,-11.278,-9.671,5.108,5.108,7.486,31.502,17.692,8.486,31.194,20.543,-0.674,29.539,27.089,5.730,34.380,28.456
Thu Dec 05 12:40:36 2024,125,-11.270,-10.199,5.057,5.057,7.495,31.357,17.733,8.378,31.028,20.671,-0.367,28.198,25.409,6.391,32.890,26.681
Thu Dec 05 12:40:36 2024,130,-11.263,-10.728,5.005,5.005,7.504,31.213,17.774,8.271,30.863,20.800,-0.059,26.857,23.729,7.053,31.401,24.907
Thu Dec 05 12:40:36 2024,135,-11.256,-11.256,4.954,4.954,7.513,31.068,17.815,8.164,30.697,20.928,0.249,25.516,22.049,7.715,29.911,23.133
Thu Dec 05 12:40:36 2024,140,-11.256,-11.256,4.954,4.954,7.513,31.068,17.815,8.164,30.697,20.928,0.249,25.516,22.049,7.715,29.911,23.133
Thu Dec 05 12:40:36 2024,145,-11.142,-11.142,4.645,4.645,7.386,31.289,17.486,8.306,31.096,20.832,0.390,26.176,21.560,7.959,29.813,22.128
Thu Dec 05 12:40:36 2024,150,-11.002,-11.002,4.110,4.110,7.149,31.690,16.929,8.540,31.791,20.680,0.622,27.331,20.724,8.381,29.711,20.366
Thu Dec 05 12:40:36 2024,155,-10.983,10.983,3.451,3.451,6.772,32.176,16.353,8.745,32.678,20.483,0.780,28.589,19.728,9.025,29.982,18.442
Thu Dec 05 12:40:36 2024,160,-11.118,11.118,3.082,3.082,6.394,32.345,16.285,8.672,33.242,20.276,0.572,28.744,19.238,9.734,30.946,18.207
Thu Dec 05 12:40:36 2024,165,-11.265,11.265,2.721,2.721,6.011,32.530,16.177,8.593,33.806,20.032,0.400,28.896,18.720,10.453,31.898,17.896
Thu Dec 05 12:40:36 2024,170,-11.456,11.456,2.515,2.515,5.735,32.636,15.778,8.541,34.022,19.571,0.455,28.944,18.156,11.078,32.417,17.103
Thu Dec 05 12:40:36 2024,175,-11.649,11.649,2.337,2.337,5.482,32.737,15.352,8.495,34.186,19.095,0.541,28.978,17.601,11.670,32.872,16.270
Thu Dec 05 12:40:36 2024,180,-11.798,11.798,2.274,2.274,5.389,32.920,15.011,8.542,34.400,18.765,0.617,28.923,17.083,12.082,33.120,15.416
Thu Dec 05 12:40:36 2024,185,-11.955,11.955,2.263,2.263,5.366,33.181,14.651,8.648,34.679,18.450,0.703,28.812,16.484,12.475,33.318,14.388
Thu Dec 05 12:40:36 2024,190,-12.072,12.072,2.246,2.246,5.357,33.252,14.417,8.706,34.801,18.280,0.730,28.673,16.112,12.683,33.375,13.651
Thu Dec 05 12:40:36 2024,195,-12.182,12.182,2.224,2.224,5.356,33.202,14.232,8.738,34.834,18.182,0.718,28.492,15.835,12.798,33.348,12.992
Thu Dec 05 12:40:36 2024,200,-12.270,12.270,2.222,2.222,5.356,33.160,14.098,8.768,34.844,18.111,0.697,28.272,15.600,12.904,6.648,12.507
Thu Dec 05 12:40:36 2024,205,-12.344,12.344,2.294,2.294,5.367,33.111,14.051,8.812,34.773,18.084,0.618,27.727,15.330,13.063,6.572,12.271
Thu Dec 05 12:40:36 2024,210,-12.403,12.403,2.339,2.339,5.384,33.066,13.989,8.844,34.686,18.042,0.566,27.293,15.101,13.220,6.482,12.025
Thu Dec 05 12:40:36 2024,215,-12.429,12.429,2.318,2.318,5.420,33.024,13.880,8.849,34.543,17.952,0.577,27.097,14.948,13.390,6.361,11.724
Thu Dec 05 12:40:36 2024,220,-12.449,12.449,2.281,2.281,5.461,32.981,13.760,8.848,34.384,17.846,0.601,26.959,14.812,13.567,6.229,11.404
Thu Dec 05 12:40:36 2024,225,-12.561,12.561,2.321,2.321,5.473,32.831,13.695,8.853,34.249,17.750,0.552,26.720,14.631,13.726,6.112,11.082
Thu Dec 05 12:40:36 2024,230,-12.697,12.697,2.384,2.384,5.476,32.652,13.650,8.861,34.126,17.660,0.483,26.459,14.443,13.873,6.000,10.773
Thu Dec 05 12:40:36 2024,235,-12.851,12.851,2.424,2.424,5.511,32.574,13.579,8.859,33.994,17.569,0.407,26.100,14.189,14.003,5.904,10.413
Thu Dec 05 12:40:36 2024,240,-13.021,13.021,2.439,2.439,5.579,32.606,13.480,8.845,33.853,17.478,0.324,25.644,13.869,14.111,5.825,10.006
Thu Dec 05 12:40:36 2024,245,-13.183,13.183,2.458,2.458,5.611,32.598,13.382,8.837,33.747,17.396,0.290,25.267,13.602,14.215,5.743,9.666
Thu Dec 05 12:40:36 2024,250,-13.299,13.299,2.476,2.476,5.589,32.541,13.307,8.840,33.708,17.345,0.326,25.072,13.462,14.289,5.677,9.484
Thu Dec 05 12:40:36 2024,255,-13.444,13.444,2.496,2.496,5.548,32.474,13.206,8.828,33.644,17.276,0.367,24.837,13.292,14.372,5.604,9.272
Thu Dec 05 12:40:36 2024,260,-13.585,13.585,2.507,2.507,5.423,32.445,13.059,8.718,33.480,17.172,0.366,24.654,13.161,14.383,5.592,9.150
Thu Dec 05 12:40:36 2024,265,-13.715,13.715,2.514,2.514,5.296,32.425,12.918,8.601,33.315,17.072,0.358,24.494,13.046,14.384,5.590,9.051
Thu Dec 05 12:40:36 2024,270,-13.915,13.915,2.574,2.574,5.314,32.500,12.906,8.625,33.212,16.910,0.469,24.545,12.883,14.473,5.498,8.898
Thu Dec 05 12:40:36 2024,275,-14.114,14.114,2.634,2.634,5.332,32.576,12.894,8.648,33.109,16.749,0.580,24.596,12.719,14.562,5.407,8.744
Thu Dec 05 12:40:36 2024,280,-14.291,14.291,2.587,2.587,5.286,32.567,12.824,8.606,32.907,16.588,0.652,24.570,12.550,14.654,5.312,8.618
Thu Dec 05 12:40:36 2024,285,-14.417,14.417,2.468,2.468,5.198,32.493,12.722,8.520,32.666,16.458,0.681,24.487,12.410,14.728,5.234,8.536
Thu Dec 05 12:40:36 2024,290,-14.542,14.542,2.391,2.391,5.119,32.408,12.611,8.438,32.424,16.316,0.718,24.351,12.254,14.750,5.208,8.444
Thu Dec 05 12:40:36 2024,295,-14.702,14.702,2.378,2.378,5.032,32.270,12.445,8.345,32.103,16.110,0.787,24.065,12.015,14.672,5.280,8.301
Thu Dec 05 12:40:36 2024,300,-14.840,14.840,2.380,2.380,4.949,32.125,12.298,8.251,31.798,15.925,0.847,23.812,11.812,14.620,5.327,8.184
Thu Dec 05 12:40:36 2024,305,-14.957,14.957,2.436,2.436,4.851,31.899,12.152,8.123,31.416,15.739,0.911,23.567,11.651,14.638,5.307,8.106
Thu Dec 05 12:40:36 2024,310,-15.060,15.060,2.484,2.484,4.764,31.703,12.026,8.011,31.086,15.577,0.966,23.357,11.512,14.654,5.290,8.038
Thu Dec 05 12:40:36 2024,315,-15.294,15.294,2.514,2.514,4.656,31.551,11.921,7.908,30.840,15.452,1.052,23.203,11.361,14.743,5.197,7.938
Thu Dec 05 12:40:36 2024,320,-15.575,15.575,2.540,2.540,4.535,31.404,11.819,7.801,30.602,15.330,1.150,23.062,11.198,14.856,5.080,7.823
Thu Dec 05 12:40:36 2024,325,-15.810,15.810,2.554,2.554,4.386,31.179,11.702,7.661,30.338,15.248,1.171,22.850,11.086,14.912,5.024,7.785
Thu Dec 05 12:40:36 2024,330,-16.042,16.042,2.562,2.562,4.214,30.900,11.568,7.496,30.045,15.178,1.159,22.593,10.990,14.944,4.993,7.781
Thu Dec 05 12:40:36 2024,335,-16.275,16.275,2.616,2.616,4.060,30.634,11.443,7.354,29.794,15.086,1.189,22.433,10.888,15.017,4.928,7.712
Thu Dec 05 12:40:36 2024,340,-16.503,16.503,2.758,2.758,3.948,30.407,11.336,7.269,29.641,14.955,1.304,22.471,10.778,15.164,4.796,7.513
Thu Dec 05 12:40:36 2024,345,-16.700,16.700,2.880,2.880,3.828,30.170,11.243,7.164,29.474,14.858,1.403,22.505,10.688,15.331,4.639,7.374
Thu Dec 05 12:40:36 2024,350,-16.772,16.772,2.914,2.914,3.697,29.927,11.205,7.008,29.278,14.888,1.431,22.499,10.670,15.539,4.425,7.448
Thu Dec 05 12:40:36 2024,355,-16.871,16.871,2.951,2.951,3.573,29.696,11.172,6.855,29.075,14.910,1.460,22.499,10.653,15.744,4.215,7.506
Thu Dec 05 12:40:36 2024,360,-17.088,17.088,2.996,2.996,3.501,29.565,11.170,6.748,28.884,14.892,1.494,22.523,10.641,15.887,4.079,7.448
Thu Dec 05 12:40:36 2024,365,-17.354,17.354,3.047,3.047,3.440,29.454,11.176,6.648,28.684,14.860,1.531,22.556,10.629,16.022,3.953,7.353
Thu Dec 05 12:40:36 2024,370,-17.490,17.490,3.180,3.180,3.354,29.225,11.081,6.585,28.610,14.871,1.562,22.543,10.651,16.140,3.831,7.408
Thu Dec 05 12:40:36 2024,375,-17.579,17.579,3.334,3.334,3.264,28.966,10.956,6.536,28.580,14.895,1.591,22.516,10.684,16.249,3.715,7.511
Thu Dec 05 12:40:36 2024,380,-17.706,17.706,3.554,3.554,3.154,28.726,10.816,6.454,28.490,14.860,1.610,22.474,10.679,16.276,3.682,7.536
Thu Dec 05 12:40:36 2024,385,-17.865,17.865,3.827,3.827,3.030,28.542,10.674,6.340,28.337,14.755,1.613,22.421,10.628,16.202,3.756,7.459
Thu Dec 05 12:40:36 2024,390,-18.004,18.004,4.139,4.139,2.915,28.326,10.540,6.258,28.194,14.662,1.608,22.323,10.569,16.141,3.815,7.400
Thu Dec 05 12:40:36 2024,395,-18.112,18.112,4.565,4.565,2.808,28.026,10.408,6.238,28.065,14.586,1.586,22.129,10.484,16.104,3.846,7.374
Thu Dec 05 12:40:36 2024,400,-18.234,18.234,5.038,5.038,2.700,27.740,10.295,6.204,27.911,14.511,1.559,21.945,10.418,16.054,3.888,7.367
Thu Dec 05 12:40:36 2024,405,-18.427,18.427,5.762,5.762,2.582,27.549,10.287,6.095,27.624,14.449,1.520,21.764,10.455,15.937,3.994,7.467
Thu Dec 05 12:40:36 2024,410,-18.610,18.610,6.453,6.453,2.478,27.403,10.307,5.981,27.351,14.397,1.483,21.624,10.508,15.825,4.092,7.585
Thu Dec 05 12:40:36 2024,415,-18.818,18.818,7.374,7.374,2.331,27.133,10.334,5.851,27.100,14.313,1.471,19.509,10.504,15.811,4.072,7.805
Thu Dec 05 12:40:36 2024,420,-19.002,19.002,8.243,8.243,2.191,26.858,10.360,5.736,26.898,14.232,1.471,18.523,10.480,15.836,4.006,8.027
Thu Dec 05 12:40:36 2024,425,-19.202,19.202,9.537,9.537,2.033,26.394,10.403,5.572,26.497,14.054,1.534,18.437,10.462,15.808,4.009,8.292
Thu Dec 05 12:40:36 2024,430,-19.369,19.369,10.954,10.954,1.896,25.850,10.452,5.399,26.019,13.821,1.647,18.172,10.454,15.732,4.089,8.536
Thu Dec 05 12:40:36 2024,435,-19.530,19.530,12.511,12.511,1.782,25.377,10.529,5.244,25.640,13.617,1.785,17.836,10.457,15.652,4.167,8.818
Thu Dec 05 12:40:36 2024,440,-19.669,19.669,14.503,14.503,1.744,25.123,10.700,5.150,25.453,13.503,2.006,17.520,10.502,15.555,4.236,9.225
Thu Dec 05 12:40:36 2024,445,-19.784,19.784,16.562,16.562,1.682,24.845,10.879,5.033,25.252,13.388,2.204,17.225,10.543,15.451,4.309,9.644
Thu Dec 05 12:40:36 2024,450,-19.745,19.745,18.965,18.965,1.465,24.423,11.109,4.775,15.085,13.267,2.248,17.098,10.571,15.304,4.426,10.111
Thu Dec 05 12:40:36 2024,455,-19.684,19.684,21.260,21.260,1.269,24.021,11.336,4.534,15.389,13.158,2.284,16.978,10.602,15.168,4.534,10.554
Thu Dec 05 12:40:36 2024,460,-19.560,19.560,23.194,23.194,1.372,23.795,11.592,4.526,15.458,13.105,2.491,16.652,10.704,15.137,4.568,10.971
Thu Dec 05 12:40:36 2024,465,-19.421,19.421,25.055,25.055,1.556,23.634,11.856,4.582,15.415,13.068,2.745,16.271,10.826,15.136,4.582,11.378
Thu Dec 05 12:40:36 2024,470,-19.390,19.390,27.237,27.237,1.483,23.154,12.361,4.507,15.402,13.275,2.836,15.845,11.013,14.908,4.828,11.940
Thu Dec 05 12:40:36 2024,475,-19.449,19.449,28.979,28.979,1.235,22.567,12.892,4.353,15.438,13.604,2.775,15.512,11.191,14.577,5.175,12.449
Thu Dec 05 12:40:36 2024,480,-19.544,19.544,30.472,30.472,1.346,22.127,13.256,4.434,15.218,14.028,2.932,15.038,11.474,14.339,5.433,12.894
Thu Dec 05 12:40:36 2024,485,-19.679,19.679,31.173,31.173,1.964,22.235,13.283,4.841,14.760,14.489,3.367,14.513,11.838,14.296,5.492,13.132
Thu Dec 05 12:40:36 2024,490,-19.774,19.774,31.760,31.760,2.479,19.945,13.296,5.185,14.354,14.809,3.729,14.082,12.112,14.240,5.562,13.288
Thu Dec 05 12:40:36 2024,495,-19.552,19.552,31.946,31.946,2.824,17.176,13.242,5.445,13.907,14.596,3.957,13.845,12.097,14.064,5.750,13.131
Thu Dec 05 12:40:36 2024,500,-19.389,19.389,32.086,32.086,3.069,16.906,13.196,5.631,13.561,14.407,4.118,13.683,12.067,13.925,5.898,12.993
Thu Dec 05 12:40:36 2024,505,-19.855,19.855,32.822,32.822,3.052,16.922,13.226,5.583,13.522,14.274,4.248,13.663,12.000,13.732,6.056,12.856
Thu Dec 05 12:40:36 2024,510,-20.496,20.496,33.715,33.715,2.963,17.023,13.274,5.469,13.574,14.169,4.360,13.682,11.927,13.540,6.198,12.730
Thu Dec 05 12:40:36 2024,515,-20.682,20.682,34.700,34.700,3.011,16.918,12.848,5.632,13.222,13.809,4.748,13.258,11.822,13.548,6.220,12.576
Thu Dec 05 12:40:36 2024,520,-20.658,20.658,35.557,35.557,3.117,16.669,12.271,5.902,12.731,13.390,5.204,12.695,11.720,13.649,6.175,12.434
Thu Dec 05 12:40:36 2024,525,-20.768,20.768,35.635,35.635,3.088,16.528,11.830,6.083,12.334,13.030,5.505,12.385,11.692,13.718,6.111,12.304
Thu Dec 05 12:40:36 2024,530,-21.093,21.093,34.205,34.205,2.804,16.676,11.655,6.093,12.132,12.787,5.496,12.570,11.810,13.719,6.014,12.200
Thu Dec 05 12:40:36 2024,535,-21.521,21.521,32.680,32.680,2.485,16.873,11.581,6.061,12.003,12.615,5.492,12.800,12.018,13.718,5.900,12.123
Thu Dec 05 12:40:36 2024,540,-22.004,22.004,30.955,30.955,2.042,17.373,11.929,5.837,12.220,12.744,5.515,13.182,12.564,13.725,5.775,12.159
Thu Dec 05 12:40:36 2024,545,-22.457,22.457,29.420,29.420,1.685,17.778,12.208,5.641,12.408,12.856,5.528,13.469,13.019,13.727,34.335,12.186
Thu Dec 05 12:40:36 2024,550,-22.620,22.620,27.233,27.233,1.586,17.958,12.253,5.366,12.664,12.991,5.438,13.680,13.274,13.658,34.333,12.168
Thu Dec 05 12:40:36 2024,555,-22.773,22.773,25.515,25.515,1.561,18.045,12.243,5.151,12.861,13.093,5.356,13.821,13.424,13.596,34.313,12.148
Thu Dec 05 12:40:36 2024,560,-22.771,22.771,23.678,23.678,1.465,18.140,12.126,4.862,13.116,13.136,5.118,14.117,13.506,13.380,34.168,12.057
Thu Dec 05 12:40:36 2024,565,-22.737,22.737,22.334,22.334,1.362,18.208,11.989,4.620,13.323,13.135,4.870,14.404,13.529,13.149,34.004,11.958
Thu Dec 05 12:40:36 2024,570,-22.623,22.623,20.666,20.666,1.304,18.359,11.937,4.391,13.571,13.136,4.544,14.823,13.576,12.944,33.903,11.901
Thu Dec 05 12:40:36 2024,575,-22.466,22.466,19.315,19.315,1.321,18.513,12.003,4.270,13.766,13.137,4.261,15.217,13.630,12.851,33.915,11.914
Thu Dec 05 12:40:36 2024,580,-22.391,22.391,18.058,18.058,1.325,18.619,12.052,4.156,13.961,13.135,3.993,15.599,13.684,12.753,33.935,11.950
Thu Dec 05 12:40:36 2024,585,-22.350,22.350,16.926,16.926,1.281,18.716,12.020,4.046,14.214,13.113,3.719,16.032,13.758,12.605,33.982,12.106
Thu Dec 05 12:40:36 2024,590,-22.382,22.382,16.043,16.043,1.254,18.734,11.990,3.977,14.409,13.087,3.509,16.341,13.791,12.484,34.018,12.207
Thu Dec 05 12:40:36 2024,595,-22.280,22.280,15.377,15.377,1.300,21.393,11.925,4.062,14.541,13.003,3.381,16.492,13.641,12.354,33.968,12.120
Thu Dec 05 12:40:36 2024,600,-22.202,22.202,14.837,14.837,1.354,21.587,11.864,4.167,14.624,12.919,3.298,16.580,13.472,12.246,33.915,12.002
Thu Dec 05 12:40:36 2024,605,-22.222,22.222,14.220,14.220,1.395,21.875,11.821,4.261,14.672,12.831,3.294,16.579,13.297,12.180,33.900,11.854
Thu Dec 05 12:40:36 2024,610,-22.291,22.291,13.730,13.730,1.420,22.160,11.799,4.324,14.688,12.764,3.330,16.531,13.165,12.154,33.911,11.730
Thu Dec 05 12:40:36 2024,615,22.283,22.283,13.144,13.144,1.417,22.405,11.813,4.385,14.631,12.684,3.423,16.393,13.040,12.127,33.888,11.606
Thu Dec 05 12:40:36 2024,620,22.189,22.189,12.699,12.699,1.384,22.486,11.863,4.417,14.518,12.624,3.539,16.206,12.973,12.110,33.838,11.537
Thu Dec 05 12:40:36 2024,625,22.074,22.074,12.335,12.335,1.355,22.569,11.928,4.451,14.410,12.572,3.649,16.040,12.918,12.114,33.814,11.478
Thu Dec 05 12:40:36 2024,630,21.849,21.849,12.168,12.168,1.335,22.666,12.058,4.497,14.300,12.535,3.760,15.933,12.898,12.186,33.876,11.441
Thu Dec 05 12:40:36 2024,635,21.671,21.671,12.084,12.084,1.308,22.740,12.189,4.525,14.224,12.524,3.840,15.856,12.904,12.238,33.912,11.425
Thu Dec 05 12:40:36 2024,640,21.480,21.480,12.200,12.200,1.237,22.798,12.429,4.513,14.198,12.583,3.888,15.817,13.005,12.267,33.896,11.466
Thu Dec 05 12:40:36 2024,645,21.302,21.302,12.344,12.344,1.164,22.854,12.671,4.494,14.184,12.651,3.926,15.789,13.115,12.290,33.872,11.514
Thu Dec 05 12:40:36 2024,650,21.178,21.178,12.694,12.694,1.065,22.832,12.759,4.494,14.217,12.734,3.942,15.806,13.237,12.372,33.928,11.560
Thu Dec 05 12:40:36 2024,655,21.076,21.076,13.107,13.107,0.958,22.791,12.801,4.499,14.262,12.821,3.954,15.834,13.363,12.472,34.007,11.603
Thu Dec 05 12:40:36 2024,660,0.016,21.006,13.655,13.655,0.856,22.678,12.858,4.499,14.299,12.922,3.931,15.884,13.483,12.583,34.078,11.598
Thu Dec 05 12:40:36 2024,665,-20.970,20.970,14.397,14.397,0.739,22.498,12.936,4.498,14.339,13.051,3.881,15.956,13.624,12.722,34.159,11.559
Thu Dec 05 12:40:36 2024,670,-20.965,20.965,15.265,15.265,0.631,22.340,13.048,4.500,14.354,13.162,3.874,15.974,13.734,12.887,34.230,11.508
Thu Dec 05 12:40:36 2024,675,-20.995,20.995,16.332,16.332,0.545,22.224,13.218,4.506,14.326,13.236,3.947,15.892,13.783,13.093,34.285,11.435
Thu Dec 05 12:40:36 2024,680,-21.100,21.100,17.407,17.407,0.461,22.114,13.389,4.513,14.296,13.308,4.023,15.806,13.829,13.300,34.348,11.362
Thu Dec 05 12:40:36 2024,685,-20.819,20.819,19.007,19.007,0.365,21.886,13.437,4.563,14.216,13.282,3.912,15.847,13.729,13.514,34.445,11.294
Thu Dec 05 12:40:36 2024,690,-20.651,20.651,20.518,20.518,0.273,21.675,13.487,4.609,14.141,13.261,3.812,15.872,13.638,13.717,34.543,11.230
Thu Dec 05 12:40:36 2024,695,-20.576,20.576,22.291,22.291,0.261,21.176,13.524,4.768,13.882,13.325,3.703,15.702,13.456,14.010,34.726,11.373
Thu Dec 05 12:40:36 2024,700,-20.583,20.583,23.799,23.799,0.265,20.729,13.552,4.917,13.639,13.392,3.612,15.475,13.292,14.267,34.898,11.524
Thu Dec 05 12:40:36 2024,705,-20.458,20.458,25.626,25.626,0.290,20.391,13.602,4.972,13.332,13.389,3.556,15.061,13.162,14.458,9.976,11.897
Thu Dec 05 12:40:36 2024,710,-20.306,20.306,27.417,27.417,0.326,19.616,13.657,4.972,13.009,13.351,3.526,14.583,13.064,14.595,4.965,12.349
Thu Dec 05 12:40:36 2024,715,-20.137,20.137,29.457,29.457,0.472,19.203,13.724,4.977,12.618,13.313,3.552,13.963,12.938,14.784,4.898,12.796
Thu Dec 05 12:40:36 2024,720,-19.841,19.841,32.199,32.199,0.863,18.452,13.819,5.017,12.068,13.293,3.682,13.058,12.723,15.133,4.726,13.222
Thu Dec 05 12:40:36 2024,725,-19.670,19.670,34.051,34.051,1.138,17.926,13.886,5.046,11.670,13.280,3.776,12.410,12.576,15.384,4.556,13.517
Thu Dec 05 12:40:36 2024,730,-19.136,19.136,35.101,35.101,1.321,17.344,14.417,4.894,10.831,13.435,3.724,11.284,12.571,15.496,4.505,14.135
Thu Dec 05 12:40:36 2024,735,-18.802,18.802,35.932,35.932,1.464,16.901,14.798,4.785,10.179,13.544,3.693,10.428,12.563,15.596,4.376,14.586
Thu Dec 05 12:40:36 2024,740,-18.776,18.776,35.623,35.623,1.489,17.165,15.111,4.512,10.587,13.693,3.146,10.543,12.327,15.676,4.279,14.496
Thu Dec 05 12:40:36 2024,745,-18.883,18.883,35.216,35.216,1.498,17.483,15.385,4.245,11.107,13.837,2.580,10.757,12.083,15.746,4.199,14.339
Thu Dec 05 12:40:36 2024,750,-18.122,18.122,33.862,33.862,1.527,17.716,15.039,4.179,11.532,13.723,2.082,10.895,11.814,15.576,4.369,14.117
Thu Dec 05 12:40:36 2024,755,-17.157,17.157,32.462,32.462,1.554,17.837,14.467,4.236,11.777,13.504,1.767,10.951,11.612,15.328,4.622,13.927
Thu Dec 05 12:40:36 2024,760,-16.577,16.577,30.862,30.862,1.402,18.355,14.229,4.109,12.273,13.437,1.360,11.219,11.462,15.069,4.893,13.752
Thu Dec 05 12:40:36 2024,765,-16.838,16.838,29.412,29.412,0.986,20.019,14.720,3.692,13.068,13.693,0.939,11.811,11.470,14.894,5.086,13.676
Thu Dec 05 12:40:36 2024,770,-17.079,17.079,27.924,27.924,0.615,21.892,15.152,3.343,13.955,13.884,0.555,12.546,11.450,14.785,5.211,13.518
Thu Dec 05 12:40:36 2024,775,-16.959,16.959,26.841,26.841,0.591,22.856,15.057,3.454,14.620,13.630,0.520,13.458,11.320,14.997,5.004,13.106
Thu Dec 05 12:40:36 2024,780,-16.906,16.906,25.638,25.638,0.575,24.044,14.942,3.600,15.294,13.320,0.496,14.559,11.169,15.259,4.724,12.606
Thu Dec 05 12:40:36 2024,785,-17.057,17.057,23.655,23.655,0.455,24.531,14.730,3.553,15.695,13.494,0.313,15.091,11.212,15.329,4.633,12.428
Thu Dec 05 12:40:36 2024,790,-17.260,17.260,21.517,21.517,0.319,24.991,14.494,3.486,16.058,13.732,0.112,15.599,11.276,15.386,4.546,12.270
Thu Dec 05 12:40:36 2024,795,-17.480,17.480,19.207,19.207,0.375,25.388,14.217,3.631,16.035,13.786,-0.077,15.929,11.305,15.480,4.436,11.953
Thu Dec 05 12:40:36 2024,800,-17.721,17.721,16.667,16.667,0.523,25.783,13.903,3.880,15.843,13.764,-0.209,16.202,11.320,15.598,4.313,11.544
Thu Dec 05 12:40:36 2024,805,-17.812,17.812,14.598,14.598,0.634,25.979,13.597,4.038,15.718,13.768,-0.255,16.322,11.308,15.700,4.206,11.290
Thu Dec 05 12:40:36 2024,810,-17.738,0.014,12.037,12.037,0.754,26.009,13.141,4.156,15.626,13.811,-0.194,16.303,11.251,15.836,4.064,11.108
Thu Dec 05 12:40:36 2024,815,-17.587,-17.587,9.491,9.491,0.859,26.066,12.679,4.221,15.585,13.836,-0.112,16.341,11.186,15.945,3.952,10.905
Thu Dec 05 12:40:36 2024,820,-17.270,-17.270,7.480,7.480,0.899,26.175,12.291,4.138,15.688,13.811,0.028,16.525,11.113,15.960,3.944,10.686
Thu Dec 05 12:40:36 2024,825,-16.963,-16.963,5.382,5.382,0.968,26.324,11.928,4.085,15.781,13.823,0.103,16.694,11.029,16.005,3.902,10.471
Thu Dec 05 12:40:36 2024,830,-16.731,-16.731,3.493,3.493,1.086,26.530,11.694,4.110,15.828,13.916,0.125,16.801,10.936,16.112,3.793,10.305
Thu Dec 05 12:40:36 2024,835,-16.527,-16.527,1.682,1.682,1.225,26.761,11.513,4.168,15.819,14.042,0.120,16.884,10.840,16.243,3.657,10.160
Thu Dec 05 12:40:36 2024,840,-16.193,-16.193,-0.302,0.302,1.307,27.002,11.468,4.245,15.753,14.180,0.159,16.943,10.838,16.385,3.511,10.114
Thu Dec 05 12:40:36 2024,845,-15.846,-15.846,-0.867,-0.867,1.365,27.227,11.471,4.322,15.678,14.312,0.208,16.990,10.867,16.520,3.373,10.102
Thu Dec 05 12:40:36 2024,850,-15.617,-15.617,-1.817,-1.817,1.395,27.479,11.515,4.400,15.595,14.477,0.218,17.072,10.920,16.628,3.267,10.107
Thu Dec 05 12:40:36 2024,855,-15.550,-15.550,-2.499,-2.499,1.389,27.770,11.617,4.480,15.491,14.688,0.168,17.202,11.008,16.698,3.206,10.134
Thu Dec 05 12:40:36 2024,860,-15.477,-15.477,-3.140,-3.140,1.349,27.991,11.727,4.523,15.420,14.874,0.091,17.269,11.089,16.749,3.164,10.178
Thu Dec 05 12:40:36 2024,865,-15.411,-15.411,-3.421,-3.421,1.247,27.968,11.818,4.461,15.490,14.932,-0.028,17.159,11.120,16.735,3.182,10.247
Thu Dec 05 12:40:36 2024,870,-15.375,-15.375,-3.707,-3.707,1.146,27.946,11.908,4.399,15.558,14.990,-0.130,17.044,11.150,16.721,3.201,10.316
Thu Dec 05 12:40:36 2024,875,-15.394,-15.394,-4.003,-4.003,1.039,28.097,11.971,4.352,15.598,15.018,-0.170,17.102,11.113,16.717,3.215,10.217
Thu Dec 05 12:40:36 2024,880,-15.422,-15.422,-4.280,-4.280,0.943,28.230,12.026,4.313,15.632,15.040,-0.204,17.151,11.079,16.720,3.221,10.126
Thu Dec 05 12:40:36 2024,885,-15.392,-15.392,-4.540,-4.540,0.874,28.246,12.070,4.322,15.628,15.023,-0.198,17.150,11.062,16.822,3.128,10.064
Thu Dec 05 12:40:36 2024,890,-15.341,-15.341,-4.787,-4.787,0.822,28.199,12.107,4.358,15.606,14.986,-0.170,17.122,11.054,16.975,2.985,10.020
Thu Dec 05 12:40:36 2024,895,-15.319,-15.319,-5.007,-5.007,0.760,28.162,12.137,4.369,15.603,14.986,-0.176,17.108,11.090,17.057,2.906,10.021
Thu Dec 05 12:40:36 2024,900,-15.314,-15.314,-5.252,-5.252,0.676,28.126,12.168,4.363,15.616,15.018,-0.210,17.102,11.170,17.102,2.862,10.061
Thu Dec 05 12:40:36 2024,905,-15.289,-15.289,-5.424,-5.424,0.636,28.074,12.185,4.365,15.618,15.032,-0.219,17.125,11.222,17.133,2.833,10.089
Thu Dec 05 12:40:36 2024,910,-15.210,-15.210,-5.538,-5.538,0.659,27.971,12.183,4.382,15.599,15.014,-0.184,17.211,11.242,17.156,2.816,10.108
Thu Dec 05 12:40:36 2024,915,-15.149,-15.149,-5.638,-5.638,0.676,27.887,12.181,4.395,15.583,15.000,-0.156,17.283,11.259,17.175,2.801,10.123
Thu Dec 05 12:40:36 2024,920,-14.982,-14.982,-5.824,-5.824,0.643,27.910,12.163,4.377,15.587,15.009,-0.233,17.372,11.242,17.194,2.776,10.138
Thu Dec 05 12:40:36 2024,925,-14.830,-14.830,-6.006,-6.006,0.610,27.931,12.145,4.358,15.589,15.017,-0.307,17.455,11.226,17.213,2.752,10.152
Thu Dec 05 12:40:36 2024,930,-14.671,-14.671,-6.108,-6.108,0.626,27.942,12.116,4.405,15.524,15.046,-0.310,17.490,11.215,17.258,2.709,10.120
Thu Dec 05 12:40:36 2024,935,-14.515,-14.515,-6.192,-6.192,0.655,27.951,12.084,4.467,15.440,15.079,-0.299,17.513,11.205,17.307,2.661,10.076
Thu Dec 05 12:40:36 2024,940,-14.351,-14.351,-6.287,-6.287,0.681,28.049,12.163,4.500,15.396,15.147,-0.263,17.591,11.265,17.332,2.637,10.081
Thu Dec 05 12:40:36 2024,945,-14.164,-14.164,-6.396,-6.396,0.707,28.197,12.301,4.523,15.367,15.238,-0.214,17.702,11.366,17.346,2.624,10.110
Thu Dec 05 12:40:36 2024,950,-14.003,-14.003,-6.446,-6.446,0.726,28.235,12.338,4.506,15.385,15.236,-0.195,17.762,11.388,17.355,2.611,10.131
Thu Dec 05 12:40:36 2024,955,-13.844,-13.844,-6.484,-6.484,0.744,28.248,12.352,4.480,15.413,15.212,-0.182,17.813,11.394,17.364,2.599,10.150
Thu Dec 05 12:40:36 2024,960,-13.689,-13.689,-6.499,-6.499,0.758,28.224,12.317,4.463,15.431,15.177,-0.180,17.841,11.376,17.364,2.595,10.159
Thu Dec 05 12:40:36 2024,965,-13.535,-13.535,-6.465,-6.465,0.751,28.135,12.156,4.534,15.336,15.198,-0.205,17.809,11.329,17.321,2.627,10.129
Thu Dec 05 12:40:36 2024,970,-13.388,-13.388,-6.431,-6.431,0.745,28.047,11.995,4.606,24.761,15.219,-0.229,17.777,11.281,17.278,2.658,10.100
Thu Dec 05 12:40:36 2024,975,-13.385,-13.385,-6.441,-6.441,0.697,28.028,12.053,4.626,24.787,15.281,-0.187,17.831,11.342,17.292,2.635,10.156
Thu Dec 05 12:40:36 2024,980,-13.391,-13.391,-6.456,-6.456,0.641,28.010,12.128,4.645,24.813,15.351,-0.135,17.895,11.416,17.312,2.607,10.223
Thu Dec 05 12:40:36 2024,985,-13.382,-13.382,-6.433,-6.433,0.631,27.955,12.153,4.658,24.818,15.367,-0.117,17.947,11.453,17.284,2.633,10.230
Thu Dec 05 12:40:36 2024,990,-13.368,-13.368,-6.393,-6.393,0.640,27.882,12.158,4.668,20.001,15.360,-0.108,17.998,11.475,17.238,2.683,10.215
Thu Dec 05 12:40:36 2024,995,-13.356,-13.356,-6.385,-6.385,0.628,27.836,12.128,4.684,20.013,15.370,-0.100,18.022,11.492,17.198,2.716,10.235
Thu Dec 05 12:40:37 2024,0,-13.343,-13.343,-6.429,-6.429,0.579,27.832,12.034,4.714,24.907,15.416,-0.086,18.003,11.501,17.166,2.724,10.322
Thu Dec 05 12:40:37 2024,5,-13.339,-13.339,-6.443,-6.443,0.568,27.850,11.987,4.754,24.968,15.431,-0.064,18.006,11.501,17.154,2.722,10.344
Thu Dec 05 12:40:37 2024,10,-13.342,-13.342,-6.422,-6.422,0.610,27.907,11.996,4.819,25.027,15.408,-0.028,18.037,11.490,17.170,2.711,10.279
Thu Dec 05 12:40:37 2024,15,-13.348,-13.348,-6.394,-6.394,0.657,27.966,12.017,4.883,25.079,15.378,0.000,18.070,11.478,17.189,2.699,10.202
Thu Dec 05 12:40:37 2024,20,-13.362,-13.362,-6.405,-6.405,0.573,27.862,11.957,4.824,25.008,15.310,0.000,18.019,11.443,17.141,2.743,10.225
Thu Dec 05 12:40:37 2024,25,-13.379,-13.379,-6.416,-6.416,0.487,27.754,11.903,4.765,24.940,15.252,-0.051,17.966,11.414,17.093,2.784,10.265
Thu Dec 05 12:40:37 2024,30,-13.380,-13.380,-6.407,-6.407,0.481,27.746,11.946,4.809,24.986,15.284,-0.028,17.974,11.436,17.093,2.773,10.333
Thu Dec 05 12:40:37 2024,35,-13.373,-13.373,-6.387,-6.387,0.522,27.798,12.039,4.908,25.093,15.364,0.020,18.016,11.487,17.122,2.732,10.408
Thu Dec 05 12:40:37 2024,40,-13.372,-13.372,-6.358,-6.358,0.548,27.843,12.061,4.953,25.156,15.410,0.047,18.029,11.504,17.115,2.733,10.446
Thu Dec 05 12:40:37 2024,45,-13.376,-13.376,-6.308,-6.308,0.560,27.888,11.994,4.939,25.179,15.422,0.041,18.009,11.482,17.059,2.793,10.443
Thu Dec 05 12:40:37 2024,50,-13.367,-13.367,-6.273,-6.273,0.584,27.900,11.975,4.924,25.165,15.418,0.032,17.966,11.468,17.033,2.827,10.422
Thu Dec 05 12:40:37 2024,55,-13.331,-13.331,-6.255,-6.255,0.629,27.855,12.030,4.895,25.076,15.382,0.000,17.872,11.461,17.052,2.828,10.362
Thu Dec 05 12:40:37 2024,60,-13.293,-13.293,-6.240,-6.240,0.675,27.806,12.089,4.866,15.007,15.345,0.000,17.776,11.456,17.075,2.824,10.300
Thu Dec 05 12:40:37 2024,65,-13.275,-13.275,-6.123,-6.123,0.728,27.903,12.230,4.867,14.989,15.405,-0.040,17.813,11.463,17.099,2.802,10.356
Thu Dec 05 12:40:37 2024,70,-13.257,-13.257,-5.988,-5.988,0.789,28.010,12.382,4.869,25.035,15.473,-0.071,17.851,11.472,17.124,2.779,10.418
Thu Dec 05 12:40:37 2024,75,-13.228,-13.228,-5.856,-5.856,0.854,28.013,12.418,4.869,25.030,15.507,-0.029,17.795,11.490,17.130,2.786,10.395
Thu Dec 05 12:40:37 2024,80,-13.199,-13.199,-5.734,-5.734,0.916,27.988,12.420,4.868,14.983,15.529,0.033,17.715,11.509,17.131,2.799,10.351
Thu Dec 05 12:40:37 2024,85,-13.174,-13.174,-5.592,-5.592,0.971,27.938,12.477,4.882,15.000,15.534,0.068,17.620,11.529,17.128,2.811,10.384
Thu Dec 05 12:40:37 2024,90,-13.154,-13.154,-5.468,-5.468,1.007,27.881,12.562,4.904,15.010,15.524,0.064,17.535,11.544,17.122,2.819,10.469
Thu Dec 05 12:40:37 2024,95,-13.118,-13.118,-5.392,-5.392,1.034,27.872,12.642,4.917,15.010,15.532,0.070,17.512,11.560,17.124,2.820,10.523
Thu Dec 05 12:40:37 2024,100,-13.033,-13.033,-5.423,-5.423,1.040,27.980,12.716,4.908,14.991,15.586,0.109,17.636,11.579,17.142,2.805,10.504
Thu Dec 05 12:40:37 2024,105,-12.956,-12.956,-5.456,-5.456,1.045,28.082,12.785,4.900,14.968,15.636,0.148,17.755,11.597,17.161,2.791,10.484
Thu Dec 05 12:40:37 2024,110,-12.886,-12.886,-5.489,-5.489,0.994,28.042,12.772,4.896,14.962,15.705,0.152,17.700,11.568,17.127,2.818,10.509
Thu Dec 05 12:40:37 2024,115,-12.821,-12.821,-5.521,-5.521,0.945,28.008,12.761,4.891,14.956,15.770,0.157,17.650,11.542,17.096,2.843,10.533
Thu Dec 05 12:40:37 2024,120,-12.696,-12.696,-5.540,-5.540,0.950,28.045,12.666,4.951,25.117,15.709,0.188,17.683,11.479,17.088,2.853,10.453
Thu Dec 05 12:40:37 2024,125,-12.599,-12.599,-5.551,-5.551,0.962,28.084,12.584,5.005,25.179,15.643,0.215,17.721,11.428,17.086,2.856,10.379
Thu Dec 05 12:40:37 2024,130,-12.485,-12.485,-5.593,-5.593,1.028,28.204,12.643,5.078,25.256,15.633,0.257,17.705,11.380,17.099,2.844,10.337
Thu Dec 05 12:40:37 2024,135,-12.369,-12.369,-5.663,-5.663,1.143,28.394,12.839,5.163,25.338,15.683,0.308,17.638,11.341,17.127,2.816,10.332
Thu Dec 05 12:40:37 2024,140,-12.288,-12.288,-5.665,-5.665,1.318,28.630,13.094,5.232,14.610,15.735,0.347,17.653,11.377,17.125,2.816,10.382
Thu Dec 05 12:40:37 2024,145,-12.229,-12.229,-5.567,-5.567,1.644,29.028,13.526,5.302,14.580,15.808,0.382,17.794,11.538,17.079,2.858,10.534
Thu Dec 05 12:40:37 2024,150,-12.185,-12.185,-5.477,-5.477,1.997,29.412,13.930,5.351,14.567,15.859,0.398,17.867,11.650,17.038,2.900,10.649
Thu Dec 05 12:40:37 2024,155,-12.211,-12.211,-5.380,-5.380,2.748,29.922,14.398,5.304,14.666,15.800,0.310,17.548,11.525,17.002,2.964,10.618
Thu Dec 05 12:40:37 2024,160,-12.234,-12.234,-5.289,-5.289,3.453,30.432,14.835,5.259,14.737,15.746,0.226,17.247,11.410,16.967,3.017,10.588
Thu Dec 05 12:40:37 2024,165,-12.277,-12.277,-5.226,-5.226,4.363,31.397,15.527,5.307,14.694,15.809,0.020,17.042,11.340,16.953,3.045,10.507
Thu Dec 05 12:40:37 2024,170,-12.310,-12.310,-5.185,-5.185,5.025,32.136,16.041,5.349,14.649,15.865,-0.137,16.900,11.296,16.944,3.057,10.445
Thu Dec 05 12:40:37 2024,175,-12.376,-12.376,-5.144,-5.144,5.961,33.375,17.031,5.465,14.531,15.975,-0.309,16.744,11.195,16.909,3.091,10.425
Thu Dec 05 12:40:37 2024,180,-12.453,-12.453,-5.113,-5.113,6.888,34.709,18.162,5.610,14.388,16.103,-0.448,16.614,11.075,16.861,3.132,10.442
Thu Dec 05 12:40:37 2024,185,-12.498,-12.498,-5.116,-5.116,7.690,35.984,19.576,5.770,14.224,16.244,-0.530,16.463,11.060,16.782,3.199,10.497
Thu Dec 05 12:40:37 2024,190,-12.510,-12.510,-5.160,-5.160,8.446,37.349,21.530,5.969,14.009,16.416,-0.554,16.270,11.161,16.658,3.301,10.607
Thu Dec 05 12:40:37 2024,195,-12.520,-12.520,-5.203,-5.203,9.126,38.723,23.574,6.188,13.771,16.510,-0.554,16.139,11.234,16.557,3.374,10.682
Thu Dec 05 12:40:37 2024,200,-12.504,-12.504,-5.264,-5.264,9.699,40.693,26.893,6.592,13.370,16.253,-0.441,16.268,11.186,16.528,3.367,10.608
Thu Dec 05 12:40:37 2024,205,-12.490,-12.490,-5.324,-5.324,10.280,42.676,30.341,6.991,12.972,15.999,-0.329,16.394,11.138,16.497,3.353,10.534
Thu Dec 05 12:40:37 2024,210,-12.581,-12.581,-5.125,-5.125,10.449,45.232,35.225,7.595,12.372,15.428,-0.177,16.514,11.050,16.240,3.606,10.366
Thu Dec 05 12:40:37 2024,215,-12.662,-12.662,-4.950,-4.950,10.613,47.507,39.846,8.113,11.857,14.946,-0.050,16.614,10.973,16.014,3.827,10.218
Thu Dec 05 12:40:37 2024,220,-12.661,-12.661,-5.086,-5.086,10.876,50.724,47.079,8.477,11.506,14.963,0.271,16.800,11.065,15.915,3.909,9.957
Thu Dec 05 12:40:37 2024,225,-12.626,-12.626,-5.338,-5.338,11.206,54.038,55.450,8.727,11.267,15.187,0.611,16.961,11.218,15.884,3.921,9.681
Thu Dec 05 12:40:37 2024,230,-12.603,-12.603,-5.631,-5.631,10.941,57.021,64.377,8.757,11.240,15.269,0.897,17.500,11.229,15.924,3.876,9.357
Thu Dec 05 12:40:37 2024,235,-12.610,-12.610,-5.948,-5.948,9.913,59.442,73.161,8.552,11.379,15.183,1.113,18.324,11.070,16.051,3.764,9.009
Thu Dec 05 12:40:37 2024,240,-12.594,-12.594,-6.158,-6.158,9.072,61.822,79.891,8.472,11.279,15.078,1.287,18.677,10.804,16.165,3.670,8.612
Thu Dec 05 12:40:37 2024,245,-12.504,-12.504,-6.152,-6.152,8.616,63.653,81.726,8.587,29.170,14.931,1.333,21.389,10.336,16.245,3.621,8.125
Thu Dec 05 12:40:37 2024,250,-12.431,-12.431,-6.147,-6.147,8.311,65.184,83.195,8.682,29.625,14.810,1.373,21.675,9.953,16.311,3.578,7.727
Thu Dec 05 12:40:37 2024,255,-12.333,-12.333,-6.007,-6.007,9.471,68.187,86.684,9.024,30.362,14.973,1.450,21.853,9.744,16.446,3.434,7.621
Thu Dec 05 12:40:37 2024,260,-12.250,-12.250,-5.883,-5.883,10.633,70.897,89.718,9.324,31.030,15.130,1.517,22.000,9.574,16.565,3.307,7.544
Thu Dec 05 12:40:37 2024,265,-12.188,-12.188,-5.881,-5.881,11.649,74.070,93.094,9.712,31.837,15.495,1.545,22.065,9.700,16.602,3.283,7.952
Thu Dec 05 12:40:37 2024,270,-12.162,-12.162,-5.919,-5.919,12.288,76.217,95.180,9.974,32.380,15.792,1.550,22.078,9.873,16.598,3.301,8.363
Thu Dec 05 12:40:37 2024,275,-12.192,-12.192,-5.828,-5.828,12.965,78.562,96.864,10.264,33.026,16.075,1.590,22.263,10.098,16.494,3.406,8.623
Thu Dec 05 12:40:37 2024,280,-12.276,-12.276,-5.623,-5.623,13.450,80.352,97.643,10.495,33.585,16.254,1.656,22.596,10.311,16.314,3.574,8.630
Thu Dec 05 12:40:37 2024,285,-12.294,-12.294,-5.434,-5.434,14.065,82.069,98.208,10.709,34.146,16.425,1.704,22.936,10.509,16.112,3.759,8.620
Thu Dec 05 12:40:37 2024,290,-12.198,-12.198,-5.332,-5.332,14.588,83.105,98.356,10.834,34.530,16.525,1.715,23.167,10.616,15.939,3.918,8.588
