Timestamp,Millis,thumb_tm_aa,thumb_tm_flex,thumb_mcp_aa,thumb_mcp_flex,index_mcp_aa,index_mcp_flex,index_pip,middle_mcp_aa,middle_mcp_flex,middle_pip,ring_mcp_aa,ring_mcp_flex,ring_pip,little_mcp_aa,little_mcp_flex,little_pip
Thu Dec 05 12:42:47 2024,570,-15.480,-15.480,-2.521,-2.521,2.078,23.721,9.032,5.674,14.325,12.853,-3.738,13.926,8.923,11.970,7.481,7.380
Thu Dec 05 12:42:47 2024,575,-15.490,-15.490,-2.515,-2.515,2.072,23.728,9.036,5.663,14.336,12.878,-3.771,13.910,8.938,11.943,7.505,7.380
Thu Dec 05 12:42:47 2024,580,-15.521,-15.521,-2.492,-2.492,2.071,23.715,9.028,5.657,14.342,12.846,-3.769,13.880,8.897,11.923,7.516,7.367
Thu Dec 05 12:42:47 2024,585,-15.551,-15.551,-2.476,-2.476,2.065,23.697,9.012,5.650,14.349,12.812,-3.760,13.870,8.866,11.918,7.519,7.363
Thu Dec 05 12:42:47 2024,590,-15.562,-15.562,-2.493,-2.493,2.044,23.672,8.975,5.644,14.356,12.787,-3.734,13.933,8.883,11.967,7.498,7.391
Thu Dec 05 12:42:47 2024,595,-15.572,-15.572,-2.516,-2.516,2.018,23.646,8.935,5.637,14.361,12.762,-3.707,14.007,8.904,12.022,7.475,7.424
Thu Dec 05 12:42:47 2024,600,-15.525,-15.525,-2.548,-2.548,1.992,23.691,8.969,5.660,14.335,12.808,-3.754,14.000,8.910,11.990,7.508,7.407
Thu Dec 05 12:42:47 2024,605,-15.484,-15.484,-2.572,-2.572,1.974,23.732,9.002,5.680,14.311,12.851,-3.797,13.984,8.913,11.956,7.540,7.390
Thu Dec 05 12:42:47 2024,610,-15.475,-15.475,-2.587,-2.587,2.018,23.790,9.030,5.723,14.267,12.878,-3.791,13.970,8.925,12.003,7.512,7.443
Thu Dec 05 12:42:47 2024,615,-15.482,-15.482,-2.597,-2.597,2.090,23.852,9.055,5.775,14.216,12.896,-3.763,13.954,8.940,12.087,7.456,7.528
Thu Dec 05 12:42:47 2024,620,-15.468,-15.468,-2.596,-2.596,2.093,23.825,9.064,5.767,14.225,12.911,-3.752,13.960,8.955,12.081,7.452,7.519
Thu Dec 05 12:42:47 2024,625,-15.445,-15.445,-2.591,-2.591,2.075,23.764,9.069,5.740,14.254,12.927,-3.745,13.974,8.972,12.047,7.463,7.482
Thu Dec 05 12:42:47 2024,630,-15.450,-15.450,-2.598,-2.598,2.040,23.732,9.095,5.714,14.279,12.949,-3.751,13.988,8.990,12.051,7.453,7.482
Thu Dec 05 12:42:47 2024,635,-15.474,-15.474,-2.612,-2.612,1.998,23.725,9.131,5.694,14.295,12.972,-3.765,14.001,9.005,12.080,7.430,7.509
Thu Dec 05 12:42:47 2024,640,-15.488,-15.488,-2.617,-2.617,1.989,23.740,9.138,5.682,14.305,12.978,-3.766,14.000,9.004,12.092,7.424,7.512
Thu Dec 05 12:42:47 2024,645,-15.482,-15.482,-2.604,-2.604,2.042,23.798,9.092,5.684,14.307,12.951,-3.741,13.974,8.972,12.070,7.445,7.468
Thu Dec 05 12:42:47 2024,650,-15.483,-15.483,-2.606,-2.606,2.080,23.838,9.065,5.684,14.308,12.939,-3.727,13.953,8.952,12.059,7.455,7.435
Thu Dec 05 12:42:47 2024,655,-15.510,-15.510,-2.664,-2.664,2.094,23.839,9.088,5.680,14.312,12.972,-3.740,13.936,8.961,12.077,7.424,7.421
Thu Dec 05 12:42:47 2024,660,-15.521,-15.521,-2.695,-2.695,2.089,23.820,9.092,5.673,14.319,12.985,-3.751,13.932,8.969,12.085,7.407,7.413
Thu Dec 05 12:42:47 2024,665,-15.494,-15.494,-2.676,-2.676,2.026,23.734,9.046,5.653,14.340,12.948,-3.761,13.961,8.979,12.069,7.420,7.419
Thu Dec 05 12:42:47 2024,670,-15.469,-15.469,-2.654,-2.654,1.968,23.657,9.003,5.635,14.359,12.913,-3.770,13.989,8.987,12.054,7.434,7.426
Thu Dec 05 12:42:47 2024,675,-15.454,-15.454,-2.694,-2.694,2.002,23.708,9.050,5.666,14.327,12.955,-3.763,13.965,9.009,12.121,7.388,7.513
Thu Dec 05 12:42:47 2024,680,-15.442,-15.442,-2.734,-2.734,2.040,23.765,9.099,5.696,14.296,12.996,-3.755,13.940,9.029,12.184,7.343,7.592
Thu Dec 05 12:42:47 2024,685,-15.440,-15.440,-2.745,-2.745,2.074,23.811,9.121,5.713,14.279,13.006,-3.778,13.895,9.019,12.161,7.332,7.520
Thu Dec 05 12:42:47 2024,690,-15.439,-15.439,-2.753,-2.753,2.103,23.850,9.138,5.726,14.267,13.011,-3.799,13.856,9.009,12.133,7.325,7.446
Thu Dec 05 12:42:47 2024,695,-15.431,-15.431,-2.748,-2.748,2.076,23.814,9.148,5.711,14.281,13.015,-3.805,13.869,9.018,12.143,7.330,7.473
Thu Dec 05 12:42:47 2024,700,-15.420,-15.420,-2.739,-2.739,2.028,23.749,9.157,5.684,14.307,13.015,-3.804,13.903,9.034,12.167,7.338,7.539
Thu Dec 05 12:42:47 2024,705,-15.404,-15.404,-2.742,-2.742,2.048,23.740,9.169,5.674,14.319,12.987,-3.792,13.912,9.022,12.179,7.326,7.535
Thu Dec 05 12:42:47 2024,710,-15.390,-15.390,-2.754,-2.754,2.109,23.773,9.179,5.678,14.317,12.947,-3.775,13.901,8.993,12.178,7.304,7.484
Thu Dec 05 12:42:47 2024,715,-15.409,-15.409,-2.747,-2.747,2.135,23.780,9.224,5.699,14.298,12.965,-3.774,13.856,9.012,12.177,7.288,7.486
Thu Dec 05 12:42:47 2024,720,-15.457,-15.457,-2.723,-2.723,2.112,23.756,9.290,5.730,14.269,13.038,-3.789,13.791,9.073,12.175,7.285,7.545
Thu Dec 05 12:42:47 2024,725,-15.482,-15.482,-2.686,-2.686,2.112,23.760,9.320,5.737,14.262,13.044,-3.793,13.767,9.081,12.170,7.286,7.564
Thu Dec 05 12:42:47 2024,730,-15.483,-15.483,-2.627,-2.627,2.138,23.798,9.310,5.716,14.284,12.970,-3.784,13.793,9.021,12.159,7.296,7.538
Thu Dec 05 12:42:47 2024,735,-15.475,-15.475,-2.599,-2.599,2.168,23.836,9.300,5.690,14.311,12.907,-3.782,13.804,8.972,12.151,7.304,7.518
Thu Dec 05 12:42:47 2024,740,-15.450,-15.450,-2.684,-2.684,2.195,23.855,9.307,5.658,14.341,12.923,-3.806,13.746,8.995,12.148,7.300,7.546
Thu Dec 05 12:42:47 2024,745,-15.425,-15.425,-2.772,-2.772,2.225,23.875,9.314,5.626,14.372,12.940,-3.832,13.681,9.019,12.144,7.300,7.578
Thu Dec 05 12:42:47 2024,750,-15.464,-15.464,-2.727,-2.727,2.233,23.868,9.306,5.639,14.359,12.936,-3.824,13.627,9.007,12.110,7.340,7.604
Thu Dec 05 12:42:47 2024,755,-15.514,-15.514,-2.676,-2.676,2.244,23.863,9.296,5.656,14.343,12.934,-3.814,13.562,8.994,12.074,7.382,7.632
Thu Dec 05 12:42:47 2024,760,-15.544,-15.544,-2.677,-2.677,2.259,23.892,9.304,5.669,14.330,12.958,-3.798,13.558,9.003,12.094,7.337,7.616
Thu Dec 05 12:42:47 2024,765,-15.576,-15.576,-2.684,-2.684,2.275,23.926,9.315,5.684,14.316,12.986,-3.779,13.561,9.016,12.124,7.276,7.595
Thu Dec 05 12:42:47 2024,770,-15.578,-15.578,-2.704,-2.704,2.307,23.946,9.324,5.702,14.298,12.995,-3.766,13.601,9.017,12.112,7.282,7.518
Thu Dec 05 12:42:47 2024,775,-15.575,-15.575,-2.722,-2.722,2.335,23.958,9.332,5.717,14.283,12.998,-3.757,13.640,9.016,12.094,7.300,7.448
Thu Dec 05 12:42:47 2024,780,-15.564,-15.564,-2.705,-2.705,2.334,23.986,9.337,5.743,14.257,13.022,-3.740,13.682,9.021,12.113,7.286,7.426
Thu Dec 05 12:42:47 2024,785,-15.554,-15.554,-2.670,-2.670,2.312,24.014,9.340,5.766,14.232,13.050,-3.723,13.709,9.028,12.149,7.256,7.446
Thu Dec 05 12:42:47 2024,790,-15.514,-15.514,-2.685,-2.685,2.286,23.990,9.318,5.760,14.236,13.064,-3.716,13.719,9.038,12.180,7.233,7.466
Thu Dec 05 12:42:47 2024,795,-15.456,-15.456,-2.752,-2.752,2.264,23.916,9.276,5.722,14.276,13.056,-3.722,13.706,9.049,12.192,7.224,7.476
Thu Dec 05 12:42:47 2024,800,-15.420,-15.420,-2.764,-2.764,2.259,23.841,9.259,5.711,14.288,13.040,-3.731,13.662,9.050,12.189,7.212,7.467
Thu Dec 05 12:42:47 2024,805,-15.434,-15.434,-2.689,-2.689,2.280,23.795,9.288,5.744,14.256,13.018,-3.740,13.586,9.033,12.162,7.198,7.430
Thu Dec 05 12:42:47 2024,810,-15.448,-15.448,-2.637,-2.637,2.296,23.786,9.318,5.773,14.227,13.001,-3.746,13.552,9.023,12.146,7.188,7.404
Thu Dec 05 12:42:47 2024,815,-15.451,-15.451,-2.685,-2.685,2.292,23.909,9.344,5.783,14.216,13.009,-3.739,13.670,9.039,12.174,7.198,7.416
Thu Dec 05 12:42:47 2024,820,-15.452,-15.452,-2.730,-2.730,2.294,24.002,9.356,5.789,14.208,13.014,-3.734,13.744,9.046,12.189,7.214,7.428
Thu Dec 05 12:42:47 2024,825,-15.438,-15.438,-2.746,-2.746,2.327,23.949,9.314,5.786,14.214,13.001,-3.746,13.607,9.014,12.131,7.249,7.422
Thu Dec 05 12:42:47 2024,830,-15.425,-15.425,-2.759,-2.759,2.360,23.892,9.270,5.781,14.218,12.988,-3.758,13.463,8.981,12.072,7.284,7.417
Thu Dec 05 12:42:47 2024,835,-15.446,-15.446,-2.706,-2.706,2.351,23.859,9.288,5.772,14.228,12.992,-3.735,13.512,9.023,12.111,7.255,7.478
Thu Dec 05 12:42:47 2024,840,-15.473,-15.473,-2.638,-2.638,2.335,23.833,9.318,5.761,14.239,12.999,-3.705,13.596,9.079,12.168,7.214,7.550
Thu Dec 05 12:42:47 2024,845,-15.472,-15.472,-2.617,-2.617,2.340,23.873,9.326,5.766,14.234,12.990,-3.708,13.602,9.074,12.162,7.225,7.540
Thu Dec 05 12:42:47 2024,850,-15.467,-15.467,-2.606,-2.606,2.350,23.920,9.328,5.772,14.227,12.979,-3.716,13.593,9.056,12.143,7.244,7.517
Thu Dec 05 12:42:47 2024,855,-15.501,-15.501,-2.650,-2.650,2.346,23.955,9.342,5.790,14.210,13.019,-3.739,13.589,9.063,12.124,7.284,7.524
Thu Dec 05 12:42:47 2024,860,-15.552,-15.552,-2.719,-2.719,2.335,23.974,9.358,5.810,14.189,13.081,-3.766,13.588,9.083,12.108,7.328,7.549
Thu Dec 05 12:42:47 2024,865,-15.559,-15.559,-2.761,-2.761,2.344,23.962,9.323,5.801,14.199,13.071,-3.793,13.567,9.062,12.103,7.345,7.564
Thu Dec 05 12:42:47 2024,870,-15.519,-15.519,-2.770,-2.770,2.371,23.921,9.240,5.762,14.237,12.989,-3.816,13.527,9.002,12.111,7.332,7.568
Thu Dec 05 12:42:47 2024,875,-15.492,-15.492,-2.773,-2.773,2.370,23.861,9.193,5.733,14.265,12.954,-3.823,13.477,8.976,12.109,7.316,7.559
Thu Dec 05 12:42:47 2024,880,-15.492,-15.492,-2.769,-2.769,2.331,23.796,9.212,5.728,14.268,12.998,-3.807,13.428,9.007,12.094,7.302,7.534
Thu Dec 05 12:42:47 2024,885,-15.489,-15.489,-2.766,-2.766,2.292,23.749,9.244,5.712,14.280,13.026,-3.790,13.435,9.054,12.100,7.284,7.538
Thu Dec 05 12:42:47 2024,890,-15.477,-15.477,-2.765,-2.765,2.272,23.771,9.289,5.680,14.311,13.009,-3.777,13.561,9.118,12.150,7.267,7.604
Thu Dec 05 12:42:47 2024,895,-15.465,-15.465,-2.768,-2.768,2.260,23.791,9.328,5.655,14.336,12.990,-3.767,13.666,9.165,12.193,7.250,7.656
Thu Dec 05 12:42:47 2024,900,-15.450,-15.450,-2.795,-2.795,2.296,23.796,9.326,5.673,14.319,12.974,-3.770,13.617,9.111,12.182,7.237,7.608
Thu Dec 05 12:42:47 2024,905,-15.436,-15.436,-2.821,-2.821,2.335,23.799,9.321,5.694,14.299,12.959,-3.775,13.560,9.053,12.166,7.225,7.555
Thu Dec 05 12:42:47 2024,910,-15.419,-15.419,-2.814,-2.814,2.314,23.759,9.290,5.669,14.324,12.930,-3.802,13.502,9.000,12.182,7.215,7.536
Thu Dec 05 12:42:47 2024,915,-15.403,-15.403,-2.804,-2.804,2.290,23.717,9.259,5.640,14.352,12.901,-3.830,13.447,8.950,12.200,7.207,7.521
Thu Dec 05 12:42:47 2024,920,-15.386,-15.386,-2.781,-2.781,2.316,23.725,9.295,5.697,14.294,12.944,-3.816,13.437,8.969,12.205,7.199,7.544
Thu Dec 05 12:42:47 2024,925,-15.372,-15.372,-2.763,-2.763,2.347,23.740,9.338,5.754,14.236,12.991,-3.795,13.439,8.998,12.205,7.192,7.569
Thu Dec 05 12:42:47 2024,930,-15.356,-15.356,-2.769,-2.769,2.357,23.725,9.356,5.750,14.236,12.983,-3.787,13.430,9.006,12.214,7.174,7.572
Thu Dec 05 12:42:47 2024,935,-15.337,-15.337,-2.795,-2.795,2.352,23.684,9.360,5.698,14.282,12.933,-3.790,13.412,8.996,12.229,7.146,7.561
Thu Dec 05 12:42:47 2024,940,-15.353,-15.353,-2.776,-2.776,2.334,23.657,9.348,5.650,14.330,12.894,-3.807,13.445,8.982,12.216,7.166,7.542
Thu Dec 05 12:42:47 2024,945,-15.390,-15.390,-2.732,-2.732,2.312,23.646,9.328,5.615,14.370,12.870,-3.830,13.501,8.969,12.189,7.211,7.522
Thu Dec 05 12:42:47 2024,950,-15.415,-15.415,-2.690,-2.690,2.302,23.623,9.296,5.601,14.386,12.849,-3.845,13.535,8.962,12.179,7.241,7.532
Thu Dec 05 12:42:47 2024,955,-15.414,-15.414,-2.655,-2.655,2.316,23.579,9.244,5.627,14.356,12.830,-3.842,13.523,8.970,12.204,7.237,7.597
Thu Dec 05 12:42:47 2024,960,-15.415,-15.415,-2.647,-2.647,2.314,23.544,9.218,5.640,14.342,12.826,-3.837,13.518,8.972,12.218,7.236,7.634
Thu Dec 05 12:42:47 2024,965,-15.421,-15.421,-2.689,-2.689,2.282,23.513,9.238,5.625,14.363,12.846,-3.829,13.529,8.964,12.209,7.244,7.624
Thu Dec 05 12:42:47 2024,970,-15.431,-15.431,-2.725,-2.725,2.257,23.493,9.259,5.610,14.380,12.869,-3.821,13.541,8.968,12.206,7.242,7.607
Thu Dec 05 12:42:47 2024,975,-15.450,-15.450,-2.718,-2.718,2.276,23.518,9.268,5.614,14.375,12.890,-3.814,13.546,9.002,12.219,7.210,7.584
Thu Dec 05 12:42:47 2024,980,-15.465,-15.465,-2.717,-2.717,2.290,23.538,9.277,5.620,14.368,12.913,-3.806,13.554,9.035,12.234,7.180,7.562
Thu Dec 05 12:42:47 2024,985,-15.439,-15.439,-2.755,-2.755,2.258,23.502,9.275,5.642,14.347,12.943,-3.799,13.579,9.026,12.252,7.187,7.552
Thu Dec 05 12:42:47 2024,990,-15.409,-15.409,-2.795,-2.795,2.220,23.460,9.273,5.667,14.327,12.971,-3.792,13.606,9.011,12.271,7.198,7.546
Thu Dec 05 12:42:47 2024,995,-15.371,-15.371,-2.770,-2.770,2.192,23.474,9.304,5.648,14.347,12.982,-3.785,13.654,9.049,12.302,7.165,7.586
Thu Dec 05 12:42:48 2024,0,-15.339,-15.339,-2.737,-2.737,2.172,23.495,9.334,5.625,14.370,12.989,-3.778,13.698,9.090,12.330,7.130,7.627
Thu Dec 05 12:42:48 2024,5,-15.317,-15.317,-2.747,-2.747,2.196,23.521,9.319,5.626,14.370,12.989,-3.789,13.685,9.061,12.312,7.137,7.571
Thu Dec 05 12:42:48 2024,10,-15.303,-15.303,-2.769,-2.769,2.229,23.542,9.292,5.635,14.361,12.988,-3.804,13.654,9.014,12.282,7.157,7.494
Thu Dec 05 12:42:48 2024,15,-15.276,-15.276,-2.760,-2.760,2.224,23.510,9.270,5.644,14.350,12.992,-3.814,13.646,9.029,12.283,7.164,7.503
Thu Dec 05 12:42:48 2024,20,-15.242,-15.242,-2.732,-2.732,2.193,23.442,9.252,5.652,14.340,12.999,-3.819,13.652,9.082,12.304,7.161,7.568
Thu Dec 05 12:42:48 2024,25,-15.216,-15.216,-2.715,-2.715,2.171,23.391,9.229,5.652,14.340,12.989,-3.817,13.660,9.075,12.290,7.180,7.558
Thu Dec 05 12:42:48 2024,30,-15.205,-15.205,-2.719,-2.719,2.170,23.377,9.205,5.639,14.356,12.960,-3.803,13.669,8.989,12.236,7.220,7.452
Thu Dec 05 12:42:48 2024,35,-15.211,-15.211,-2.721,-2.721,2.169,23.398,9.204,5.626,14.370,12.936,-3.793,13.702,8.941,12.212,7.247,7.406
Thu Dec 05 12:42:48 2024,40,-15.246,-15.246,-2.720,-2.720,2.170,23.476,9.249,5.620,14.377,12.930,-3.794,13.767,8.986,12.254,7.239,7.491
Thu Dec 05 12:42:48 2024,45,-15.270,-15.270,-2.716,-2.716,2.160,23.525,9.277,5.612,14.386,12.936,-3.787,13.835,9.024,12.285,7.240,7.562
Thu Dec 05 12:42:48 2024,50,-15.257,-15.257,-2.708,-2.708,2.108,23.462,9.247,5.600,14.400,12.979,-3.751,13.913,9.046,12.277,7.277,7.585
Thu Dec 05 12:42:48 2024,55,-15.245,-15.245,-2.702,-2.702,2.070,23.412,9.224,5.589,14.411,13.012,-3.724,13.970,9.061,12.272,7.303,7.600
Thu Dec 05 12:42:48 2024,60,-15.244,-15.244,-2.693,-2.693,2.101,23.430,9.225,5.563,14.435,12.989,-3.737,13.931,9.028,12.295,7.275,7.569
Thu Dec 05 12:42:48 2024,65,-15.244,-15.244,-2.685,-2.685,2.125,23.444,9.230,5.540,14.458,12.976,-3.747,13.904,9.006,12.316,7.250,7.545
Thu Dec 05 12:42:48 2024,70,-15.246,-15.246,-2.678,-2.678,2.091,23.437,9.253,5.517,14.483,13.051,-3.739,13.971,9.060,12.329,7.239,7.552
Thu Dec 05 12:42:48 2024,75,-15.249,-15.249,-2.672,-2.672,2.058,23.429,9.272,5.500,14.500,13.119,-3.731,14.033,9.110,12.337,7.234,7.562
Thu Dec 05 12:42:48 2024,80,-15.217,-15.217,-2.652,-2.652,2.052,23.452,9.258,5.504,14.496,13.119,-3.728,14.012,9.087,12.354,7.235,7.583
Thu Dec 05 12:42:48 2024,85,-15.182,-15.182,-2.633,-2.633,2.058,23.480,9.233,5.516,14.484,13.093,-3.728,13.965,9.042,12.368,7.239,7.600
Thu Dec 05 12:42:48 2024,90,-15.159,-15.159,-2.628,-2.628,2.089,23.482,9.228,5.479,14.521,13.068,-3.712,13.907,9.018,12.354,7.242,7.594
Thu Dec 05 12:42:48 2024,95,-15.151,-15.151,-2.632,-2.632,2.125,23.471,9.235,5.423,14.572,13.052,-3.691,13.861,9.013,12.328,7.244,7.576
Thu Dec 05 12:42:48 2024,100,-15.085,-15.085,-2.680,-2.680,2.134,23.494,9.223,5.425,14.571,13.065,-3.681,13.861,9.012,12.345,7.234,7.578
Thu Dec 05 12:42:48 2024,105,-14.989,-14.989,-2.753,-2.753,2.124,23.537,9.200,5.466,14.533,13.097,-3.680,13.894,9.015,12.388,7.216,7.595
Thu Dec 05 12:42:48 2024,110,-14.940,-14.940,-2.774,-2.774,2.124,23.582,9.201,5.502,14.498,13.112,-3.673,13.927,9.015,12.409,7.212,7.592
Thu Dec 05 12:42:48 2024,115,-14.964,-14.964,-2.713,-2.713,2.139,23.625,9.238,5.529,14.471,13.101,-3.656,13.957,9.011,12.396,7.228,7.556
Thu Dec 05 12:42:48 2024,120,-14.974,-14.974,-2.675,-2.675,2.165,23.663,9.267,5.545,14.455,13.088,-3.647,13.973,9.013,12.393,7.233,7.552
Thu Dec 05 12:42:48 2024,125,-14.948,-14.948,-2.677,-2.677,2.238,23.713,9.295,5.542,14.455,13.057,-3.654,13.957,9.035,12.420,7.208,7.636
Thu Dec 05 12:42:48 2024,130,-14.922,-14.922,-2.679,-2.679,2.306,23.758,9.320,5.538,14.456,13.026,-3.661,13.939,9.054,12.444,7.186,7.712
Thu Dec 05 12:42:48 2024,135,-14.885,-14.885,-2.685,-2.685,2.279,23.680,9.298,5.500,14.490,12.972,-3.670,13.882,8.989,12.405,7.217,7.645
Thu Dec 05 12:42:48 2024,140,-14.856,-14.856,-2.681,-2.681,2.261,23.624,9.278,5.472,14.514,12.925,-3.678,13.836,8.934,12.372,7.242,7.587
Thu Dec 05 12:42:48 2024,145,-14.860,-14.860,-2.635,-2.635,2.283,23.670,9.272,5.495,14.494,12.912,-3.683,13.840,8.929,12.370,7.238,7.577
Thu Dec 05 12:42:48 2024,150,-14.872,-14.872,-2.584,-2.584,2.308,23.737,9.271,5.527,14.466,12.909,-3.683,13.861,8.938,12.379,7.224,7.581
Thu Dec 05 12:42:48 2024,155,-14.875,-14.875,-2.593,-2.593,2.261,23.731,9.270,5.508,14.484,12.918,-3.658,13.932,8.985,12.430,7.183,7.619
Thu Dec 05 12:42:48 2024,160,-14.874,-14.874,-2.614,-2.614,2.204,23.710,9.270,5.480,14.510,12.930,-3.631,14.004,9.033,12.483,7.143,7.659
Thu Dec 05 12:42:48 2024,165,-14.829,-14.829,-2.618,-2.618,2.183,23.660,9.250,5.449,14.539,12.931,-3.644,13.997,9.011,12.452,7.169,7.615
Thu Dec 05 12:42:48 2024,170,-14.780,-14.780,-2.611,-2.611,2.189,23.617,9.229,5.429,14.557,12.927,-3.671,13.952,8.961,12.391,7.217,7.546
Thu Dec 05 12:42:48 2024,175,-14.720,-14.720,-2.648,-2.648,2.180,23.572,9.224,5.428,14.557,12.945,-3.678,13.956,8.971,12.377,7.238,7.544
Thu Dec 05 12:42:48 2024,180,-14.669,-14.669,-2.720,-2.720,2.155,23.538,9.237,5.447,14.539,12.980,-3.661,14.009,9.043,12.418,7.221,7.613
Thu Dec 05 12:42:48 2024,185,-14.654,-14.654,-2.740,-2.740,2.142,23.538,9.240,5.456,14.530,12.978,-3.658,14.026,9.067,12.443,7.205,7.642
Thu Dec 05 12:42:48 2024,190,-14.693,-14.693,-2.682,-2.682,2.147,23.587,9.227,5.446,14.537,12.919,-3.677,13.991,9.020,12.441,7.190,7.607
Thu Dec 05 12:42:48 2024,195,-14.712,-14.712,-2.652,-2.652,2.178,23.660,9.232,5.451,14.530,12.888,-3.689,13.952,8.992,12.434,7.190,7.601
Thu Dec 05 12:42:48 2024,200,-14.684,-14.684,-2.679,-2.679,2.278,23.812,9.281,5.490,14.491,12.914,-3.686,13.894,8.997,12.410,7.228,7.662
Thu Dec 05 12:42:48 2024,205,-14.674,-14.674,-2.703,-2.703,2.413,24.036,9.349,5.496,14.483,12.926,-3.691,13.834,8.999,12.390,7.261,7.718
Thu Dec 05 12:42:48 2024,210,-14.736,-14.736,-2.704,-2.704,2.596,24.384,9.444,5.382,14.586,12.875,-3.720,13.799,8.984,12.397,7.256,7.730
Thu Dec 05 12:42:48 2024,215,-14.796,-14.796,-2.704,-2.704,2.818,24.779,9.550,5.257,14.690,12.818,-3.750,13.738,8.958,12.397,7.253,7.738
Thu Dec 05 12:42:48 2024,220,-14.803,-14.803,-2.688,-2.688,3.300,25.410,9.701,5.119,14.759,12.719,-3.777,13.443,8.835,12.331,7.284,7.691
Thu Dec 05 12:42:48 2024,225,-14.802,-14.802,-2.674,-2.674,3.717,25.943,9.842,5.014,14.788,12.653,-3.802,13.198,8.737,12.271,7.312,7.650
Thu Dec 05 12:42:48 2024,230,-14.806,-14.806,-2.646,-2.646,4.406,26.826,10.188,4.892,14.825,12.668,-3.852,12.975,8.662,12.173,7.365,7.607
Thu Dec 05 12:42:48 2024,235,-14.809,-14.809,-2.619,-2.619,5.062,27.672,10.543,4.791,14.846,12.706,-3.902,12.801,8.609,12.076,7.419,7.572
Thu Dec 05 12:42:48 2024,240,-14.748,-14.748,-2.594,-2.594,6.034,29.062,11.138,4.802,14.657,12.665,-3.933,12.554,8.510,11.862,7.573,7.541
Thu Dec 05 12:42:48 2024,245,-14.656,-14.656,-2.570,-2.570,7.165,30.726,11.857,4.872,14.331,12.580,-3.954,12.269,8.389,11.588,7.776,7.513
Thu Dec 05 12:42:48 2024,250,-14.536,-14.536,-2.470,-2.470,8.343,32.467,12.957,4.965,14.005,12.676,-4.025,11.908,8.326,11.307,7.955,7.575
Thu Dec 05 12:42:48 2024,255,-14.401,-14.401,-2.321,-2.321,9.576,34.292,14.340,5.077,13.680,12.890,-4.130,11.492,8.301,11.018,8.113,7.697
Thu Dec 05 12:42:48 2024,260,-14.267,-14.267,-2.262,-2.262,10.856,36.300,16.423,5.247,13.264,13.050,-4.168,11.220,8.252,10.776,8.214,7.793
Thu Dec 05 12:42:48 2024,265,-14.130,-14.130,-2.317,-2.317,12.227,38.591,19.536,5.497,12.731,13.136,-4.120,11.129,8.170,10.592,8.244,7.859
Thu Dec 05 12:42:48 2024,270,-14.085,-14.085,-2.338,-2.338,13.297,40.780,23.001,5.750,12.150,12.924,-4.026,11.068,8.132,10.415,8.245,7.907
Thu Dec 05 12:42:48 2024,275,-14.216,-14.216,-2.302,-2.302,14.324,44.084,29.735,6.155,11.123,11.986,-3.768,11.026,8.159,10.140,8.174,7.944
Thu Dec 05 12:42:48 2024,280,-14.333,-14.333,-2.400,-2.400,15.214,47.844,37.590,6.565,10.351,11.420,-3.566,10.940,8.176,9.865,8.200,7.811
Thu Dec 05 12:42:48 2024,285,-14.389,-14.389,-2.791,-2.791,15.544,52.060,46.972,6.934,10.324,11.710,-3.540,10.786,8.165,9.666,8.509,7.282
Thu Dec 05 12:42:48 2024,290,-14.489,-14.489,-3.201,-3.201,15.717,56.488,57.805,7.263,10.364,12.025,-3.455,10.763,8.145,9.486,8.775,6.717
Thu Dec 05 12:42:48 2024,295,-14.865,-14.865,-3.616,-3.616,14.219,59.371,67.219,7.249,10.949,12.458,-2.989,11.610,8.087,9.455,8.710,6.095
Thu Dec 05 12:42:48 2024,300,-15.279,-15.279,-4.009,-4.009,12.468,62.483,76.502,7.254,11.562,12.903,-2.478,12.589,7.965,9.453,8.622,5.449
Thu Dec 05 12:42:48 2024,305,-15.336,-15.336,-4.020,-4.020,12.368,65.655,80.000,7.619,12.033,13.119,-2.428,13.384,7.400,9.536,8.816,4.803
Thu Dec 05 12:42:48 2024,310,-15.253,-15.253,-3.914,-3.914,12.899,68.479,81.528,8.041,11.938,13.275,-2.514,13.989,6.834,9.621,9.042,4.305
Thu Dec 05 12:42:48 2024,315,-15.011,-15.011,-3.803,-3.803,13.869,71.225,84.122,8.452,11.493,13.546,-2.508,14.291,6.738,9.589,9.202,4.406
Thu Dec 05 12:42:48 2024,320,-14.643,-14.643,-3.664,-3.664,15.433,74.715,87.821,8.935,24.803,13.947,-2.460,14.520,6.848,9.488,9.378,4.833
Thu Dec 05 12:42:48 2024,325,-14.344,-14.344,-3.530,-3.530,16.722,77.469,89.885,9.596,30.094,14.321,-2.235,15.063,7.093,9.345,9.514,5.131
Thu Dec 05 12:42:48 2024,330,-14.120,-14.120,-3.415,-3.415,17.698,79.456,90.830,10.246,30.966,14.627,-1.961,15.680,7.377,9.206,9.610,5.329
Thu Dec 05 12:42:48 2024,335,-13.889,-13.889,-3.311,-3.311,18.667,81.432,91.716,10.836,31.828,14.862,-1.667,16.436,7.637,9.036,9.750,5.438
Thu Dec 05 12:42:48 2024,340,-13.656,-13.656,-3.225,-3.225,19.539,83.270,92.518,11.321,32.629,14.991,-1.362,17.331,7.844,8.836,9.945,5.418
Thu Dec 05 12:42:48 2024,345,-13.448,-13.448,-3.086,-3.086,20.541,85.344,93.448,11.784,33.494,15.144,-1.020,18.252,8.038,8.656,10.168,5.409
Thu Dec 05 12:42:48 2024,350,-13.334,-13.334,-2.903,-2.903,21.434,87.211,94.348,12.091,34.210,15.294,-0.713,18.965,8.155,8.555,10.370,5.417
Thu Dec 05 12:42:48 2024,355,-13.187,-13.187,-2.729,-2.729,22.512,89.210,95.141,12.437,35.050,15.463,-0.426,20.434,8.233,8.423,10.590,5.380
Thu Dec 05 12:42:48 2024,360,-12.962,-12.962,-2.645,-2.645,23.606,90.885,95.478,12.805,35.982,15.629,-0.346,20.461,8.111,8.205,10.806,5.167
Thu Dec 05 12:42:48 2024,365,-12.735,-12.735,-2.535,-2.535,24.781,92.546,95.745,13.166,36.955,15.821,-0.304,20.780,8.022,7.972,11.038,4.994
Thu Dec 05 12:42:48 2024,370,-12.554,-12.554,-2.346,-2.346,25.657,93.713,95.896,13.400,37.751,16.064,-0.426,21.218,8.085,7.733,11.275,5.017
Thu Dec 05 12:42:48 2024,375,-12.357,-12.357,-2.118,-2.118,26.669,94.980,95.995,13.640,38.664,16.365,-0.588,21.762,8.200,7.452,11.559,5.088
Thu Dec 05 12:42:48 2024,380,-12.234,-12.234,-1.968,-1.968,27.383,95.844,95.922,13.772,39.318,16.614,-0.651,22.243,8.346,7.234,11.794,5.180
Thu Dec 05 12:42:48 2024,385,-12.120,-12.120,-1.832,-1.832,28.118,96.694,95.800,13.889,39.976,16.868,-0.705,22.762,8.510,7.012,12.040,5.281
Thu Dec 05 12:42:48 2024,390,-12.067,-12.067,-1.815,-1.815,28.639,97.209,95.745,13.927,40.375,17.026,-0.782,23.253,8.630,6.848,12.230,5.343
Thu Dec 05 12:42:48 2024,395,-12.033,-12.033,-1.833,-1.833,29.117,97.645,95.704,13.944,40.713,17.161,-0.868,23.752,8.739,6.695,12.411,5.396
Thu Dec 05 12:42:48 2024,400,-12.031,-12.031,-1.824,-1.824,29.534,97.992,95.588,13.967,40.962,17.302,-0.907,24.016,8.808,6.619,12.518,5.454
Thu Dec 05 12:42:48 2024,405,-12.051,-12.051,-1.798,-1.798,29.972,98.331,95.406,13.997,41.192,17.466,-0.923,24.176,8.862,6.579,12.596,5.524
Thu Dec 05 12:42:48 2024,410,-12.093,-12.093,-1.815,-1.815,30.364,98.524,95.311,13.984,41.247,17.549,-0.961,24.210,8.906,6.531,12.636,5.562
Thu Dec 05 12:42:48 2024,415,-12.150,-12.150,-1.853,-1.853,30.777,98.666,95.247,13.949,41.222,17.602,-1.014,24.185,8.949,6.472,12.661,5.588
Thu Dec 05 12:42:48 2024,420,-12.201,-12.201,-1.885,-1.885,31.136,98.747,95.136,13.951,41.251,17.676,-1.073,24.214,9.007,6.447,12.656,5.612
Thu Dec 05 12:42:48 2024,425,-12.245,-12.245,-1.904,-1.904,31.448,98.760,94.918,14.022,41.407,17.808,-1.145,24.358,9.098,6.477,12.606,5.637
Thu Dec 05 12:42:48 2024,430,-12.277,-12.277,-1.893,-1.893,31.832,98.818,94.665,14.085,41.584,17.946,-1.205,24.477,9.176,6.539,12.541,5.659
Thu Dec 05 12:42:48 2024,435,-12.274,-12.274,-1.810,-1.810,32.332,98.982,94.368,14.113,41.782,18.075,-1.226,24.511,9.207,6.676,12.446,5.666
Thu Dec 05 12:42:48 2024,440,-12.280,-12.280,-1.719,-1.719,32.911,99.183,94.030,14.153,42.024,18.232,-1.242,24.565,9.255,6.822,12.342,5.680
Thu Dec 05 12:42:48 2024,445,-12.357,-12.357,-1.675,-1.675,33.422,99.457,93.850,14.267,42.354,18.428,-1.190,24.730,9.413,6.866,12.318,5.732
Thu Dec 05 12:42:48 2024,450,-12.426,-12.426,-1.636,-1.636,33.908,99.720,93.674,14.376,42.669,18.610,-1.144,24.890,9.554,6.908,12.298,5.778
Thu Dec 05 12:42:48 2024,455,-12.453,-12.453,-1.606,-1.606,34.536,100.102,93.418,14.547,43.107,18.808,-1.105,25.098,9.655,6.966,12.296,5.817
Thu Dec 05 12:42:48 2024,460,-12.471,-12.471,-1.585,-1.585,35.063,100.425,93.200,14.691,43.475,18.969,-1.076,25.273,9.729,7.015,12.296,5.847
Thu Dec 05 12:42:48 2024,465,-12.432,-12.432,-1.547,-1.547,35.672,100.703,93.004,14.812,43.775,19.118,-1.021,25.400,9.805,6.986,12.338,5.836
Thu Dec 05 12:42:48 2024,470,-12.380,-12.380,-1.512,-1.512,36.200,100.917,92.850,14.904,44.000,19.236,-0.968,25.489,9.868,6.938,12.386,5.813
Thu Dec 05 12:42:48 2024,475,-12.317,-12.317,-1.480,-1.480,36.753,101.255,92.699,15.040,44.287,19.305,-0.913,25.635,9.867,6.849,12.455,5.659
Thu Dec 05 12:42:48 2024,480,-12.258,-12.258,-1.458,-1.458,37.208,101.604,92.584,15.179,44.553,19.321,-0.870,25.788,9.823,6.751,12.522,5.448
Thu Dec 05 12:42:48 2024,485,-12.175,-12.175,-1.464,-1.464,37.520,101.851,92.465,15.240,44.735,19.395,-0.855,25.902,9.821,6.659,12.582,5.348
Thu Dec 05 12:42:48 2024,490,-12.074,-12.074,-1.498,-1.498,37.657,101.972,92.350,15.216,44.816,19.523,-0.870,25.967,9.863,6.581,12.628,5.369
Thu Dec 05 12:42:48 2024,495,-11.969,-11.969,-1.501,-1.501,37.859,102.083,92.223,15.203,44.886,19.627,-0.873,26.052,9.892,6.502,12.680,5.338
Thu Dec 05 12:42:48 2024,500,-11.876,-11.876,-1.470,-1.470,38.100,102.161,92.102,15.206,44.932,19.684,-0.860,26.144,9.900,6.435,12.732,5.251
Thu Dec 05 12:42:48 2024,505,-11.793,-11.793,-1.455,-1.455,38.316,102.253,92.036,15.209,44.971,19.743,-0.854,26.200,9.903,6.360,12.780,5.176
Thu Dec 05 12:42:48 2024,510,-11.745,-11.745,-1.482,-1.482,38.429,102.361,92.117,15.210,44.984,19.797,-0.868,26.151,9.890,6.276,12.808,5.146
Thu Dec 05 12:42:48 2024,515,-11.702,-11.702,-1.511,-1.511,38.532,102.459,92.185,15.213,44.993,19.843,-0.876,26.104,9.876,6.204,12.829,5.118
Thu Dec 05 12:42:48 2024,520,-11.649,-11.649,-1.562,-1.562,38.694,102.543,92.128,15.243,44.981,19.855,-0.838,26.062,9.847,6.170,12.842,5.073
Thu Dec 05 12:42:48 2024,525,-11.606,-11.606,-1.598,-1.598,38.808,102.604,92.086,15.266,44.968,19.864,-0.808,26.028,9.827,6.144,12.850,5.040
Thu Dec 05 12:42:48 2024,530,-11.559,-11.559,-1.526,-1.526,38.589,102.543,92.128,15.269,44.900,19.845,-0.798,26.010,9.859,6.152,12.820,5.086
Thu Dec 05 12:42:48 2024,535,-11.516,-11.516,-1.465,-1.465,38.423,102.502,92.157,15.278,44.864,19.830,-0.785,26.012,9.889,6.162,12.798,5.127
Thu Dec 05 12:42:48 2024,540,-11.436,-11.436,-1.433,-1.433,38.435,102.549,92.134,15.328,44.919,19.825,-0.740,26.062,9.907,6.167,12.805,5.144
Thu Dec 05 12:42:48 2024,545,-11.355,-11.355,-1.401,-1.401,38.446,102.595,92.111,15.377,44.973,19.821,-0.696,26.111,9.926,6.172,12.811,5.162
Thu Dec 05 12:42:48 2024,550,-11.291,-11.291,-1.366,-1.366,38.268,102.520,92.121,15.459,45.025,19.796,-0.605,26.155,9.947,6.237,12.738,5.130
Thu Dec 05 12:42:48 2024,555,-11.250,-11.250,-1.338,-1.338,38.012,102.389,92.148,15.545,45.065,19.764,-0.504,26.186,9.965,6.325,12.632,5.076
Thu Dec 05 12:42:48 2024,560,-11.218,-11.218,-1.356,-1.356,37.892,102.311,92.130,15.626,45.058,19.668,-0.416,26.170,9.942,6.374,12.558,4.990
Thu Dec 05 12:42:48 2024,565,-11.203,-11.203,-1.432,-1.432,37.969,102.320,92.060,15.690,44.998,19.512,-0.356,26.099,9.870,6.367,12.539,4.881
Thu Dec 05 12:42:48 2024,570,-11.202,-11.202,-1.505,-1.505,37.849,102.209,92.097,15.708,44.902,19.370,-0.335,26.039,9.797,6.420,12.484,4.802
Thu Dec 05 12:42:48 2024,575,-11.214,-11.214,-1.590,-1.590,37.548,101.981,92.226,15.691,44.759,19.218,-0.340,25.977,9.710,6.528,12.390,4.733
Thu Dec 05 12:42:48 2024,580,-11.220,-11.220,-1.630,-1.630,37.196,101.753,92.325,15.667,44.616,19.086,-0.312,25.915,9.649,6.602,12.304,4.666
Thu Dec 05 12:42:48 2024,585,-11.216,-11.216,-1.622,-1.622,36.581,101.408,92.425,15.628,44.387,18.898,-0.213,25.812,9.589,6.660,12.183,4.553
Thu Dec 05 12:42:48 2024,590,-11.201,-11.201,-1.635,-1.635,36.010,101.058,92.535,15.573,44.147,18.720,-0.130,25.707,9.519,6.722,12.061,4.435
Thu Dec 05 12:42:48 2024,595,-11.154,-11.154,-1.751,-1.751,35.520,100.646,92.724,15.466,43.848,18.535,-0.105,25.580,9.388,6.838,11.918,4.292
Thu Dec 05 12:42:48 2024,600,-11.112,-11.112,-1.859,-1.859,35.032,100.238,92.918,15.358,43.544,18.358,-0.082,25.458,9.272,6.954,11.776,4.172
Thu Dec 05 12:42:48 2024,605,-11.134,-11.134,-1.915,-1.915,34.169,99.644,93.319,15.164,43.007,18.175,0.079,25.285,9.269,7.169,11.537,4.260
Thu Dec 05 12:42:48 2024,610,-11.163,-11.163,-1.957,-1.957,33.327,99.075,93.703,14.969,42.487,18.012,0.111,25.106,9.273,7.366,11.311,4.359
Thu Dec 05 12:42:48 2024,615,-11.193,-11.193,-2.025,-2.025,32.174,98.328,94.102,14.676,41.827,17.795,0.082,24.745,9.151,7.522,11.046,4.344
Thu Dec 05 12:42:48 2024,620,-11.214,-11.214,-2.082,-2.082,31.280,97.749,94.368,14.436,41.326,17.628,0.046,24.425,9.014,7.606,10.852,4.282
Thu Dec 05 12:42:48 2024,625,-11.179,-11.179,-2.143,-2.143,29.925,96.849,94.759,14.090,40.590,17.399,-0.040,24.014,8.864,7.768,10.548,4.234
Thu Dec 05 12:42:48 2024,630,-11.126,-11.126,-2.193,-2.193,28.699,96.011,95.109,13.777,39.922,17.196,-0.032,23.663,8.747,7.929,10.265,4.206
Thu Dec 05 12:42:48 2024,635,-11.129,-11.129,-2.237,-2.237,27.314,95.073,95.443,13.357,39.086,16.930,-0.040,23.267,8.591,8.127,9.952,4.101
Thu Dec 05 12:42:48 2024,640,-11.170,-11.170,-2.263,-2.263,26.246,94.351,95.664,12.988,38.386,16.697,-0.052,22.959,8.454,8.291,9.712,3.974
Thu Dec 05 12:42:48 2024,645,-11.240,-11.240,-2.336,-2.336,25.000,93.253,95.893,12.494,37.474,16.392,-0.030,22.612,8.260,8.532,9.462,3.845
Thu Dec 05 12:42:48 2024,650,-11.312,-11.312,-2.427,-2.427,24.084,92.205,96.030,12.070,36.716,16.136,0.044,22.370,8.084,8.756,9.304,3.768
Thu Dec 05 12:42:48 2024,655,-11.430,-11.430,-2.551,-2.551,22.980,90.885,96.108,11.545,35.781,15.825,0.101,22.006,7.817,8.939,9.186,3.624
Thu Dec 05 12:42:48 2024,660,-11.584,-11.584,-2.678,-2.678,22.017,89.675,96.032,11.084,34.959,15.553,0.097,21.571,7.498,8.934,9.228,3.414
Thu Dec 05 12:42:48 2024,665,-11.748,-11.748,-2.830,-2.830,20.869,88.151,95.830,10.604,34.093,15.263,0.103,21.135,7.171,8.951,9.261,3.191
Thu Dec 05 12:42:48 2024,670,-11.905,-11.905,-3.100,-3.100,18.626,84.770,94.752,10.298,33.388,15.029,0.208,20.954,6.928,9.142,9.208,2.979
Thu Dec 05 12:42:48 2024,675,-12.105,-12.105,-3.369,-3.369,16.609,81.310,93.179,10.023,32.699,14.834,0.341,20.822,6.767,9.364,9.096,2.805
Thu Dec 05 12:42:48 2024,680,-12.464,-12.464,-3.621,-3.621,14.616,77.243,90.191,9.902,32.051,14.787,0.594,20.868,6.933,9.714,8.749,2.748
Thu Dec 05 12:42:48 2024,685,-12.842,-12.842,-3.873,-3.873,12.964,73.402,86.952,9.767,31.442,14.756,0.840,20.985,7.098,10.054,8.407,2.689
Thu Dec 05 12:42:48 2024,690,-12.830,-12.830,-3.843,-3.843,12.560,71.330,81.660,9.450,30.560,14.390,0.788,19.194,7.268,9.896,8.484,2.746
Thu Dec 05 12:42:48 2024,695,-12.751,-12.751,-3.767,-3.767,12.455,69.981,76.751,9.157,29.836,14.018,0.691,18.980,7.414,9.668,8.627,2.818
Thu Dec 05 12:42:48 2024,700,-12.394,-12.394,-3.252,-3.252,12.387,62.762,60.430,8.554,28.941,13.785,0.175,17.303,7.058,9.084,8.960,3.157
Thu Dec 05 12:42:48 2024,705,-12.136,-12.136,-2.766,-2.766,12.592,56.557,47.177,7.995,20.358,13.657,-0.271,15.476,6.695,8.561,9.222,3.494
Thu Dec 05 12:42:48 2024,710,-11.861,-11.861,-2.669,-2.669,12.198,51.706,37.116,7.085,12.818,13.783,-0.504,14.139,6.496,8.206,9.453,3.889
Thu Dec 05 12:42:48 2024,715,-11.564,-11.564,-2.919,-2.919,11.313,47.870,29.231,5.861,14.121,14.136,-0.557,13.268,6.436,7.997,9.666,4.324
Thu Dec 05 12:42:48 2024,720,-11.420,-11.420,-3.079,-3.079,10.190,43.827,22.579,4.694,15.223,13.665,-0.449,12.524,6.290,7.754,9.966,4.578
Thu Dec 05 12:42:48 2024,725,-11.474,-11.474,-3.078,-3.078,9.183,41.069,19.027,4.040,15.409,12.564,-0.191,12.188,6.107,7.578,10.241,4.566
Thu Dec 05 12:42:48 2024,730,-11.570,-11.570,-3.104,-3.104,8.101,38.116,15.657,3.375,15.277,11.527,0.172,11.924,5.922,7.480,10.479,4.524
Thu Dec 05 12:42:48 2024,735,-11.784,-11.784,-3.212,-3.212,7.084,35.442,13.566,2.922,15.198,10.930,0.321,12.028,5.792,7.696,10.493,4.364
Thu Dec 05 12:42:48 2024,740,-12.017,-12.017,-3.315,-3.315,6.067,32.879,11.721,2.536,15.084,10.402,0.529,12.128,5.696,7.949,10.447,4.238
Thu Dec 05 12:42:48 2024,745,-12.246,-12.246,-3.391,-3.391,5.219,30.978,10.649,2.398,15.099,10.120,0.727,12.210,5.699,8.256,10.286,4.186
Thu Dec 05 12:42:48 2024,750,-12.520,-12.520,-3.461,-3.461,4.239,28.881,9.532,2.266,15.102,9.828,0.976,12.290,5.713,8.594,10.101,4.140
Thu Dec 05 12:42:48 2024,755,-12.736,-12.736,-3.446,-3.446,3.491,27.512,8.958,2.270,15.060,9.714,1.242,12.332,5.760,8.815,10.006,4.158
Thu Dec 05 12:42:48 2024,760,-12.942,-12.942,-3.427,-3.427,2.714,26.161,8.440,2.292,15.001,9.616,1.518,12.374,5.830,9.022,9.919,4.191
Thu Dec 05 12:42:48 2024,765,-12.998,-12.998,-3.434,-3.434,1.844,24.819,8.099,2.357,14.851,9.569,1.764,12.509,6.043,9.127,9.926,4.276
Thu Dec 05 12:42:48 2024,770,-13.024,-13.024,-3.437,-3.437,1.057,23.660,7.837,2.427,14.687,9.516,1.976,12.627,6.239,9.205,9.932,4.352
Thu Dec 05 12:42:48 2024,775,-13.064,-13.064,-3.394,-3.394,0.392,22.680,7.656,2.511,14.483,9.385,2.149,12.672,6.314,9.284,9.878,4.370
Thu Dec 05 12:42:48 2024,780,-13.108,-13.108,-3.332,-3.332,-0.110,21.990,7.547,2.591,14.284,9.226,2.277,12.668,6.306,9.352,9.798,4.354
Thu Dec 05 12:42:48 2024,785,-13.110,-13.110,-3.278,-3.278,-0.598,21.465,7.422,2.665,14.104,9.056,2.351,12.691,6.271,9.366,9.746,4.284
Thu Dec 05 12:42:48 2024,790,-13.089,-13.089,-3.231,-3.231,-1.046,21.282,7.294,2.732,13.944,8.888,2.392,12.728,6.225,9.352,9.712,4.191
Thu Dec 05 12:42:48 2024,795,-13.076,-13.076,-3.224,-3.224,-1.541,21.542,7.143,2.819,13.833,8.724,2.381,12.730,6.145,9.303,9.732,4.127
Thu Dec 05 12:42:48 2024,800,-13.075,-13.075,-3.256,-3.256,-1.914,18.033,7.020,2.897,13.802,8.618,2.328,12.698,6.060,9.242,9.795,4.111
Thu Dec 05 12:42:48 2024,805,-13.087,-13.087,-3.267,-3.267,-2.274,17.545,6.930,3.009,13.761,8.552,2.309,12.679,6.016,9.211,9.821,4.103
Thu Dec 05 12:42:48 2024,810,-13.117,-13.117,-3.242,-3.242,-2.537,17.172,6.910,3.149,13.710,8.561,2.349,12.684,6.044,9.236,9.785,4.108
Thu Dec 05 12:42:48 2024,815,-13.140,-13.140,-3.214,-3.214,-2.820,16.751,6.891,3.256,13.650,8.564,2.364,12.711,6.080,9.231,9.792,4.139
Thu Dec 05 12:42:48 2024,820,-13.138,-13.138,-3.189,-3.189,-3.054,16.377,6.882,3.258,13.590,8.554,2.324,12.776,6.122,9.165,9.890,4.212
Thu Dec 05 12:42:48 2024,825,-13.151,-13.151,-3.159,-3.159,-3.305,15.971,6.861,3.264,13.532,8.534,2.286,12.836,6.156,9.085,9.996,4.279
Thu Dec 05 12:42:48 2024,830,-13.264,-13.264,-3.130,-3.130,-3.487,15.683,6.788,3.278,13.533,8.448,2.286,12.811,6.098,8.961,10.086,4.247
Thu Dec 05 12:42:48 2024,835,-13.364,-13.364,-3.106,-3.106,-3.665,15.405,6.716,3.285,13.529,8.355,2.284,12.803,6.038,8.843,10.177,4.214
Thu Dec 05 12:42:48 2024,840,-13.422,-13.422,-3.097,-3.097,-3.851,15.137,6.638,3.256,13.505,8.217,2.276,12.864,5.968,8.738,10.279,4.172
Thu Dec 05 12:42:48 2024,845,-13.465,-13.465,-3.089,-3.089,-4.018,14.886,6.568,3.228,13.475,8.093,2.270,12.924,5.908,8.650,10.367,4.140
Thu Dec 05 12:42:48 2024,850,-13.508,-13.508,-3.047,-3.047,-4.228,14.461,6.497,3.232,13.396,7.993,2.283,12.948,5.882,8.573,10.438,4.155
Thu Dec 05 12:42:48 2024,855,-13.542,-13.542,-3.004,-3.004,-4.405,14.069,6.439,3.246,13.320,7.923,2.298,12.954,5.871,8.516,10.488,4.182
Thu Dec 05 12:42:48 2024,860,-13.578,-13.578,-2.994,-2.994,-4.604,13.632,6.415,3.303,13.282,7.884,2.335,12.978,5.888,8.523,10.466,4.199
Thu Dec 05 12:42:48 2024,865,-13.613,-13.613,-3.001,-3.001,-4.794,13.217,6.409,3.374,13.265,7.865,2.378,13.007,5.917,8.559,10.412,4.211
Thu Dec 05 12:42:48 2024,870,-13.695,-13.695,-2.975,-2.975,-4.972,12.882,6.385,3.384,13.344,7.841,2.369,13.143,5.906,8.583,10.389,4.172
Thu Dec 05 12:42:48 2024,875,-13.808,-13.808,-2.927,-2.927,-5.145,12.599,6.348,3.355,13.487,7.811,2.326,13.349,5.869,8.598,10.385,4.097
Thu Dec 05 12:42:48 2024,880,-13.850,-13.850,-2.918,-2.918,-5.276,12.343,6.323,3.361,13.537,7.793,2.273,13.464,5.849,8.604,10.378,4.052
Thu Dec 05 12:42:48 2024,885,-13.808,-13.808,-2.952,-2.952,-5.335,12.163,6.315,3.402,13.478,7.790,2.217,13.456,5.851,8.601,10.369,4.048
Thu Dec 05 12:42:48 2024,890,-13.780,-13.780,-2.988,-2.988,-5.395,11.963,6.305,3.401,13.416,7.769,2.136,13.455,5.850,8.603,10.344,4.030
Thu Dec 05 12:42:48 2024,895,-13.796,-13.796,-3.012,-3.012,-5.428,11.811,6.294,3.309,13.379,7.722,2.042,13.470,5.841,8.620,10.295,3.996
Thu Dec 05 12:42:48 2024,900,-13.798,-13.798,-3.037,-3.037,-5.459,11.658,6.291,3.194,13.309,7.673,1.925,13.474,5.846,8.637,10.246,3.977
Thu Dec 05 12:42:48 2024,905,-13.729,-13.729,-3.046,-3.046,-5.448,11.659,6.326,3.077,13.163,7.661,1.822,13.429,5.908,8.638,10.249,4.045
Thu Dec 05 12:42:48 2024,910,-13.675,-13.675,-3.052,-3.052,-5.428,11.682,6.363,2.971,13.029,7.648,1.726,13.392,5.962,8.651,10.247,4.106
Thu Dec 05 12:42:48 2024,915,-13.683,-13.683,-3.047,-3.047,-5.338,11.843,6.414,2.905,12.970,7.632,1.644,13.412,5.983,8.741,10.207,4.137
Thu Dec 05 12:42:48 2024,920,-13.697,-13.697,-3.043,-3.043,-5.262,11.979,6.454,2.860,12.933,7.619,1.584,13.433,5.995,8.818,10.171,4.157
Thu Dec 05 12:42:48 2024,925,-13.666,-13.666,-3.014,-3.014,-5.252,11.940,6.430,2.744,12.808,7.620,1.410,13.360,6.024,8.754,10.230,4.217
Thu Dec 05 12:42:48 2024,930,-13.632,-13.632,-2.989,-2.989,-5.264,11.864,6.398,2.644,12.694,7.624,1.260,13.279,6.050,8.672,10.296,4.268
Thu Dec 05 12:42:48 2024,935,-13.716,-13.716,-2.928,-2.928,-5.241,11.906,6.418,2.636,12.691,7.607,1.256,13.157,6.004,8.647,10.297,4.258
Thu Dec 05 12:42:48 2024,940,-13.812,-13.812,-2.875,-2.875,-5.214,11.974,6.450,2.660,12.726,7.589,1.303,13.062,5.950,8.649,10.278,4.230
Thu Dec 05 12:42:48 2024,945,-13.876,-13.876,-2.830,-2.830,-5.252,11.938,6.419,2.689,12.884,7.550,1.420,13.053,5.874,8.646,10.276,4.204
Thu Dec 05 12:42:48 2024,950,-13.897,-13.897,-2.800,-2.800,-5.342,11.813,6.336,2.716,13.122,7.499,1.578,13.124,5.796,8.637,10.292,4.183
Thu Dec 05 12:42:48 2024,955,-13.965,-13.965,-2.715,-2.715,-5.433,11.637,6.256,2.801,13.378,7.489,1.757,13.147,5.710,8.622,10.294,4.125
Thu Dec 05 12:42:48 2024,960,-14.063,-14.063,-2.591,-2.591,-5.506,11.447,6.194,2.926,13.591,7.521,1.917,13.119,5.636,8.602,10.280,4.042
Thu Dec 05 12:42:48 2024,965,-14.145,-14.145,-2.536,-2.536,-5.616,11.178,6.096,3.064,13.805,7.518,2.041,13.109,5.542,8.575,10.266,3.956
Thu Dec 05 12:42:48 2024,970,-14.174,-14.174,-2.600,-2.600,-5.747,10.876,5.976,3.181,13.954,7.465,2.071,13.133,5.449,8.548,10.254,3.894
Thu Dec 05 12:42:48 2024,975,-14.230,-14.230,-2.634,-2.634,-5.864,10.616,5.885,3.326,14.110,7.453,2.101,13.183,5.380,8.529,10.240,3.828
Thu Dec 05 12:42:48 2024,980,-14.393,-14.393,-2.544,-2.544,-5.940,10.496,5.899,3.602,14.312,7.605,2.134,13.345,5.391,8.542,10.212,3.736
Thu Dec 05 12:42:48 2024,985,-14.529,-14.529,-2.465,-2.465,-6.002,10.404,5.916,3.838,14.447,7.741,2.160,13.479,5.408,8.555,10.189,3.660
Thu Dec 05 12:42:48 2024,990,-14.516,-14.516,-2.447,-2.447,-6.074,10.254,5.885,4.125,14.573,7.946,2.141,13.485,5.453,8.564,10.176,3.668
Thu Dec 05 12:42:48 2024,995,-14.504,-14.504,-2.427,-2.427,-6.150,10.097,5.853,4.423,14.647,8.159,2.123,13.491,5.501,8.573,10.163,3.677
Thu Dec 05 12:42:49 2024,0,-14.477,-14.477,-2.345,-2.345,-6.135,10.151,5.853,4.830,14.709,8.537,2.229,13.603,5.564,8.675,10.054,3.613
Thu Dec 05 12:42:49 2024,5,-14.451,-14.451,-2.261,-2.261,-6.110,10.229,5.859,5.213,14.619,8.904,2.342,13.716,5.623,8.780,9.941,3.545
Thu Dec 05 12:42:49 2024,10,-14.394,-14.394,-2.215,-2.215,-6.090,10.367,5.916,5.590,14.378,9.343,2.382,13.759,5.745,8.885,9.825,3.554
Thu Dec 05 12:42:49 2024,15,-14.342,-14.342,-2.188,-2.188,-6.076,10.491,5.976,5.882,14.112,9.705,2.393,13.775,5.857,8.965,9.732,3.582
Thu Dec 05 12:42:49 2024,20,-14.311,-14.311,-2.152,-2.152,-5.994,10.650,6.034,6.108,13.839,10.034,2.376,13.802,5.949,9.008,9.684,3.624
Thu Dec 05 12:42:49 2024,25,-14.291,-14.291,-2.106,-2.106,-5.857,10.849,6.096,6.305,13.549,10.370,2.336,13.837,6.033,9.026,9.663,3.678
Thu Dec 05 12:42:49 2024,30,-14.292,-14.292,-2.105,-2.105,-5.693,11.168,6.205,6.475,26.760,10.751,2.299,13.929,6.146,9.091,9.566,3.689
Thu Dec 05 12:42:49 2024,35,-14.310,-14.310,-2.142,-2.142,-5.520,11.562,6.344,6.613,27.064,11.141,2.265,14.062,6.276,9.190,9.412,3.663
Thu Dec 05 12:42:49 2024,40,-14.323,-14.323,-2.172,-2.172,-5.347,11.989,6.482,6.755,27.441,11.571,2.191,14.286,6.418,9.328,9.209,3.625
Thu Dec 05 12:42:49 2024,45,-14.328,-14.328,-2.176,-2.176,-5.235,12.330,6.573,6.858,27.795,11.929,2.070,14.597,6.529,9.487,8.988,3.577
Thu Dec 05 12:42:49 2024,50,-14.336,-14.336,-2.151,-2.151,-5.136,12.614,6.672,6.989,28.240,12.348,1.953,14.918,6.672,9.660,8.709,3.510
Thu Dec 05 12:42:49 2024,55,-14.351,-14.351,-2.057,-2.057,-5.079,12.739,6.777,7.178,28.833,12.878,1.855,15.234,6.883,9.849,8.313,3.401
Thu Dec 05 12:42:49 2024,60,-14.380,-14.380,-1.956,-1.956,-5.018,12.869,6.884,7.401,29.534,13.437,1.770,15.585,7.106,10.069,7.862,3.279
Thu Dec 05 12:42:49 2024,65,-14.469,-14.469,-1.843,-1.843,-4.945,12.981,6.975,7.772,30.486,14.011,1.786,16.021,7.327,10.371,7.280,3.100
Thu Dec 05 12:42:49 2024,70,-14.553,-14.553,-1.732,-1.732,-4.873,13.099,7.070,8.171,31.510,14.600,1.804,16.471,7.561,10.696,6.680,2.936
Thu Dec 05 12:42:49 2024,75,-14.587,-14.587,-1.634,-1.634,-4.795,13.271,7.198,8.848,32.980,15.399,1.833,17.108,7.905,11.187,6.038,2.824
Thu Dec 05 12:42:49 2024,80,-14.608,-14.608,-1.529,-1.529,-4.709,13.463,7.332,9.676,34.765,16.330,1.860,17.753,8.315,11.764,5.326,2.725
Thu Dec 05 12:42:49 2024,85,-14.570,-14.570,-1.379,-1.379,-4.649,13.506,7.230,10.545,36.713,17.255,1.807,18.154,8.686,12.076,4.872,2.612
Thu Dec 05 12:42:49 2024,90,-14.514,-14.514,-1.216,-1.216,-4.585,13.516,7.053,11.535,38.973,18.269,1.721,21.916,9.111,12.370,4.411,2.522
Thu Dec 05 12:42:49 2024,95,-14.437,-14.437,-1.185,-1.185,-4.284,13.532,6.983,12.520,41.220,20.669,1.450,23.039,9.814,12.577,4.125,2.598
Thu Dec 05 12:42:49 2024,100,-14.366,-14.366,-1.208,-1.208,-3.929,13.530,6.967,13.357,43.144,23.315,1.133,24.546,10.512,12.718,3.955,2.713
Thu Dec 05 12:42:49 2024,105,-14.282,-14.282,-1.139,-1.139,-3.521,13.172,6.755,14.387,45.127,26.880,0.906,27.146,10.904,13.016,3.877,2.789
Thu Dec 05 12:42:49 2024,110,-14.206,-14.206,-0.984,-0.984,-3.132,12.485,6.382,15.450,46.812,30.890,0.799,30.127,10.832,13.412,3.890,2.815
Thu Dec 05 12:42:49 2024,115,-14.212,-14.212,-0.775,-0.124,-2.867,12.270,6.463,16.620,46.735,32.146,0.153,32.766,10.650,13.634,3.917,2.956
Thu Dec 05 12:42:49 2024,120,-14.378,-14.378,-0.832,0.832,-2.794,12.839,7.314,18.165,44.001,27.908,-0.834,35.457,10.325,13.636,3.990,3.316
Thu Dec 05 12:42:49 2024,125,-14.759,-14.759,-1.560,1.560,-2.735,13.831,8.135,20.062,42.949,22.829,-1.608,37.978,10.284,13.318,4.237,3.507
Thu Dec 05 12:42:49 2024,130,-15.358,-15.358,-2.435,2.435,-2.634,15.378,8.500,22.011,44.438,21.084,-1.839,39.641,11.060,12.391,4.788,3.431
Thu Dec 05 12:42:49 2024,135,-15.998,-15.998,3.402,3.402,-2.463,16.849,8.820,24.032,46.087,19.446,-2.060,41.457,12.062,11.375,5.327,3.715
Thu Dec 05 12:42:49 2024,140,-15.904,-15.904,-3.212,3.212,-1.755,17.345,8.557,25.614,49.115,21.476,-1.982,41.273,12.945,11.325,4.432,3.220
Thu Dec 05 12:42:49 2024,145,-15.876,-15.876,-3.057,3.057,-1.096,17.794,8.410,26.961,52.018,23.888,-1.870,41.242,14.078,11.354,3.652,2.758
Thu Dec 05 12:42:49 2024,150,-15.883,-15.883,-2.986,2.986,-0.451,18.662,8.858,27.486,54.130,27.135,-1.580,42.044,16.700,11.759,3.588,2.729
Thu Dec 05 12:42:49 2024,155,-15.919,-15.919,-2.936,2.936,0.115,19.401,9.338,27.857,56.086,30.445,-1.361,42.917,19.473,12.149,3.594,3.733
Thu Dec 05 12:42:49 2024,160,-16.086,-16.086,3.134,3.134,0.739,20.799,9.962,28.050,57.793,33.364,-1.306,44.086,21.637,12.512,3.850,4.771
Thu Dec 05 12:42:49 2024,165,-16.290,-16.290,3.402,3.402,1.408,21.923,10.670,28.229,59.643,36.592,1.446,45.434,23.954,12.883,4.132,5.918
Thu Dec 05 12:42:49 2024,170,-16.419,-16.419,3.611,3.611,1.991,23.035,11.267,28.003,60.913,39.204,1.664,46.691,25.812,13.225,4.455,6.956
Thu Dec 05 12:42:49 2024,175,-16.501,-16.501,3.763,3.763,2.443,23.948,11.734,27.662,61.783,41.198,1.855,47.706,27.226,13.495,4.698,7.789
Thu Dec 05 12:42:49 2024,180,-16.526,-16.526,3.891,3.891,2.944,24.984,12.215,27.242,62.718,43.157,2.169,48.881,28.785,13.597,5.050,8.712
Thu Dec 05 12:42:49 2024,185,-16.511,-16.511,3.980,3.980,3.377,25.896,12.614,26.847,63.515,44.709,2.532,49.938,30.142,13.571,5.401,9.513
Thu Dec 05 12:42:49 2024,190,-16.489,-16.489,4.065,4.065,3.811,26.796,13.034,26.358,64.350,46.502,3.054,51.224,31.700,13.498,5.762,10.379
Thu Dec 05 12:42:49 2024,195,-16.460,-16.460,4.138,4.138,4.222,27.615,13.448,25.771,65.172,48.482,3.766,52.737,33.418,13.370,6.126,11.262
Thu Dec 05 12:42:49 2024,200,-16.567,-16.567,4.294,4.294,4.687,28.559,14.029,25.089,66.343,51.421,4.658,54.821,35.953,13.331,6.396,12.332
Thu Dec 05 12:42:49 2024,205,-16.821,-16.821,4.501,4.501,5.030,29.263,14.588,24.575,67.488,54.472,5.376,56.785,38.562,13.433,6.432,13.205
Thu Dec 05 12:42:49 2024,210,-17.216,-17.216,4.758,4.758,5.446,30.176,15.286,23.923,69.203,58.814,6.260,59.582,42.286,13.548,6.424,14.350
Thu Dec 05 12:42:49 2024,215,-17.675,-17.675,4.926,4.926,5.671,30.896,15.709,23.543,71.226,63.253,6.610,62.577,45.961,13.562,6.440,15.246
Thu Dec 05 12:42:49 2024,220,-18.171,-18.171,5.078,5.078,5.904,31.680,16.151,23.122,73.582,68.272,7.100,65.904,50.319,13.584,6.386,16.178
Thu Dec 05 12:42:49 2024,225,-18.390,-18.390,4.982,4.982,5.987,32.204,16.268,22.737,75.793,72.356,7.424,68.181,53.815,13.637,6.297,16.328
Thu Dec 05 12:42:49 2024,230,-18.597,-18.597,4.891,4.891,6.063,32.696,16.381,22.387,77.914,76.157,7.807,70.350,57.383,13.685,6.203,16.473
Thu Dec 05 12:42:49 2024,235,-18.705,-18.705,4.831,4.831,6.035,33.109,16.597,22.396,79.826,79.382,8.303,72.517,60.810,13.781,6.089,16.325
Thu Dec 05 12:42:49 2024,240,-18.796,-18.796,4.778,4.778,6.001,33.486,16.810,22.470,81.592,82.271,8.840,74.535,64.060,13.872,5.983,16.169
Thu Dec 05 12:42:49 2024,245,-18.806,-18.806,4.701,4.701,5.948,33.856,17.015,22.790,83.286,84.579,9.416,76.110,67.004,13.960,5.875,15.955
Thu Dec 05 12:42:49 2024,250,-18.796,-18.796,4.637,4.637,5.904,34.139,17.172,23.117,84.566,86.175,9.874,77.207,69.191,14.026,5.792,15.778
Thu Dec 05 12:42:49 2024,255,-18.767,-18.767,4.632,4.632,5.924,34.469,17.373,23.506,85.893,87.614,10.380,78.195,71.234,14.156,5.646,15.596
Thu Dec 05 12:42:49 2024,260,-18.731,-18.731,4.676,4.676,5.990,34.757,17.561,23.852,86.942,88.578,10.804,78.861,72.661,14.306,5.484,15.451
Thu Dec 05 12:42:49 2024,265,-18.677,-18.677,4.665,4.665,6.009,34.975,17.746,24.218,87.588,89.052,11.086,79.235,73.471,14.402,5.358,15.483
Thu Dec 05 12:42:49 2024,270,-18.611,-18.611,4.614,4.614,5.992,35.137,17.926,24.584,87.920,89.170,11.253,79.384,73.810,14.456,5.258,15.650
Thu Dec 05 12:42:49 2024,275,-18.520,-18.520,4.577,4.577,5.987,35.298,18.121,24.996,88.131,89.088,11.352,79.387,73.914,14.465,5.204,15.813
Thu Dec 05 12:42:49 2024,280,-18.441,-18.441,4.579,4.579,6.003,35.373,18.235,25.259,88.064,88.770,11.301,79.184,73.637,14.407,5.246,15.886
Thu Dec 05 12:42:49 2024,285,-18.348,-18.348,4.564,4.564,6.035,35.473,18.383,25.548,88.021,88.420,11.322,79.011,73.357,14.332,5.306,15.954
Thu Dec 05 12:42:49 2024,290,-18.260,-18.260,4.486,4.486,6.116,35.602,18.566,25.732,88.106,88.209,11.630,79.090,73.266,14.243,5.394,15.957
Thu Dec 05 12:42:49 2024,295,-18.167,-18.167,4.404,4.404,6.206,35.744,18.762,25.924,88.228,88.027,12.000,79.204,73.210,14.153,5.485,15.946
Thu Dec 05 12:42:49 2024,300,-18.058,-18.058,4.373,4.373,6.310,35.867,18.871,25.963,88.713,88.554,12.529,79.641,73.789,14.159,5.482,15.744
Thu Dec 05 12:42:49 2024,305,-17.945,-17.945,4.340,4.340,6.423,36.002,18.992,26.012,89.243,89.117,13.123,80.119,74.401,14.167,5.479,15.526
Thu Dec 05 12:42:49 2024,310,-17.846,-17.846,4.367,4.367,6.467,36.204,19.211,26.085,89.597,89.396,13.431,80.389,74.887,14.137,5.509,15.354
Thu Dec 05 12:42:49 2024,315,-17.756,-17.756,4.392,4.392,6.507,36.389,19.414,26.156,89.924,89.650,13.719,80.639,75.329,14.110,5.536,15.200
Thu Dec 05 12:42:49 2024,320,-17.786,-17.786,4.470,4.470,6.623,36.564,19.536,26.139,90.400,90.250,14.135,81.040,76.011,14.179,5.481,14.912
Thu Dec 05 12:42:49 2024,325,-17.867,-17.867,4.572,4.572,6.772,36.736,19.624,26.092,90.946,90.991,14.616,81.510,76.800,14.290,5.391,14.569
Thu Dec 05 12:42:49 2024,330,-17.972,-17.972,4.544,4.544,6.824,36.822,19.651,25.961,91.296,91.541,14.990,81.880,77.397,14.337,5.373,14.230
Thu Dec 05 12:42:49 2024,335,-18.105,-18.105,4.435,4.435,6.823,36.869,19.648,25.763,91.571,92.048,15.349,82.236,77.958,14.353,5.395,13.860
Thu Dec 05 12:42:49 2024,340,-18.205,-18.205,4.394,4.394,6.809,36.893,19.576,25.630,91.848,92.539,15.538,82.547,78.584,14.406,5.374,13.526
Thu Dec 05 12:42:49 2024,345,-18.266,-18.266,4.416,4.416,6.784,36.895,19.456,25.568,92.096,92.965,15.557,82.782,79.199,14.484,5.319,13.254
Thu Dec 05 12:42:49 2024,350,-18.327,-18.327,4.434,4.434,6.758,36.912,19.367,25.559,92.360,93.422,15.532,82.972,79.848,14.577,5.249,12.980
Thu Dec 05 12:42:49 2024,355,-18.372,-18.372,4.444,4.444,6.734,36.958,19.357,25.656,92.607,93.861,15.423,83.037,80.450,14.686,5.163,12.747
Thu Dec 05 12:42:49 2024,360,-18.417,-18.417,4.449,4.449,6.706,37.013,19.362,25.706,92.811,94.225,15.296,83.079,80.987,14.773,5.102,12.483
Thu Dec 05 12:42:49 2024,365,-18.425,-18.425,4.436,4.436,6.687,37.064,19.408,25.578,92.757,94.150,15.194,83.024,80.982,14.738,5.156,12.290
Thu Dec 05 12:42:49 2024,370,-18.429,-18.429,4.419,4.419,6.676,37.124,19.468,25.480,92.721,94.082,15.095,82.958,80.970,14.702,5.209,12.114
Thu Dec 05 12:42:49 2024,375,-18.398,-18.398,4.363,4.363,6.736,37.256,19.628,25.567,92.814,94.057,15.009,82.794,80.908,14.643,5.275,12.010
Thu Dec 05 12:42:49 2024,380,-18.366,-18.366,4.305,4.305,6.802,37.397,19.799,25.666,92.915,94.031,14.923,82.622,80.836,14.582,5.343,11.909
Thu Dec 05 12:42:49 2024,385,-18.382,-18.382,4.389,4.389,6.827,37.488,19.981,25.649,92.813,93.675,15.002,82.591,80.413,14.540,5.384,11.918
Thu Dec 05 12:42:49 2024,390,-18.398,-18.398,4.472,4.472,6.852,37.577,20.161,25.632,92.714,93.327,15.079,82.561,80.000,14.500,5.425,11.928
Thu Dec 05 12:42:49 2024,395,-18.346,-18.346,4.394,4.394,6.876,37.739,20.361,25.706,92.935,93.175,15.287,82.709,79.958,14.520,5.397,11.979
Thu Dec 05 12:42:49 2024,400,-18.282,-18.282,4.287,4.287,6.901,37.922,20.578,25.802,93.220,93.042,15.528,82.895,79.966,14.550,5.357,12.040
Thu Dec 05 12:42:49 2024,405,-18.202,-18.202,4.154,4.154,6.944,38.045,20.836,26.054,93.624,93.083,16.011,83.171,80.074,14.563,5.336,12.064
Thu Dec 05 12:42:49 2024,410,-18.124,-18.124,4.025,4.025,6.991,38.130,21.085,26.346,94.033,93.184,16.548,83.456,80.199,14.567,5.325,12.072
Thu Dec 05 12:42:49 2024,415,-18.051,-18.051,3.866,3.866,7.020,38.286,21.374,26.521,94.331,93.096,16.992,83.659,80.163,14.569,5.313,12.134
Thu Dec 05 12:42:49 2024,420,-17.976,-17.976,3.652,3.652,7.033,38.544,21.748,26.578,94.540,92.787,17.383,83.792,79.948,14.568,5.297,12.268
Thu Dec 05 12:42:49 2024,425,-17.830,-17.830,3.515,3.515,7.078,38.746,22.052,26.703,94.760,92.595,17.634,83.864,79.863,14.571,5.288,12.298
Thu Dec 05 12:42:49 2024,430,-17.622,-17.622,3.466,3.466,7.150,38.880,22.266,26.887,94.976,92.533,17.730,83.870,79.913,14.576,5.287,12.224
Thu Dec 05 12:42:49 2024,435,-17.386,-17.386,3.389,3.389,7.209,39.013,22.488,27.005,95.121,92.402,17.780,83.848,79.895,14.573,5.297,12.145
Thu Dec 05 12:42:49 2024,440,-17.083,-17.083,3.191,3.191,7.166,39.096,22.665,26.712,94.826,91.950,17.555,83.682,79.511,14.524,5.367,12.069
Thu Dec 05 12:42:49 2024,445,-16.840,-16.840,3.034,3.034,7.133,39.165,22.814,26.490,94.588,91.581,17.360,83.544,79.200,14.484,5.422,12.015
Thu Dec 05 12:42:49 2024,450,-16.636,-16.636,2.906,2.906,7.118,39.244,23.020,26.438,94.348,91.235,16.970,83.356,78.908,14.431,5.481,12.055
Thu Dec 05 12:42:49 2024,455,-16.417,-16.417,2.763,2.763,7.088,39.313,23.228,26.362,94.054,90.830,16.534,83.132,78.542,14.370,5.548,12.106
Thu Dec 05 12:42:49 2024,460,-16.160,-16.160,2.532,2.532,6.938,39.230,23.337,26.048,93.374,90.068,15.820,82.652,77.655,14.273,5.654,12.240
Thu Dec 05 12:42:49 2024,465,-15.916,-15.916,2.302,2.302,6.775,39.124,23.418,25.730,92.671,89.276,15.122,82.160,76.718,14.176,5.760,12.381
Thu Dec 05 12:42:49 2024,470,-15.619,-15.619,2.148,2.148,6.620,38.984,23.451,25.575,91.621,88.114,14.031,81.243,75.231,14.086,5.853,12.626
Thu Dec 05 12:42:49 2024,475,-15.390,-15.390,2.059,2.059,6.511,38.874,23.459,25.535,90.766,87.146,13.160,80.459,73.963,14.023,5.916,12.839
Thu Dec 05 12:42:49 2024,480,-15.073,-15.073,1.904,1.904,6.333,38.645,23.402,25.401,89.450,85.579,12.078,79.290,72.118,13.882,6.061,13.172
Thu Dec 05 12:42:49 2024,485,-14.817,-14.817,1.764,1.764,6.178,38.424,23.323,25.275,88.337,84.194,11.283,78.311,70.581,13.743,6.205,13.464
Thu Dec 05 12:42:49 2024,490,-14.545,-14.545,1.658,1.658,6.006,38.133,23.185,25.065,87.000,82.479,10.332,77.055,68.563,13.629,6.327,13.695
Thu Dec 05 12:42:49 2024,495,-14.317,-14.317,1.611,1.611,5.853,37.831,23.014,24.813,85.716,80.802,9.445,75.783,66.490,13.566,6.397,13.805
Thu Dec 05 12:42:49 2024,500,-14.111,-14.111,1.545,1.545,5.762,37.575,22.868,24.578,84.592,79.300,8.696,74.599,64.618,13.559,6.415,13.747
Thu Dec 05 12:42:49 2024,505,-13.911,-13.911,1.441,1.441,5.756,37.358,22.744,24.315,83.568,77.898,8.019,73.398,62.817,13.640,6.348,13.408
Thu Dec 05 12:42:49 2024,510,-13.701,-13.701,1.338,1.338,5.768,37.151,22.615,24.096,82.559,76.519,7.386,72.221,61.026,13.729,6.268,13.107
Thu Dec 05 12:42:49 2024,515,-13.523,-13.523,1.264,1.264,5.813,37.017,22.510,23.996,81.822,75.529,6.937,71.376,59.699,13.808,6.192,12.949
Thu Dec 05 12:42:49 2024,520,-13.300,-13.300,1.173,1.173,5.862,36.864,22.395,23.866,80.961,74.382,6.511,70.399,58.174,13.896,6.106,12.750
Thu Dec 05 12:42:49 2024,525,-13.025,-13.025,1.067,1.067,5.868,36.790,22.369,23.565,80.341,73.624,-6.304,69.727,57.181,13.917,6.084,12.474
Thu Dec 05 12:42:49 2024,530,-12.749,-12.749,0.960,0.960,5.869,36.699,22.314,23.276,79.691,72.842,-6.205,69.026,56.175,13.927,6.073,12.207
Thu Dec 05 12:42:49 2024,535,-12.448,-12.448,0.827,0.827,5.812,36.402,21.891,23.031,78.644,71.735,-5.898,67.858,55.034,13.781,6.218,11.964
Thu Dec 05 12:42:49 2024,540,-12.177,-12.177,0.707,0.707,5.761,36.132,21.506,22.827,77.697,70.720,-5.634,66.796,53.993,13.648,6.349,11.754
Thu Dec 05 12:42:49 2024,545,-11.949,-11.949,0.579,0.579,5.726,35.632,20.945,22.576,75.492,68.276,-4.774,64.073,51.102,13.635,6.338,11.413
Thu Dec 05 12:42:49 2024,550,-11.750,-11.750,0.454,0.454,5.699,35.063,20.348,22.379,72.900,65.343,4.028,60.829,47.672,13.672,6.242,11.057
Thu Dec 05 12:42:49 2024,555,-11.478,-11.478,0.522,0.522,5.472,34.326,19.384,22.832,68.417,57.630,3.232,56.440,41.421,13.374,6.366,10.617
Thu Dec 05 12:42:49 2024,560,-11.215,-11.215,0.656,0.656,5.197,33.614,18.438,23.479,64.044,50.107,2.559,52.268,36.051,12.983,6.473,10.251
Thu Dec 05 12:42:49 2024,565,-10.927,-10.927,0.586,0.586,4.980,33.355,17.852,22.737,61.656,46.079,2.014,49.335,32.252,12.760,6.540,9.655
Thu Dec 05 12:42:49 2024,570,-10.573,-10.573,-0.443,0.443,4.762,33.359,17.386,20.986,60.020,43.130,-1.653,46.759,28.597,12.605,6.641,8.780
Thu Dec 05 12:42:49 2024,575,-10.359,-10.359,-0.539,0.539,4.823,33.536,17.256,18.918,57.241,39.920,-1.424,44.567,26.280,12.632,6.477,8.294
Thu Dec 05 12:42:49 2024,580,-10.311,-10.311,-0.811,0.811,5.303,33.994,17.599,16.194,52.496,35.823,1.168,42.419,24.984,12.921,5.882,8.270
Thu Dec 05 12:42:49 2024,585,-10.266,-10.266,-1.036,1.036,5.788,34.441,17.604,14.397,49.147,32.545,1.280,40.594,23.491,13.171,5.367,7.883
Thu Dec 05 12:42:49 2024,590,-10.208,-10.208,-1.215,1.215,6.504,35.058,16.545,13.865,47.646,28.654,1.392,38.735,20.378,13.449,4.899,6.287
Thu Dec 05 12:42:49 2024,595,-10.171,-10.171,-1.365,1.365,7.088,35.561,15.691,13.462,46.486,25.722,1.510,37.272,17.966,13.672,4.518,5.095
Thu Dec 05 12:42:49 2024,600,-10.385,-10.385,-1.386,1.386,7.105,35.090,14.993,12.915,43.561,22.700,1.180,35.508,16.528,13.778,4.357,4.741
Thu Dec 05 12:42:49 2024,605,-10.610,-10.610,-1.411,1.411,7.150,34.699,14.362,12.382,40.976,20.125,0.963,33.799,15.165,13.896,4.171,4.384
Thu Dec 05 12:42:49 2024,610,-10.954,-10.954,-1.399,1.399,7.238,34.408,13.860,11.786,38.697,18.550,1.114,31.948,13.926,14.066,3.891,4.082
Thu Dec 05 12:42:49 2024,615,-11.353,-11.353,-1.367,1.367,7.315,34.102,13.398,11.087,36.364,17.129,1.361,29.973,12.690,14.237,3.595,3.802
Thu Dec 05 12:42:49 2024,620,-11.763,-11.763,-1.238,1.238,7.227,33.699,13.258,10.177,34.163,16.322,1.779,28.145,11.780,14.257,3.501,3.743
Thu Dec 05 12:42:49 2024,625,-12.094,-12.094,-1.114,1.114,7.120,33.358,13.218,9.399,32.461,15.803,2.135,26.793,11.150,14.241,3.468,3.742
Thu Dec 05 12:42:49 2024,630,-12.533,-12.533,-0.835,0.835,6.948,33.049,13.180,8.137,29.877,15.033,2.551,25.313,10.575,14.121,3.692,3.936
Thu Dec 05 12:42:49 2024,635,-12.895,-4.196,-0.588,0.588,6.797,32.844,13.155,7.013,27.777,14.337,2.868,24.356,10.195,13.992,3.961,4.163
Thu Dec 05 12:42:49 2024,640,-13.215,13.215,-0.398,0.398,6.473,32.418,13.000,5.832,22.281,13.556,3.115,23.681,9.891,13.912,4.213,4.383
Thu Dec 05 12:42:49 2024,645,-13.438,13.438,-0.337,-0.337,6.073,31.897,12.772,4.844,15.115,12.875,3.259,21.162,9.696,13.887,4.401,4.554
Thu Dec 05 12:42:49 2024,650,-13.694,13.694,-0.370,-0.370,5.620,31.230,12.397,3.905,15.634,12.273,3.337,16.660,9.539,13.907,4.584,4.740
Thu Dec 05 12:42:49 2024,655,-13.908,13.908,-0.405,-0.405,5.248,30.594,11.963,3.332,15.686,11.954,3.310,16.632,9.478,13.977,4.700,4.889
Thu Dec 05 12:42:49 2024,660,-14.122,14.122,-0.451,-0.451,4.940,30.016,11.605,2.859,15.573,11.677,3.283,16.536,9.423,14.028,4.796,4.998
Thu Dec 05 12:42:49 2024,665,-14.368,14.368,-0.505,-0.505,4.746,29.488,11.375,2.572,15.445,11.473,3.246,16.453,9.380,14.041,4.872,5.023
Thu Dec 05 12:42:49 2024,670,-14.572,14.572,-0.549,-0.549,4.551,29.038,11.188,2.323,15.348,11.313,3.170,16.412,9.325,14.000,4.986,5.047
Thu Dec 05 12:42:49 2024,675,-14.723,14.723,-0.584,-0.584,4.235,28.585,11.035,2.059,15.427,11.199,2.907,16.558,9.200,13.737,5.317,5.080
Thu Dec 05 12:42:49 2024,680,-14.846,14.846,-0.614,-0.614,3.963,28.211,10.911,1.847,15.498,11.112,2.672,16.687,9.097,13.499,5.619,5.118
Thu Dec 05 12:42:49 2024,685,-14.919,14.919,-0.644,-0.644,3.745,27.973,10.838,1.793,15.614,11.099,2.434,16.950,9.070,13.231,6.037,5.252
Thu Dec 05 12:42:49 2024,690,-14.990,14.990,-0.675,-0.675,3.536,27.748,10.768,1.742,15.725,11.087,2.210,17.199,9.046,12.980,6.421,5.386
Thu Dec 05 12:42:49 2024,695,-14.993,14.993,-0.723,-0.723,3.319,27.428,10.649,1.724,15.750,11.087,2.052,17.333,9.014,12.738,6.760,5.460
Thu Dec 05 12:42:49 2024,700,-14.982,14.982,-0.773,-0.773,3.110,27.104,10.527,1.715,15.756,11.088,1.916,17.433,8.983,12.513,7.065,5.516
Thu Dec 05 12:42:49 2024,705,-15.000,15.000,-0.795,-0.795,2.950,26.768,10.386,1.568,15.525,10.888,1.724,17.384,8.819,12.349,7.271,5.490
Thu Dec 05 12:42:49 2024,710,-15.026,15.026,-0.826,-0.826,2.841,26.488,10.272,1.364,15.170,10.676,1.516,17.182,8.660,12.287,7.350,5.474
Thu Dec 05 12:42:49 2024,715,-15.052,15.052,-0.857,-0.857,2.732,26.208,10.159,1.161,14.815,10.463,1.309,16.981,8.501,12.225,7.430,5.457
Thu Dec 05 12:42:49 2024,720,-15.069,15.069,-0.955,-0.955,2.626,25.934,10.069,0.915,14.353,10.358,1.051,16.621,8.436,12.274,7.396,5.547
Thu Dec 05 12:42:49 2024,725,-15.127,15.127,-1.012,-1.012,2.493,25.636,9.972,0.597,13.839,10.203,0.799,16.233,8.371,12.370,7.308,5.631
Thu Dec 05 12:42:49 2024,730,-15.238,15.238,-1.010,-1.010,2.328,25.317,9.869,0.218,13.271,9.989,0.570,15.854,8.305,12.526,7.148,5.705
Thu Dec 05 12:42:49 2024,735,-15.314,15.314,-1.006,-1.006,2.185,24.969,9.750,-0.255,12.644,9.763,0.349,15.369,8.214,12.674,6.984,5.788
Thu Dec 05 12:42:49 2024,740,-15.313,15.313,-1.002,-1.002,2.112,24.658,9.632,-0.535,12.097,9.570,0.196,14.848,8.102,12.774,6.852,5.869
Thu Dec 05 12:42:49 2024,745,-15.312,15.312,-0.993,-0.993,2.026,24.346,9.511,-0.861,11.534,9.355,0.008,14.382,7.996,12.878,6.722,5.948
Thu Dec 05 12:42:49 2024,750,-15.313,15.313,-0.966,-0.966,1.918,24.130,9.415,-1.204,11.126,9.130,-0.138,14.300,7.942,12.962,6.647,5.994
Thu Dec 05 12:42:49 2024,755,-15.317,15.317,-0.938,-0.938,1.809,23.907,9.320,-1.582,10.661,8.880,-0.276,14.213,7.876,13.039,6.579,6.040
Thu Dec 05 12:42:49 2024,760,-15.326,15.326,-0.924,-0.924,1.758,23.795,9.288,-1.850,10.298,8.697,-0.389,14.150,7.806,13.043,6.577,6.053
Thu Dec 05 12:42:49 2024,765,-15.339,15.339,-0.910,-0.910,1.709,23.683,9.259,-2.141,9.894,8.495,-0.516,14.079,7.725,13.038,6.584,6.063
Thu Dec 05 12:42:49 2024,770,-15.308,15.308,-0.832,-0.832,1.669,23.702,9.243,-2.261,9.666,8.381,-0.603,14.172,7.721,12.956,6.657,6.025
Thu Dec 05 12:42:49 2024,775,-15.284,15.284,-0.789,-0.789,1.645,23.714,9.250,-2.292,9.581,8.349,-0.660,14.296,7.755,12.900,6.704,5.999
Thu Dec 05 12:42:49 2024,780,-15.262,15.262,-0.773,-0.773,1.622,23.706,9.282,-2.271,9.579,8.378,-0.719,14.488,7.832,12.857,6.736,5.983
Thu Dec 05 12:42:49 2024,785,-15.239,15.239,-0.756,-0.756,1.600,23.699,9.315,-2.250,9.577,8.407,-0.777,14.679,7.908,12.814,6.768,5.967
Thu Dec 05 12:42:49 2024,790,-15.216,15.216,-0.740,-0.740,1.578,23.692,9.348,-2.228,9.575,8.435,-0.836,14.870,7.985,12.771,6.800,5.950
Thu Dec 05 12:42:49 2024,795,-15.194,15.194,-0.723,-0.723,1.555,23.684,9.380,-2.207,9.573,8.464,-0.894,15.061,8.062,12.728,6.832,5.934
Thu Dec 05 12:42:49 2024,800,-15.227,15.227,-0.710,-0.710,1.539,23.642,9.403,-2.159,9.589,8.514,-0.973,15.211,8.153,12.733,6.828,5.960
Thu Dec 05 12:42:49 2024,805,-15.261,15.261,-0.669,-0.669,1.530,23.581,9.401,-2.118,9.593,8.535,-1.066,15.397,8.244,12.772,6.818,6.052
Thu Dec 05 12:42:49 2024,810,-15.294,15.294,-0.629,-0.629,1.521,23.522,9.400,-2.078,9.598,8.555,-1.156,15.574,8.331,12.811,6.808,6.140
Thu Dec 05 12:42:49 2024,815,-15.341,15.341,-0.683,-0.683,1.483,23.476,9.439,-2.117,9.478,8.577,-1.164,15.605,8.399,12.909,6.672,6.087
Thu Dec 05 12:42:49 2024,820,-15.392,15.392,-0.756,-0.756,1.437,23.431,9.487,-2.173,9.332,8.599,-1.154,15.608,8.464,13.019,6.508,6.005
Thu Dec 05 12:42:49 2024,825,-15.460,15.460,-0.730,-0.730,1.415,23.347,9.443,-2.405,8.978,8.404,-1.077,15.563,8.411,13.167,6.313,5.923
Thu Dec 05 12:42:49 2024,830,-15.497,15.497,-0.707,-0.707,1.357,23.238,9.384,-2.638,8.623,8.224,-1.031,15.533,8.359,13.294,6.139,5.830
Thu Dec 05 12:42:49 2024,835,-15.486,15.486,-0.671,-0.671,1.251,23.088,9.284,-2.901,8.235,8.028,-1.013,15.511,8.283,13.387,5.997,5.717
Thu Dec 05 12:42:49 2024,840,-15.475,15.475,-0.634,-0.634,1.144,22.938,9.184,-3.163,7.847,7.831,-0.995,15.489,8.207,13.481,5.855,5.604
Thu Dec 05 12:42:49 2024,845,-15.471,15.471,-0.579,-0.579,1.109,22.822,9.142,-3.383,7.480,7.635,-0.950,15.439,8.091,13.577,5.681,5.450
Thu Dec 05 12:42:49 2024,850,-15.470,15.470,-0.522,-0.522,1.093,22.718,9.116,-3.586,7.129,7.444,-0.900,15.382,7.970,13.672,5.500,5.296
Thu Dec 05 12:42:49 2024,855,-15.490,15.490,-0.481,-0.481,1.033,22.675,9.054,-3.792,6.899,7.228,-0.920,15.411,7.846,13.672,5.467,5.224
Thu Dec 05 12:42:49 2024,860,-15.512,15.512,-0.448,-0.448,0.973,22.649,8.994,-3.975,6.715,7.034,-0.949,15.451,7.738,13.656,5.462,5.173
Thu Dec 05 12:42:49 2024,865,-15.547,15.547,-0.442,-0.442,0.946,22.641,9.028,-4.044,6.669,7.041,-0.954,15.612,7.789,13.669,5.439,5.149
Thu Dec 05 12:42:49 2024,870,-15.582,15.582,-0.450,-0.450,0.944,22.646,9.103,-4.041,6.710,7.147,-0.951,15.838,7.915,13.696,5.411,5.142
Thu Dec 05 12:42:49 2024,875,-15.596,15.596,-0.452,-0.452,0.957,22.658,9.140,-4.018,6.777,7.216,-0.962,16.103,8.016,13.717,5.401,5.134
Thu Dec 05 12:42:49 2024,880,-15.577,15.577,-0.446,-0.446,0.981,22.677,9.110,-3.987,6.847,7.196,-0.994,16.341,8.039,13.723,5.418,5.125
Thu Dec 05 12:42:49 2024,885,-15.590,15.590,-0.420,-0.420,1.000,22.679,9.103,-3.956,6.920,7.202,-1.039,16.599,8.090,13.722,5.420,5.097
Thu Dec 05 12:42:49 2024,890,-15.647,15.647,-0.370,-0.370,1.010,22.657,9.128,-3.931,6.993,7.245,-1.097,16.869,8.177,13.710,5.403,5.045
Thu Dec 05 12:42:49 2024,895,-15.675,15.675,-0.359,-0.359,1.016,22.652,9.166,-3.894,7.054,7.290,-1.142,17.068,8.258,13.719,5.381,5.021
Thu Dec 05 12:42:49 2024,900,-15.682,15.682,-0.386,-0.386,1.019,22.660,9.230,-3.832,7.125,7.350,-1.184,17.266,8.359,13.755,5.348,5.018
Thu Dec 05 12:42:49 2024,905,-15.678,15.678,-0.417,-0.417,1.029,22.700,9.272,-3.745,7.260,7.416,-1.223,17.449,8.439,13.835,5.266,5.015
Thu Dec 05 12:42:49 2024,910,-15.666,15.666,-0.434,-0.434,1.047,22.774,9.270,-3.639,7.475,7.480,-1.257,17.620,8.481,13.967,5.117,4.998
Thu Dec 05 12:42:49 2024,915,-15.650,15.650,-0.441,-0.441,1.062,22.845,9.247,-3.552,7.664,7.523,-1.294,17.738,8.498,14.108,4.954,4.979
Thu Dec 05 12:42:49 2024,920,-15.605,15.605,-0.399,-0.399,1.041,22.862,9.174,-3.561,7.630,7.461,-1.427,17.699,8.455,14.358,4.643,4.948
Thu Dec 05 12:42:49 2024,925,-15.562,15.562,-0.356,-0.356,1.016,22.866,9.103,-3.589,7.557,7.388,-1.555,17.631,8.408,14.585,4.358,4.921
Thu Dec 05 12:42:49 2024,930,-15.478,15.478,-0.416,-0.416,1.024,22.953,9.160,-3.654,7.469,7.419,-1.707,17.504,8.392,14.863,3.993,4.927
Thu Dec 05 12:42:49 2024,935,-15.413,15.413,-0.474,-0.474,1.034,23.026,9.218,-3.704,7.405,7.456,-1.816,17.407,8.386,15.064,3.728,4.936
Thu Dec 05 12:42:49 2024,940,-15.343,15.343,-0.511,-0.511,1.006,23.146,9.280,-3.769,7.387,7.491,-1.856,17.513,8.477,15.324,3.411,4.949
Thu Dec 05 12:42:49 2024,945,-15.278,15.278,-0.526,-0.526,0.967,23.268,9.339,-3.824,7.390,7.519,-1.848,17.702,8.606,15.563,3.127,4.967
Thu Dec 05 12:42:49 2024,950,-15.212,15.212,-0.517,-0.517,0.931,23.373,9.402,-3.850,7.395,7.541,-1.786,17.967,8.767,15.736,2.911,4.996
Thu Dec 05 12:42:49 2024,955,-15.142,15.142,-0.473,-0.473,0.910,23.442,9.478,-3.824,7.395,7.553,-1.646,20.423,8.970,15.799,2.808,5.046
Thu Dec 05 12:42:49 2024,960,-15.146,15.146,-0.432,-0.432,0.907,23.568,9.591,-3.753,7.493,7.588,-1.487,21.502,9.213,15.832,2.750,5.076
Thu Dec 05 12:42:49 2024,965,-15.266,15.266,-0.383,-0.383,0.934,23.831,9.804,-3.588,7.778,7.672,-1.240,21.858,9.613,15.833,2.738,5.088
Thu Dec 05 12:42:49 2024,970,-15.350,15.350,-0.318,-0.318,0.957,23.989,9.966,-3.409,8.026,7.756,-1.030,22.685,9.979,15.802,2.760,5.106
Thu Dec 05 12:42:49 2024,975,-15.443,15.443,-0.214,0.214,0.991,24.125,10.163,-3.118,8.373,7.888,-0.742,24.020,10.512,15.720,2.829,5.143
Thu Dec 05 12:42:49 2024,980,-15.548,15.548,-0.322,0.322,1.024,24.248,10.306,-2.821,8.758,7.991,-0.443,25.507,11.046,15.672,2.882,5.161
Thu Dec 05 12:42:49 2024,985,-15.700,15.700,-0.310,0.572,1.068,24.413,10.437,-2.438,9.287,8.087,-0.037,27.477,11.745,15.655,2.925,5.162
Thu Dec 05 12:42:49 2024,990,-15.853,15.853,0.713,0.859,1.103,24.563,10.529,-2.100,9.743,8.148,0.471,29.269,12.400,15.665,2.938,5.157
Thu Dec 05 12:42:49 2024,995,-15.998,15.998,1.076,1.076,1.118,24.694,10.607,-1.832,9.986,8.167,0.989,30.757,13.047,15.687,2.903,5.170
Thu Dec 05 12:42:50 2024,0,-16.138,16.138,1.267,1.267,1.128,24.816,10.679,-1.587,10.166,8.174,1.501,32.131,13.674,15.712,2.857,5.188
Thu Dec 05 12:42:50 2024,5,-16.184,16.184,1.492,1.492,1.023,24.848,10.609,-1.009,10.676,8.453,2.108,33.836,14.858,15.863,2.771,5.365
Thu Dec 05 12:42:50 2024,10,-16.212,16.212,1.699,1.699,0.913,24.865,10.527,-0.454,11.163,8.743,2.673,35.430,16.020,16.015,2.687,5.551
Thu Dec 05 12:42:50 2024,15,-16.266,16.266,1.854,1.854,0.725,25.317,10.226,0.760,12.179,9.274,3.259,37.565,18.150,16.173,2.712,6.209
Thu Dec 05 12:42:50 2024,20,-16.302,16.302,1.914,1.914,0.562,25.773,9.912,1.841,12.827,9.656,3.766,39.383,20.312,16.215,2.832,7.028
Thu Dec 05 12:42:50 2024,25,-16.318,16.318,1.889,1.889,0.420,26.172,9.588,2.893,13.148,9.837,4.272,40.979,22.548,16.119,3.073,8.014
Thu Dec 05 12:42:50 2024,30,-16.288,16.288,1.687,1.687,0.322,26.455,9.242,3.888,12.841,9.570,4.825,42.148,25.105,15.720,3.590,9.459
Thu Dec 05 12:42:50 2024,35,-16.276,16.276,1.528,1.528,0.287,26.802,9.002,4.642,12.499,9.060,5.907,43.417,27.705,15.197,4.211,10.944
Thu Dec 05 12:42:50 2024,40,-16.290,16.290,1.460,1.460,0.342,27.205,8.934,4.981,12.199,8.295,7.715,44.805,30.277,14.563,4.909,12.309
Thu Dec 05 12:42:50 2024,45,-16.281,16.281,1.574,1.574,0.392,27.539,8.762,5.268,12.062,7.565,9.459,45.799,33.131,13.897,5.576,13.260
Thu Dec 05 12:42:50 2024,50,-16.237,16.237,1.952,1.952,0.429,27.690,8.445,5.416,12.229,6.995,10.610,45.757,35.562,13.301,6.067,13.303
Thu Dec 05 12:42:50 2024,55,-16.146,16.146,2.373,2.373,0.602,27.839,8.245,5.816,12.394,6.718,10.696,42.626,34.700,12.693,6.570,12.961
Thu Dec 05 12:42:50 2024,60,-15.978,15.978,2.815,2.815,1.018,28.002,8.290,6.676,12.462,6.986,8.645,34.001,25.808,12.072,7.120,12.036
Thu Dec 05 12:42:50 2024,65,-15.813,15.813,3.031,3.031,1.576,28.582,8.538,7.712,11.968,7.321,6.014,22.111,14.065,11.282,8.112,11.379
Thu Dec 05 12:42:50 2024,70,-15.679,15.679,2.984,2.984,2.164,29.499,8.903,8.731,11.260,7.541,3.790,15.134,6.444,10.385,9.387,11.112
Thu Dec 05 12:42:50 2024,75,-15.582,15.582,2.676,2.676,2.824,30.847,9.428,9.806,10.120,7.649,1.954,14.094,3.990,9.311,10.676,11.168
Thu Dec 05 12:42:50 2024,80,-15.223,15.223,2.545,2.545,3.250,31.571,9.730,10.270,9.624,7.336,2.406,14.534,3.629,8.486,11.441,10.672
Thu Dec 05 12:42:50 2024,85,-14.877,14.877,-2.462,2.462,3.597,32.116,9.968,10.592,9.295,7.006,3.126,14.971,3.476,7.809,12.019,10.183
Thu Dec 05 12:42:50 2024,90,-14.712,14.712,-0.834,2.915,4.189,32.354,10.407,11.051,8.781,7.486,2.386,16.207,4.464,7.026,27.463,10.342
Thu Dec 05 12:42:50 2024,95,-14.650,14.650,3.490,3.490,4.755,32.445,10.836,11.473,8.285,8.209,1.271,17.494,5.666,6.357,27.180,10.735
Thu Dec 05 12:42:50 2024,100,-14.774,14.774,4.066,4.066,5.308,32.860,11.242,11.984,32.476,9.075,-0.314,18.761,6.873,5.904,27.450,11.288
Thu Dec 05 12:42:50 2024,105,-14.960,14.960,4.560,4.560,5.779,33.364,11.585,12.466,33.316,9.892,-1.848,21.847,7.881,5.615,28.044,11.841
Thu Dec 05 12:42:50 2024,110,-15.094,15.094,5.043,5.043,6.184,33.840,11.822,13.025,34.340,10.650,-3.432,23.743,8.978,5.302,28.886,12.528
Thu Dec 05 12:42:50 2024,115,-15.182,15.182,5.549,5.549,6.550,34.320,11.968,13.701,35.618,11.392,-5.200,26.275,10.220,4.930,30.040,13.407
Thu Dec 05 12:42:50 2024,120,-15.266,15.266,5.978,5.978,6.847,34.689,12.102,14.245,36.804,12.032,-6.407,28.375,11.221,4.567,31.152,14.189
Thu Dec 05 12:42:50 2024,125,-15.349,15.349,6.297,6.297,7.040,34.876,12.221,14.591,37.841,12.528,-6.739,29.832,12.001,4.206,32.117,14.855
Thu Dec 05 12:42:50 2024,130,-15.417,15.417,6.590,6.590,7.214,35.025,12.348,14.926,38.978,13.073,-6.968,31.278,12.745,3.890,33.254,15.633
Thu Dec 05 12:42:50 2024,135,-15.407,15.407,6.722,6.722,7.279,34.992,12.481,15.171,40.204,13.762,-6.833,32.259,13.505,3.873,34.759,16.703
Thu Dec 05 12:42:50 2024,140,-15.375,15.375,6.823,6.823,7.280,34.900,12.602,15.378,41.377,14.334,-6.665,33.268,14.266,3.723,36.238,17.884
Thu Dec 05 12:42:50 2024,145,-15.294,15.294,6.848,6.848,7.128,34.664,12.690,15.502,42.305,14.652,-6.406,34.266,15.170,3.273,37.586,19.274
Thu Dec 05 12:42:50 2024,150,-15.202,15.202,6.860,6.860,6.934,34.396,12.744,15.613,43.198,14.883,-6.140,35.348,16.114,2.799,38.973,20.725
Thu Dec 05 12:42:50 2024,155,-15.096,15.096,6.866,6.866,6.664,34.126,12.593,15.780,43.925,14.853,-5.932,36.523,16.910,2.678,40.343,21.947
Thu Dec 05 12:42:50 2024,160,-14.996,14.996,6.869,6.869,6.394,33.873,12.406,15.945,44.570,14.768,-5.758,37.674,17.652,2.638,41.622,23.041
Thu Dec 05 12:42:50 2024,165,-14.873,14.873,6.992,6.992,6.190,33.688,12.241,16.120,44.980,14.479,-5.711,38.966,18.391,2.632,42.875,24.245
Thu Dec 05 12:42:50 2024,170,-14.767,14.767,7.122,7.122,6.035,33.552,12.110,16.269,45.264,14.192,-5.706,40.090,19.032,2.638,43.919,25.298
Thu Dec 05 12:42:50 2024,175,-14.656,14.656,7.210,7.210,5.876,33.562,12.168,16.479,45.712,14.052,-5.743,41.926,20.342,2.922,45.546,26.952
Thu Dec 05 12:42:50 2024,180,-14.577,14.577,7.247,7.247,5.763,33.657,12.320,16.660,46.118,14.040,-5.816,43.633,21.672,3.282,47.026,28.484
Thu Dec 05 12:42:50 2024,185,-14.454,14.454,7.198,7.198,5.719,33.983,12.668,16.810,46.664,14.215,-5.839,45.899,23.871,3.749,49.124,30.867
Thu Dec 05 12:42:50 2024,190,-14.346,14.346,7.102,7.102,5.744,34.362,13.033,16.876,47.105,14.467,-5.826,47.726,25.911,4.119,50.887,33.028
Thu Dec 05 12:42:50 2024,195,-14.234,14.234,6.993,6.993,5.761,34.795,13.449,16.889,47.579,14.717,-5.820,49.814,28.234,4.489,52.716,35.460
Thu Dec 05 12:42:50 2024,200,-14.127,14.127,6.867,6.867,5.766,35.279,13.916,16.799,48.063,14.933,-5.809,52.132,30.798,4.820,54.450,38.116
Thu Dec 05 12:42:50 2024,205,-14.022,14.022,6.754,6.754,5.776,35.738,14.385,16.714,48.553,15.192,-5.799,54.401,33.412,5.216,56.254,40.981
Thu Dec 05 12:42:50 2024,210,-13.913,13.913,6.674,6.674,5.832,36.156,14.924,16.658,49.130,15.674,-5.559,56.688,36.535,5.936,58.560,44.643
Thu Dec 05 12:42:50 2024,215,-13.823,13.823,6.599,6.599,5.879,36.534,15.438,16.598,49.675,16.175,-5.459,58.865,39.326,6.604,60.698,48.131
Thu Dec 05 12:42:50 2024,220,-13.790,13.790,6.529,6.529,5.919,36.834,15.969,16.529,50.214,16.875,-5.554,60.976,41.476,7.130,62.604,51.010
Thu Dec 05 12:42:50 2024,225,-13.755,13.755,6.460,6.460,5.939,37.107,16.468,16.473,50.772,17.566,-5.780,62.986,43.433,7.600,64.453,53.885
Thu Dec 05 12:42:50 2024,230,-13.693,13.693,6.371,6.371,5.888,37.352,16.966,16.465,51.541,18.347,-6.296,65.136,45.585,7.893,66.564,57.395
Thu Dec 05 12:42:50 2024,235,-13.628,13.628,6.284,6.284,5.815,37.564,17.419,16.470,52.321,19.101,-6.904,67.138,47.594,8.134,68.598,60.874
Thu Dec 05 12:42:50 2024,240,-13.491,13.491,6.268,6.268,5.709,37.464,17.771,16.282,52.343,19.832,-7.381,68.027,49.089,8.016,69.934,64.033
Thu Dec 05 12:42:50 2024,245,-13.347,13.347,6.274,6.274,5.603,37.284,18.073,16.053,52.154,20.513,-7.793,68.544,50.352,7.858,70.997,66.894
Thu Dec 05 12:42:50 2024,250,-13.245,13.245,6.346,6.346,5.303,37.006,18.281,15.628,51.847,20.884,-7.975,69.523,52.677,7.646,72.072,70.454
Thu Dec 05 12:42:50 2024,255,-13.197,13.197,6.421,6.421,5.040,36.796,18.374,15.284,51.610,20.993,-8.011,70.325,54.610,7.560,72.759,72.967
Thu Dec 05 12:42:50 2024,260,-13.011,13.011,6.401,6.401,4.740,36.459,18.310,14.812,51.142,20.938,-7.868,70.810,57.177,7.390,73.122,75.754
Thu Dec 05 12:42:50 2024,265,-12.778,12.778,6.300,6.300,4.558,36.168,18.115,14.452,50.677,20.737,-7.611,70.708,59.086,7.240,72.960,77.406
Thu Dec 05 12:42:50 2024,270,-12.641,12.337,6.219,6.219,4.554,36.014,17.978,14.245,50.277,20.656,-7.332,70.085,59.377,7.177,72.023,77.248
Thu Dec 05 12:42:50 2024,275,-12.585,11.774,6.159,6.159,4.684,35.977,17.896,14.170,49.961,20.673,-7.054,69.124,58.403,7.153,70.582,75.734
Thu Dec 05 12:42:50 2024,280,-12.529,11.212,6.099,6.099,4.814,35.939,17.813,14.095,49.644,20.689,-6.777,68.163,57.429,7.128,69.141,74.220
Thu Dec 05 12:42:50 2024,285,-12.473,10.649,6.039,6.039,4.945,35.902,17.730,14.020,49.327,20.706,-6.499,67.203,56.454,7.104,67.700,72.705
Thu Dec 05 12:42:50 2024,290,-12.417,10.087,5.979,5.979,5.075,35.865,17.648,13.945,49.011,20.722,-6.222,66.242,55.480,7.079,66.259,71.191
Thu Dec 05 12:42:50 2024,295,-12.362,9.524,5.919,5.919,5.205,35.828,17.565,13.869,48.694,20.739,-5.944,65.282,54.506,7.055,64.818,69.676
Thu Dec 05 12:42:50 2024,300,-12.306,8.962,5.859,5.859,5.335,35.791,17.482,13.794,48.378,20.755,-5.667,64.321,53.532,7.031,63.377,68.162
Thu Dec 05 12:42:50 2024,305,-12.250,8.399,5.800,5.800,5.465,35.754,17.400,13.719,48.061,20.772,-5.389,63.361,52.557,7.006,61.936,66.648
Thu Dec 05 12:42:50 2024,310,-12.194,7.837,5.740,5.740,5.595,35.717,17.317,13.644,47.745,20.789,-5.112,62.400,51.583,6.982,60.495,65.133
Thu Dec 05 12:42:50 2024,315,-12.139,7.274,5.680,5.680,5.725,35.680,17.234,13.569,47.428,20.805,-4.835,61.439,50.609,6.957,59.054,63.619
Thu Dec 05 12:42:50 2024,320,-12.083,6.712,5.620,5.620,5.856,35.643,17.152,13.494,47.112,20.822,-4.557,60.479,49.634,6.933,57.613,62.104
Thu Dec 05 12:42:50 2024,325,-12.027,6.149,5.560,5.560,5.986,35.605,17.069,13.419,46.795,20.838,-4.280,59.518,48.660,6.908,56.172,60.590
Thu Dec 05 12:42:50 2024,330,-11.971,5.587,5.500,5.500,6.116,35.568,16.986,13.344,46.479,20.855,-4.002,58.558,47.686,6.884,54.731,59.076
Thu Dec 05 12:42:50 2024,335,-11.915,5.024,5.440,5.440,6.246,35.531,16.904,13.269,46.162,20.872,-3.725,57.597,46.711,6.859,53.290,57.561
Thu Dec 05 12:42:50 2024,340,-11.860,4.462,5.380,5.380,6.376,35.494,16.821,13.194,45.846,20.888,-3.447,56.636,45.737,6.835,51.849,56.047
Thu Dec 05 12:42:50 2024,345,-11.804,3.900,5.320,5.320,6.506,35.457,16.738,13.118,45.529,20.905,-3.170,55.676,44.763,6.810,50.408,54.533
Thu Dec 05 12:42:50 2024,350,-11.748,3.337,5.260,5.260,6.636,35.420,16.655,13.043,45.212,20.921,-2.893,54.715,43.788,6.786,48.967,53.018
Thu Dec 05 12:42:50 2024,355,-11.692,2.775,5.200,5.200,6.767,35.383,16.573,12.968,44.896,20.938,-2.615,53.755,42.814,6.761,47.526,51.504
Thu Dec 05 12:42:50 2024,360,-11.636,2.212,5.140,5.140,6.897,35.346,16.490,12.893,44.579,20.954,-2.338,52.794,41.840,6.737,46.085,49.989
Thu Dec 05 12:42:50 2024,365,-11.581,1.650,5.080,5.080,7.027,35.308,16.407,12.818,44.263,20.971,-2.060,51.834,40.865,6.713,44.644,48.475
Thu Dec 05 12:42:50 2024,370,-11.525,1.087,5.021,5.021,7.157,35.271,16.325,12.743,43.946,20.988,-1.783,50.873,39.891,6.688,43.203,46.961
Thu Dec 05 12:42:50 2024,375,-11.469,0.525,4.961,4.961,7.287,35.234,16.242,12.668,43.630,21.004,-1.505,49.912,38.917,6.664,41.762,45.446
Thu Dec 05 12:42:50 2024,380,-11.413,-0.038,4.901,4.901,7.417,35.197,16.159,12.593,43.313,21.021,-1.228,48.952,37.942,6.639,40.321,43.932
Thu Dec 05 12:42:50 2024,385,-11.358,-0.600,4.841,4.841,7.547,35.160,16.077,12.518,42.997,21.037,-0.950,47.991,36.968,6.615,38.880,42.417
Thu Dec 05 12:42:50 2024,390,-11.302,-1.163,4.781,4.781,7.678,35.123,15.994,12.443,42.680,21.054,-0.673,47.031,35.994,6.590,37.439,40.903
Thu Dec 05 12:42:50 2024,395,-11.246,-1.725,4.721,4.721,7.808,35.086,15.911,12.368,42.364,21.071,-0.396,46.070,35.019,6.566,35.998,39.389
Thu Dec 05 12:42:50 2024,400,-11.190,-2.288,4.661,4.661,7.938,35.049,15.829,12.292,42.047,21.087,-0.118,45.109,34.045,6.541,34.557,37.874
Thu Dec 05 12:42:50 2024,405,-11.134,-2.850,4.601,4.601,8.068,35.011,15.746,12.217,41.731,21.104,0.159,44.149,33.071,6.517,33.116,36.360
Thu Dec 05 12:42:50 2024,410,-11.079,-3.412,4.541,4.541,8.198,34.974,15.663,12.142,41.414,21.120,0.437,43.188,32.097,6.492,31.675,34.845
Thu Dec 05 12:42:50 2024,415,-11.023,-3.975,4.481,4.481,8.328,34.937,15.581,12.067,41.098,21.137,0.714,42.228,31.122,6.468,30.234,33.331
Thu Dec 05 12:42:50 2024,420,-10.967,-4.537,4.421,4.421,8.458,34.900,15.498,11.992,40.781,21.154,0.992,41.267,30.148,6.443,28.793,31.817
Thu Dec 05 12:42:50 2024,425,-10.911,-5.100,4.361,4.361,8.589,34.863,15.415,11.917,40.464,21.170,1.269,40.307,29.174,6.419,27.352,30.302
Thu Dec 05 12:42:50 2024,430,-10.856,-5.662,4.301,4.301,8.719,34.826,15.333,11.842,40.148,21.187,1.547,39.346,28.199,6.394,25.911,28.788
Thu Dec 05 12:42:50 2024,435,-10.800,-6.225,4.241,4.241,8.849,34.789,15.250,11.767,39.831,21.203,1.824,38.385,27.225,6.370,24.470,27.273
Thu Dec 05 12:42:50 2024,440,-10.744,-6.787,4.182,4.182,8.979,34.752,15.167,11.692,39.515,21.220,2.101,37.425,26.251,6.346,23.029,25.759
Thu Dec 05 12:42:50 2024,445,-10.688,-7.350,4.122,4.122,9.109,34.714,15.084,11.617,39.198,21.236,2.379,36.464,25.276,6.321,21.588,24.245
Thu Dec 05 12:42:50 2024,450,-10.632,-7.912,4.062,4.062,9.239,34.677,15.002,11.541,38.882,21.253,2.656,35.504,24.302,6.297,20.147,22.730
Thu Dec 05 12:42:50 2024,455,-10.577,-8.475,4.002,4.002,9.370,34.640,14.919,11.466,38.565,21.270,2.934,34.543,23.328,6.272,18.706,21.216
Thu Dec 05 12:42:50 2024,460,-10.521,-9.037,3.942,3.942,9.500,34.603,14.836,11.391,38.249,21.286,3.211,33.582,22.353,6.248,17.265,19.702
Thu Dec 05 12:42:50 2024,465,-10.465,-9.600,3.882,3.882,9.630,34.566,14.754,11.316,37.932,21.303,3.489,32.622,21.379,6.223,15.824,18.187
Thu Dec 05 12:42:50 2024,470,-10.409,-10.162,3.822,3.822,9.760,34.529,14.671,11.241,37.616,21.319,3.766,31.661,20.405,6.199,14.383,16.673
Thu Dec 05 12:42:50 2024,475,-10.387,-10.387,3.798,3.798,9.812,34.514,14.638,11.211,37.489,21.326,3.877,31.277,20.015,6.189,13.807,16.067
Thu Dec 05 12:42:50 2024,480,-10.387,-10.387,3.798,3.798,9.812,34.514,14.638,11.211,37.489,21.326,3.877,31.277,20.015,6.189,13.807,16.067
Thu Dec 05 12:42:50 2024,485,-10.843,-10.843,3.854,3.854,9.721,34.743,14.776,11.707,37.301,20.473,3.871,31.678,18.925,6.325,13.675,14.161
Thu Dec 05 12:42:50 2024,490,-11.674,11.674,3.959,3.959,9.572,35.142,15.020,12.474,37.038,19.062,3.876,32.345,17.187,6.554,13.444,11.101
Thu Dec 05 12:42:50 2024,495,-12.522,12.522,0.109,3.888,9.483,35.572,15.294,12.707,36.683,17.931,3.650,32.438,15.740,6.900,13.084,9.164
Thu Dec 05 12:42:50 2024,500,-13.135,13.135,-3.644,3.644,9.476,35.919,15.520,12.391,36.268,17.335,3.226,31.931,14.868,7.282,12.685,8.711
Thu Dec 05 12:42:50 2024,505,-13.757,13.757,-3.448,3.448,9.451,36.343,15.679,12.088,35.949,16.794,2.908,31.408,13.965,7.624,12.328,8.186
Thu Dec 05 12:42:50 2024,510,-14.250,14.250,-3.393,3.393,9.397,36.824,15.667,11.886,35.898,16.491,2.870,30.942,13.188,7.804,12.147,7.634
Thu Dec 05 12:42:50 2024,515,-14.700,14.700,-3.343,3.343,9.322,37.200,15.609,11.663,35.804,16.233,2.804,30.476,12.515,7.955,11.997,7.147
Thu Dec 05 12:42:50 2024,520,-14.955,14.955,-3.314,3.314,9.215,37.260,15.471,11.449,35.636,16.124,2.706,30.111,12.196,8.014,11.942,6.901
Thu Dec 05 12:42:50 2024,525,-15.209,15.209,-3.293,3.293,9.125,37.317,15.349,11.258,35.470,16.025,2.607,29.764,11.905,8.069,11.894,6.671
Thu Dec 05 12:42:50 2024,530,-15.491,15.491,-3.329,3.329,9.146,37.341,15.333,11.209,35.297,15.986,2.502,29.486,11.760,8.098,11.878,6.523
Thu Dec 05 12:42:50 2024,535,-15.797,15.797,-3.371,3.371,9.166,37.362,15.317,11.154,35.109,15.945,2.381,29.180,11.600,8.130,11.857,6.367
Thu Dec 05 12:42:50 2024,540,-15.879,15.879,-3.426,3.426,9.142,37.294,15.337,11.138,35.045,15.940,2.254,28.998,11.496,8.150,11.838,6.410
Thu Dec 05 12:42:50 2024,545,-15.967,15.967,-3.485,3.485,9.117,37.220,15.359,11.121,34.976,15.936,2.117,28.803,11.386,8.171,11.818,6.455
Thu Dec 05 12:42:50 2024,550,-16.087,16.087,-3.476,3.476,9.195,37.240,15.396,11.132,34.905,15.938,2.079,28.602,11.268,8.290,11.707,6.372
Thu Dec 05 12:42:50 2024,555,-16.204,16.204,-3.444,3.444,9.299,37.290,15.434,11.151,34.844,15.941,2.079,28.426,11.162,8.427,11.573,6.254
Thu Dec 05 12:42:50 2024,560,-16.266,16.266,-3.437,3.437,9.374,37.322,15.455,11.150,34.836,15.974,2.038,28.274,11.109,8.557,11.440,6.155
Thu Dec 05 12:42:50 2024,565,-16.306,16.306,-3.437,3.437,9.434,37.345,15.470,11.143,34.843,16.012,1.990,28.146,11.075,8.671,11.316,6.070
Thu Dec 05 12:42:50 2024,570,-16.325,16.325,-3.428,3.428,9.452,37.383,15.513,11.131,34.791,16.031,1.861,27.967,11.053,8.772,11.194,5.987
Thu Dec 05 12:42:50 2024,575,-16.313,16.313,-3.409,3.409,9.418,37.427,15.577,11.116,34.688,16.022,1.677,27.782,11.050,8.831,11.107,5.931
Thu Dec 05 12:42:50 2024,580,-16.331,16.331,-3.410,3.410,9.394,37.486,15.657,11.017,34.483,16.048,1.463,27.363,11.039,8.918,10.977,5.891
Thu Dec 05 12:42:50 2024,585,-16.377,16.377,-3.434,3.434,9.385,37.551,15.740,10.846,34.204,16.108,1.256,26.768,11.020,9.019,10.826,5.875
Thu Dec 05 12:42:50 2024,590,-16.406,16.406,-3.411,3.411,9.357,37.610,15.834,10.636,33.856,16.169,1.040,26.158,11.025,9.126,10.670,5.914
Thu Dec 05 12:42:50 2024,595,-16.394,16.394,-3.291,3.291,9.292,37.652,15.947,10.353,33.376,16.231,0.816,25.550,11.078,9.242,10.524,6.067
Thu Dec 05 12:42:50 2024,600,-16.392,16.392,-3.177,3.177,9.212,37.692,16.060,10.062,32.895,16.290,0.598,24.931,11.129,9.415,10.327,6.215
Thu Dec 05 12:42:50 2024,605,-16.434,16.434,3.125,3.125,9.106,37.710,16.138,9.828,32.567,16.324,0.462,24.472,11.154,9.744,10.003,6.292
Thu Dec 05 12:42:50 2024,610,-16.470,16.470,3.078,3.078,9.012,37.729,16.206,9.620,32.274,16.352,0.340,24.065,11.177,10.037,9.714,6.361
Thu Dec 05 12:42:50 2024,615,-16.527,16.527,3.060,3.060,8.964,37.722,16.248,9.383,31.847,16.350,0.168,23.687,11.168,10.139,9.574,6.322
Thu Dec 05 12:42:50 2024,620,-16.575,16.575,3.046,3.046,8.927,37.715,16.280,9.187,31.492,16.345,0.034,23.383,11.158,10.212,9.467,6.284
Thu Dec 05 12:42:50 2024,625,-16.680,16.680,3.077,3.077,8.801,37.636,16.317,8.940,31.150,16.343,-0.141,23.164,11.104,10.392,9.291,6.312
Thu Dec 05 12:42:50 2024,630,-16.803,16.803,3.122,3.122,8.646,37.537,16.355,8.673,30.802,16.340,-0.310,22.970,11.038,10.606,9.089,6.360
Thu Dec 05 12:42:50 2024,635,-16.862,16.862,3.125,3.125,8.544,37.437,16.320,8.497,30.507,16.236,-0.494,22.694,10.907,10.720,8.950,6.264
Thu Dec 05 12:42:50 2024,640,-16.895,16.895,3.110,3.110,8.459,37.332,16.253,8.351,30.222,16.087,-0.692,22.388,10.740,10.796,8.828,6.103
Thu Dec 05 12:42:50 2024,645,-16.989,16.989,3.118,3.118,8.387,37.242,16.217,8.209,29.933,15.996,-0.913,22.090,10.588,10.882,8.722,6.043
Thu Dec 05 12:42:50 2024,650,-17.108,17.108,3.136,3.136,8.326,37.166,16.200,8.079,29.665,15.943,-1.130,21.863,10.455,10.968,8.631,6.039
Thu Dec 05 12:42:50 2024,655,-17.220,17.220,3.134,3.134,8.256,37.091,16.170,7.933,29.367,15.861,-1.341,21.711,10.309,11.106,8.485,6.035
Thu Dec 05 12:42:50 2024,660,-17.305,17.305,3.104,3.104,8.187,37.029,16.126,7.790,29.074,15.751,-1.507,21.654,10.168,11.301,8.279,6.034
Thu Dec 05 12:42:50 2024,665,-17.344,17.344,3.108,3.108,8.108,36.952,16.072,7.635,28.774,15.630,-1.687,21.714,10.031,11.458,8.127,6.064
Thu Dec 05 12:42:50 2024,670,-17.304,17.304,3.168,3.168,8.018,36.858,16.004,7.476,28.486,15.505,-1.869,21.868,9.912,11.539,8.075,6.141
Thu Dec 05 12:42:50 2024,675,-17.284,17.284,3.222,3.222,7.914,36.765,15.935,7.273,28.100,15.330,-2.108,19.947,9.766,11.660,7.996,6.291
Thu Dec 05 12:42:50 2024,680,-17.359,17.359,3.190,3.190,7.866,36.771,15.934,7.106,27.724,15.151,-2.321,17.463,9.670,11.811,7.898,6.564
Thu Dec 05 12:42:50 2024,685,-17.426,17.426,3.160,3.160,7.825,36.776,15.928,6.941,27.377,14.972,-2.534,17.024,9.571,11.948,7.804,6.829
Thu Dec 05 12:42:50 2024,690,-17.418,17.418,3.139,3.139,7.853,36.768,15.872,6.801,27.090,14.803,-2.748,16.486,9.425,11.984,7.790,7.020
Thu Dec 05 12:42:50 2024,695,-17.400,17.400,3.120,3.120,7.890,36.759,15.809,6.662,13.173,14.628,-2.968,15.883,9.268,12.006,7.788,7.206
Thu Dec 05 12:42:50 2024,700,-17.439,17.439,3.134,3.134,7.853,36.725,15.802,6.517,13.377,14.475,-3.074,15.618,9.243,12.074,7.750,7.376
Thu Dec 05 12:42:50 2024,705,-17.485,17.485,3.152,3.152,7.806,36.688,15.803,6.370,13.569,14.320,-3.168,15.388,9.234,12.148,7.705,7.549
Thu Dec 05 12:42:50 2024,710,-17.548,17.548,3.207,3.207,7.787,36.702,15.819,6.214,13.764,14.111,-3.252,15.204,9.194,12.198,7.670,7.659
Thu Dec 05 12:42:50 2024,715,-17.603,17.603,3.262,3.262,7.781,36.730,15.836,6.088,13.908,13.928,-3.316,15.072,9.153,12.229,7.646,7.726
Thu Dec 05 12:42:50 2024,720,-17.628,17.628,3.290,3.290,7.765,36.709,15.787,6.000,14.000,13.848,-3.349,15.010,9.152,12.201,7.687,7.786
Thu Dec 05 12:42:50 2024,725,-17.636,17.636,3.302,3.302,7.744,36.665,15.706,5.937,14.064,13.824,-3.364,14.985,9.171,12.144,7.760,7.842
Thu Dec 05 12:42:50 2024,730,-17.695,17.695,3.348,3.348,7.727,36.635,15.669,5.886,14.113,13.766,-3.367,14.945,9.158,12.116,7.794,7.865
Thu Dec 05 12:42:50 2024,735,-17.828,17.828,3.445,3.445,7.710,36.619,15.683,5.843,14.150,13.656,-3.356,14.879,9.102,12.120,7.786,7.853
Thu Dec 05 12:42:50 2024,740,-17.924,17.924,3.497,3.497,7.697,36.590,15.650,5.804,14.176,13.574,-3.370,14.782,9.066,12.102,7.807,7.881
Thu Dec 05 12:42:50 2024,745,-17.969,17.969,3.483,3.483,7.689,36.540,15.550,5.773,14.193,13.529,-3.420,14.641,9.059,12.051,7.873,7.970
Thu Dec 05 12:42:50 2024,750,-18.028,18.028,3.476,3.476,7.684,36.508,15.477,5.752,14.194,13.472,-3.437,14.522,9.051,12.021,7.913,8.038
Thu Dec 05 12:42:50 2024,755,-18.112,18.112,3.485,3.485,7.686,36.527,15.479,5.758,14.163,13.395,-3.371,14.474,9.039,12.049,7.886,8.045
Thu Dec 05 12:42:50 2024,760,-18.187,18.187,3.493,3.493,7.688,36.545,15.480,5.761,14.132,13.325,-3.312,14.426,9.028,12.072,7.863,8.053
Thu Dec 05 12:42:50 2024,765,-18.070,18.070,3.440,3.440,7.629,36.532,15.389,5.625,14.237,13.253,-3.348,14.357,9.026,11.892,8.062,8.120
Thu Dec 05 12:42:50 2024,770,-17.974,17.974,3.397,3.397,7.582,36.522,15.314,5.515,14.318,13.195,-3.378,14.300,9.025,11.746,8.222,8.174
Thu Dec 05 12:42:50 2024,775,-17.997,17.997,3.452,3.452,7.507,36.558,15.208,5.412,14.373,13.021,-3.386,14.186,9.022,11.396,8.590,8.324
Thu Dec 05 12:42:50 2024,780,-18.039,18.039,3.520,3.520,7.434,36.600,15.105,5.317,14.414,12.841,-3.389,14.069,9.017,11.041,8.956,8.477
Thu Dec 05 12:42:50 2024,785,-17.966,17.966,3.522,3.522,7.400,36.634,15.019,5.296,14.425,12.768,-3.296,14.078,9.027,10.406,9.593,8.526
Thu Dec 05 12:42:50 2024,790,-17.850,17.850,3.507,3.507,7.372,36.671,14.927,5.294,14.430,12.714,-3.162,14.123,9.043,9.608,10.379,8.548
Thu Dec 05 12:42:50 2024,795,-17.800,17.800,3.580,3.580,7.439,36.831,14.866,5.380,14.344,12.639,-3.025,14.409,9.099,9.007,10.950,8.418
Thu Dec 05 12:42:50 2024,800,-17.773,17.773,3.691,3.691,7.545,37.045,14.813,5.505,14.219,12.551,-2.880,14.800,9.174,8.448,11.457,8.226
Thu Dec 05 12:42:50 2024,805,-17.777,17.777,3.790,3.790,7.656,37.286,14.867,5.680,14.061,12.498,-2.780,15.099,9.237,8.084,19.977,8.319
Thu Dec 05 12:42:50 2024,810,-17.808,17.808,3.891,3.891,7.790,37.584,15.018,5.923,13.852,12.467,-2.701,15.366,9.297,7.825,28.296,8.662
Thu Dec 05 12:42:50 2024,815,-17.865,17.865,3.988,3.988,7.980,37.814,15.157,6.145,13.628,12.430,-2.574,15.664,9.392,7.703,28.526,9.011
Thu Dec 05 12:42:50 2024,820,-17.946,17.946,4.059,4.059,8.208,37.908,15.253,6.294,13.433,12.394,-2.407,15.944,9.512,7.783,28.948,9.302
Thu Dec 05 12:42:50 2024,825,-18.025,18.025,4.116,4.116,8.427,37.982,15.343,6.433,13.236,12.362,-2.187,16.313,9.697,7.958,29.564,9.725
Thu Dec 05 12:42:50 2024,830,-18.085,18.085,4.127,4.127,8.587,37.985,15.407,6.525,13.070,12.348,-1.847,16.874,10.038,8.366,30.562,10.472
Thu Dec 05 12:42:50 2024,835,-18.148,18.148,4.148,4.148,8.752,37.981,15.465,6.635,12.870,12.321,-1.468,17.511,10.426,8.824,31.700,11.314
Thu Dec 05 12:42:50 2024,840,-18.201,18.201,4.225,4.225,8.859,37.925,15.455,6.793,12.587,12.242,-1.079,18.259,10.909,9.309,32.813,12.243
Thu Dec 05 12:42:50 2024,845,-18.257,18.257,4.306,4.306,8.971,37.867,15.444,6.958,12.282,12.159,-0.663,19.044,11.417,9.830,34.011,13.238
Thu Dec 05 12:42:50 2024,850,-18.334,18.334,4.448,4.448,9.171,37.900,15.264,7.269,11.833,12.065,-0.147,19.846,12.001,10.470,35.413,14.615
Thu Dec 05 12:42:50 2024,855,-18.394,18.394,4.559,4.559,9.328,37.932,15.116,7.512,11.483,11.994,0.251,20.498,12.444,10.972,36.500,15.708
Thu Dec 05 12:42:50 2024,860,-18.447,18.447,4.652,4.652,9.425,38.012,14.976,7.968,11.137,12.026,0.690,21.705,13.051,11.599,38.090,17.404
Thu Dec 05 12:42:50 2024,865,-18.493,18.493,4.729,4.729,9.496,38.092,14.855,8.414,10.822,12.076,1.083,22.897,13.612,12.186,39.612,19.056
Thu Dec 05 12:42:50 2024,870,-18.508,18.508,4.832,4.832,9.553,38.184,14.831,8.976,10.428,12.172,1.488,24.470,14.241,12.922,41.720,21.348
Thu Dec 05 12:42:50 2024,875,-18.508,18.508,4.959,4.959,9.607,38.292,14.867,9.660,9.924,12.305,1.932,26.425,14.951,13.832,44.426,24.292
Thu Dec 05 12:42:50 2024,880,-18.437,18.437,4.913,4.913,9.685,38.278,15.098,10.259,9.500,12.510,2.400,28.294,15.536,15.293,47.508,27.654
Thu Dec 05 12:42:50 2024,885,-18.314,18.314,4.753,4.753,9.786,38.188,15.474,10.847,9.058,12.779,2.913,30.274,16.087,17.282,51.138,31.636
Thu Dec 05 12:42:50 2024,890,-18.037,18.037,4.648,4.648,9.915,37.972,16.138,11.440,8.556,13.298,3.508,32.670,16.748,18.671,55.160,36.507
Thu Dec 05 12:42:50 2024,895,-17.596,17.596,4.634,4.634,10.076,37.636,17.101,11.966,7.962,14.122,4.126,35.372,17.487,19.088,59.430,42.279
Thu Dec 05 12:42:50 2024,900,-17.160,17.160,4.800,4.800,10.195,37.344,18.100,12.183,32.630,15.036,5.021,38.742,18.650,19.244,65.835,50.193
Thu Dec 05 12:42:50 2024,905,-17.016,17.016,5.216,5.216,10.119,37.273,18.564,11.691,32.702,15.495,6.021,41.406,20.076,18.809,72.612,57.259
Thu Dec 05 12:42:50 2024,910,-16.847,16.847,5.782,5.782,10.034,37.196,19.155,11.031,33.033,16.100,7.225,44.751,21.898,18.616,81.712,64.099
Thu Dec 05 12:42:50 2024,915,-16.675,16.675,6.055,6.055,10.002,37.899,19.235,11.528,34.111,16.316,7.727,47.154,22.275,15.728,79.338,64.625
Thu Dec 05 12:42:50 2024,920,-16.503,16.503,6.379,6.379,9.961,38.572,19.367,11.934,35.237,16.590,8.331,49.758,22.787,13.096,77.929,65.457
Thu Dec 05 12:42:50 2024,925,-16.572,-16.572,6.848,6.848,10.318,39.018,19.958,11.991,35.143,16.636,8.625,51.232,24.244,14.418,79.136,67.686
Thu Dec 05 12:42:50 2024,930,-16.665,-16.665,7.313,7.313,10.700,39.431,20.571,12.014,34.954,16.664,8.912,52.574,25.772,16.125,80.533,70.036
Thu Dec 05 12:42:50 2024,935,-16.858,-16.858,7.857,7.857,11.196,39.898,20.883,12.269,34.719,16.131,9.827,54.166,28.424,17.438,81.870,71.760
Thu Dec 05 12:42:50 2024,940,-17.026,-17.026,8.296,8.296,11.606,40.274,21.092,12.487,34.551,15.654,10.665,55.470,30.746,18.464,82.922,73.076
Thu Dec 05 12:42:50 2024,945,-17.170,-17.170,8.735,8.735,12.069,40.839,21.622,12.660,34.405,15.253,11.884,57.493,33.208,19.584,84.282,74.665
Thu Dec 05 12:42:50 2024,950,-17.296,-17.296,9.153,9.153,12.539,41.471,22.288,12.801,34.282,14.917,13.282,59.787,35.660,20.735,85.731,76.308
Thu Dec 05 12:42:50 2024,955,-17.427,-17.427,9.468,9.468,12.820,42.109,23.004,12.857,34.264,14.801,14.605,62.368,38.331,21.416,87.054,78.018
Thu Dec 05 12:42:50 2024,960,-17.572,-17.572,9.673,9.673,12.876,42.786,23.806,12.821,34.362,14.937,15.900,65.420,41.463,21.525,88.281,79.884
Thu Dec 05 12:42:50 2024,965,-17.723,-17.723,9.962,9.962,12.929,43.231,24.285,12.694,34.332,15.091,16.582,67.355,43.841,21.840,89.277,81.261
Thu Dec 05 12:42:50 2024,970,-17.993,-17.993,10.565,10.565,13.016,43.709,24.703,12.361,34.122,15.379,16.919,69.307,47.115,22.644,90.702,83.011
Thu Dec 05 12:42:50 2024,975,-18.242,-18.242,11.019,11.019,13.084,44.092,24.966,12.187,34.087,15.609,17.270,71.158,50.372,23.315,91.714,84.551
Thu Dec 05 12:42:50 2024,980,-18.530,-18.530,11.395,11.395,13.145,44.451,25.083,12.188,34.288,15.820,17.735,73.405,54.560,23.924,92.429,86.275
Thu Dec 05 12:42:50 2024,985,-18.862,-18.862,11.827,11.827,13.221,44.866,25.218,12.195,34.533,16.067,18.384,76.115,59.912,24.657,93.256,88.235
Thu Dec 05 12:42:50 2024,990,-19.001,-19.001,12.292,12.292,13.291,45.619,25.083,12.552,35.114,16.029,16.579,78.647,65.698,25.073,93.733,89.791
Thu Dec 05 12:42:50 2024,995,-19.138,-19.138,12.674,12.674,13.358,46.217,24.997,12.816,35.565,16.025,15.478,80.925,70.722,25.464,94.163,91.125
Thu Dec 05 12:42:51 2024,0,-19.212,-19.212,13.180,13.180,13.850,46.768,24.730,13.594,36.305,15.852,13.137,82.162,75.261,22.754,92.529,91.284
Thu Dec 05 12:42:51 2024,5,-19.272,-19.272,13.628,13.628,14.324,47.238,24.481,14.308,36.963,15.688,12.101,83.248,78.892,20.350,90.989,91.234
Thu Dec 05 12:42:51 2024,10,-19.321,-19.321,13.963,13.963,14.844,47.683,24.285,14.573,37.217,15.371,13.097,85.517,82.322,18.055,90.647,92.041
Thu Dec 05 12:42:51 2024,15,-19.362,-19.362,14.226,14.226,15.278,48.044,24.129,14.740,37.379,15.093,-14.397,87.539,84.992,16.627,90.533,92.680
Thu Dec 05 12:42:51 2024,20,-19.512,-19.512,14.522,14.522,15.613,48.786,24.460,14.940,37.871,15.232,-15.489,88.723,86.339,16.667,91.476,92.932
Thu Dec 05 12:42:51 2024,25,-19.679,-19.679,14.794,14.794,15.872,49.568,24.914,15.126,38.427,15.494,-16.486,89.480,87.067,17.478,92.660,93.000
Thu Dec 05 12:42:51 2024,30,-19.798,-19.798,14.987,14.987,15.928,50.393,25.440,15.302,39.063,15.858,-17.006,89.548,87.173,-18.889,94.138,93.001
Thu Dec 05 12:42:51 2024,35,-19.859,-19.859,15.095,15.095,15.826,51.101,25.922,15.433,39.643,16.224,-17.032,89.126,86.839,-20.354,95.560,92.972
Thu Dec 05 12:42:51 2024,40,-19.929,-19.929,15.237,15.237,15.694,51.839,26.444,15.548,40.208,16.574,-17.060,88.840,86.506,-21.836,96.920,92.937
Thu Dec 05 12:42:51 2024,45,-20.011,-20.011,15.422,15.422,15.524,52.582,27.007,15.634,40.704,16.876,-17.068,88.808,86.226,-23.126,98.086,92.911
Thu Dec 05 12:42:51 2024,50,-20.100,-20.100,15.572,15.572,15.398,53.184,27.470,15.712,41.120,17.142,-17.140,88.732,86.054,-24.090,98.878,92.872
Thu Dec 05 12:42:51 2024,55,-20.227,-20.227,15.684,15.684,15.341,53.634,27.846,15.803,41.467,17.399,-17.382,88.557,86.071,-24.481,99.084,92.815
Thu Dec 05 12:42:51 2024,60,-20.295,-20.295,15.751,15.751,15.282,53.890,28.064,15.865,41.713,17.601,-17.602,88.376,86.126,-24.724,99.170,92.886
Thu Dec 05 12:42:51 2024,65,-20.121,-20.121,15.637,15.637,15.183,53.333,27.626,15.821,41.586,17.630,-17.732,88.078,86.444,-24.266,98.728,93.602
Thu Dec 05 12:42:51 2024,70,-19.951,-19.951,15.527,15.527,15.089,52.794,27.201,15.778,41.462,17.656,-17.876,87.792,86.758,-23.834,98.299,94.301
Thu Dec 05 12:42:51 2024,75,-19.974,-19.974,15.438,15.438,14.809,52.301,26.765,15.515,41.253,17.422,-18.134,88.068,87.458,-23.426,97.854,94.859
Thu Dec 05 12:42:51 2024,80,-19.994,-19.994,15.353,15.353,14.531,51.810,26.328,15.257,41.048,17.193,-18.395,88.343,88.162,-23.050,97.417,95.414
Thu Dec 05 12:42:51 2024,85,-20.009,-20.009,15.288,15.288,14.310,51.423,25.981,15.052,40.889,17.012,-18.606,88.566,88.728,-22.774,97.075,95.853
Thu Dec 05 12:42:51 2024,90,-19.860,-19.860,15.104,15.104,14.192,50.545,25.123,14.661,40.395,16.686,-18.547,88.545,89.386,-22.030,96.312,96.345
Thu Dec 05 12:42:51 2024,95,-19.648,-19.648,14.772,14.772,14.134,49.216,23.724,14.125,39.630,16.155,-18.262,88.430,90.394,-21.025,95.286,96.946
Thu Dec 05 12:42:51 2024,100,-19.576,-19.576,14.559,14.559,14.119,48.485,22.878,13.858,39.222,15.815,-18.054,88.414,91.101,-20.621,94.834,97.263
Thu Dec 05 12:42:51 2024,105,-19.501,-19.501,14.347,14.347,14.093,47.745,22.015,13.585,38.810,15.472,-17.843,88.397,91.821,-20.230,94.379,97.580
Thu Dec 05 12:42:51 2024,110,-19.496,-19.496,13.865,13.865,14.114,46.187,20.162,12.889,37.743,14.753,-17.377,88.199,92.951,-18.913,92.893,97.991
Thu Dec 05 12:42:51 2024,115,-19.390,-19.390,13.732,13.732,14.053,45.785,19.871,12.692,37.430,14.763,-16.901,86.946,91.667,-18.179,91.088,96.523
Thu Dec 05 12:42:51 2024,120,-19.255,-19.255,13.664,13.664,13.974,45.602,19.891,12.595,37.263,14.921,-16.402,85.426,89.843,-17.540,89.152,94.614
Thu Dec 05 12:42:51 2024,125,-19.119,-19.119,13.596,13.596,13.896,45.419,19.911,12.498,37.096,15.079,-15.903,83.906,88.018,-16.900,87.215,92.706
Thu Dec 05 12:42:51 2024,130,-18.983,-18.983,13.529,13.529,13.817,45.236,19.931,12.401,36.929,15.238,-15.404,82.386,86.194,-16.261,85.279,90.798
Thu Dec 05 12:42:51 2024,135,-18.847,-18.847,13.461,13.461,13.738,45.054,19.952,12.304,36.763,15.396,-14.905,80.866,84.370,-15.621,83.342,88.890
Thu Dec 05 12:42:51 2024,140,-18.712,-18.712,13.393,13.393,13.660,44.871,19.972,12.207,36.596,15.555,-14.406,79.346,82.546,-14.982,81.406,86.982
Thu Dec 05 12:42:51 2024,145,-18.576,-18.576,13.326,13.326,13.581,44.688,19.992,12.110,36.429,15.713,-13.907,77.826,80.722,-14.342,79.470,85.074
Thu Dec 05 12:42:51 2024,150,-18.440,-18.440,13.258,13.258,13.502,44.505,20.012,12.013,36.262,15.871,-13.408,76.306,78.898,-13.703,77.533,83.166
Thu Dec 05 12:42:51 2024,155,-18.304,-18.304,13.190,13.190,13.424,44.322,20.032,11.916,36.096,16.030,-12.910,74.786,77.074,-13.063,75.597,81.258
Thu Dec 05 12:42:51 2024,160,-18.169,-18.169,13.122,13.122,13.345,44.139,20.052,11.819,35.929,16.188,-12.411,73.266,75.249,-12.423,73.661,79.350
Thu Dec 05 12:42:51 2024,165,-18.033,-18.033,13.055,13.055,13.267,43.957,20.072,11.722,35.762,16.346,-11.912,71.746,73.425,-11.784,71.724,77.442
Thu Dec 05 12:42:51 2024,170,-17.897,-17.897,12.987,12.987,13.188,43.774,20.092,11.625,35.596,16.505,-11.413,70.226,71.601,-11.144,69.788,75.534
Thu Dec 05 12:42:51 2024,175,-17.761,-17.761,12.919,12.919,13.109,43.591,20.113,11.528,35.429,16.663,-10.914,68.706,69.777,-10.505,67.851,73.626
Thu Dec 05 12:42:51 2024,180,-17.626,-17.626,12.852,12.852,13.031,43.408,20.133,11.430,35.262,16.821,-10.415,67.186,67.953,-9.865,65.915,71.718
Thu Dec 05 12:42:51 2024,185,-17.490,-17.490,12.784,12.784,12.952,43.225,20.153,11.333,35.095,16.980,-9.916,65.666,66.129,-9.226,63.979,69.809
Thu Dec 05 12:42:51 2024,190,-17.354,-17.354,12.716,12.716,12.873,43.043,20.173,11.236,34.929,17.138,-9.417,64.146,64.305,-8.586,62.042,67.901
Thu Dec 05 12:42:51 2024,195,-17.218,-17.218,12.648,12.648,12.795,42.860,20.193,11.139,34.762,17.297,-8.918,62.626,62.481,-7.947,60.106,65.993
Thu Dec 05 12:42:51 2024,200,-17.083,-17.083,12.581,12.581,12.716,42.677,20.213,11.042,34.595,17.455,-8.419,61.106,60.656,-7.307,58.170,64.085
Thu Dec 05 12:42:51 2024,205,-16.947,-16.947,12.513,12.513,12.637,42.494,20.233,10.945,34.428,17.613,-7.920,59.586,58.832,-6.668,56.233,62.177
Thu Dec 05 12:42:51 2024,210,-16.811,-16.811,12.445,12.445,12.559,42.311,20.253,10.848,34.262,17.772,-7.421,58.066,57.008,-6.028,54.297,60.269
Thu Dec 05 12:42:51 2024,215,-16.676,-16.676,12.378,12.378,12.480,42.128,20.274,10.751,34.095,17.930,-6.922,56.546,55.184,-5.389,52.360,58.361
Thu Dec 05 12:42:51 2024,220,-16.540,-16.540,12.310,12.310,12.401,41.946,20.294,10.654,33.928,18.088,-6.424,55.026,53.360,-4.749,50.424,56.453
Thu Dec 05 12:42:51 2024,225,-16.404,-16.404,12.242,12.242,12.323,41.763,20.314,10.557,33.762,18.247,-5.925,53.506,51.536,-4.109,48.488,54.545
Thu Dec 05 12:42:51 2024,230,-16.268,-16.268,12.174,12.174,12.244,41.580,20.334,10.460,33.595,18.405,-5.426,51.986,49.712,-3.470,46.551,52.637
Thu Dec 05 12:42:51 2024,235,-16.133,-16.133,12.107,12.107,12.165,41.397,20.354,10.363,33.428,18.563,-4.927,50.466,47.887,-2.830,44.615,50.729
Thu Dec 05 12:42:51 2024,240,-15.997,-15.997,12.039,12.039,12.087,41.214,20.374,10.266,33.261,18.722,-4.428,48.946,46.063,-2.191,42.679,48.821
Thu Dec 05 12:42:51 2024,245,-15.861,-15.861,11.971,11.971,12.008,41.032,20.394,10.169,33.095,18.880,-3.929,47.426,44.239,-1.551,40.742,46.913
Thu Dec 05 12:42:51 2024,250,-15.725,-15.725,11.903,11.903,11.929,40.849,20.414,10.072,32.928,19.039,-3.430,45.906,42.415,-0.912,38.806,45.004
Thu Dec 05 12:42:51 2024,255,-15.590,-15.590,11.836,11.836,11.851,40.666,20.434,9.974,32.761,19.197,-2.931,44.386,40.591,-0.272,36.870,43.096
Thu Dec 05 12:42:51 2024,260,-15.454,-15.454,11.768,11.768,11.772,40.483,20.455,9.877,32.594,19.355,-2.432,42.866,38.767,0.367,34.933,41.188
Thu Dec 05 12:42:51 2024,265,-15.318,-15.318,11.700,11.700,11.693,40.300,20.475,9.780,32.428,19.514,-1.933,41.346,36.943,1.007,32.997,39.280
Thu Dec 05 12:42:51 2024,270,-15.182,-15.182,11.633,11.633,11.615,40.118,20.495,9.683,32.261,19.672,-1.434,39.826,35.119,1.646,31.060,37.372
Thu Dec 05 12:42:51 2024,275,-15.047,-15.047,11.565,11.565,11.536,39.935,20.515,9.586,32.094,19.830,-0.935,38.306,33.294,2.286,29.124,35.464
Thu Dec 05 12:42:51 2024,280,-14.911,-14.911,11.497,11.497,11.458,39.752,20.535,9.489,31.928,19.989,-0.437,36.786,31.470,2.926,27.188,33.556
Thu Dec 05 12:42:51 2024,285,-14.775,-14.775,11.429,11.429,11.379,39.569,20.555,9.392,31.761,20.147,0.062,35.266,29.646,3.565,25.251,31.648
Thu Dec 05 12:42:51 2024,290,-14.639,-14.639,11.362,11.362,11.300,39.386,20.575,9.295,31.594,20.305,0.561,33.746,27.822,4.205,23.315,29.740
Thu Dec 05 12:42:51 2024,295,-14.504,-14.504,11.294,11.294,11.222,39.204,20.595,9.198,31.427,20.464,1.060,32.226,25.998,4.844,21.379,27.832
Thu Dec 05 12:42:51 2024,300,-14.368,-14.368,11.226,11.226,11.143,39.021,20.616,9.101,31.261,20.622,1.559,30.706,24.174,5.484,19.442,25.924
Thu Dec 05 12:42:51 2024,305,-14.232,-14.232,11.159,11.159,11.064,38.838,20.636,9.004,31.094,20.781,2.058,29.186,22.350,6.123,17.506,24.016
Thu Dec 05 12:42:51 2024,310,-14.096,-14.096,11.091,11.091,10.986,38.655,20.656,8.907,30.927,20.939,2.557,27.666,20.525,6.763,15.569,22.108
Thu Dec 05 12:42:51 2024,315,-13.961,-13.961,11.023,11.023,10.907,38.472,20.676,8.810,30.760,21.097,3.056,26.146,18.701,7.402,13.633,20.199
Thu Dec 05 12:42:51 2024,320,-13.852,-13.852,10.969,10.969,10.844,38.326,20.692,8.732,30.627,21.224,3.455,24.930,17.242,7.914,12.084,18.673
Thu Dec 05 12:42:51 2024,325,-13.852,-13.852,10.969,10.969,10.844,38.326,20.692,8.732,30.627,21.224,3.455,24.930,17.242,7.914,12.084,18.673
Thu Dec 05 12:42:51 2024,330,-13.945,-13.945,10.344,10.344,10.391,38.242,21.284,8.838,30.705,20.780,3.081,25.741,17.062,8.238,11.752,16.486
Thu Dec 05 12:42:51 2024,335,-14.552,-14.552,9.315,9.315,9.611,38.130,22.297,8.996,30.824,20.070,2.480,27.506,16.818,8.768,11.192,12.980
Thu Dec 05 12:42:51 2024,340,-15.064,-15.064,8.705,8.705,9.106,38.232,22.798,8.800,30.836,19.765,1.997,28.960,16.796,9.336,10.586,11.210
Thu Dec 05 12:42:51 2024,345,-15.260,-15.260,8.411,8.411,8.831,38.469,22.902,8.378,30.805,19.739,1.607,30.011,16.897,9.906,9.977,10.671
Thu Dec 05 12:42:51 2024,350,-15.416,-15.416,8.387,8.387,8.563,38.700,22.818,8.006,30.887,19.587,1.543,31.152,16.965,10.449,9.419,10.267
Thu Dec 05 12:42:51 2024,355,-15.516,-15.516,8.651,8.651,8.297,38.923,22.536,7.682,31.086,19.302,1.819,32.381,17.004,10.974,8.908,9.994
Thu Dec 05 12:42:51 2024,360,-15.612,-15.612,8.838,8.838,8.072,39.082,22.304,7.430,31.275,19.108,2.062,33.354,17.068,11.373,8.516,9.775
Thu Dec 05 12:42:51 2024,365,-15.784,-15.784,8.954,8.954,7.762,39.174,22.010,7.179,31.543,19.025,2.454,34.428,17.274,11.737,8.142,9.513
Thu Dec 05 12:42:51 2024,370,-15.901,-15.901,9.051,9.051,7.554,39.217,21.796,7.028,31.747,18.960,2.710,35.140,17.424,11.948,7.916,9.338
Thu Dec 05 12:42:51 2024,375,-16.016,-16.016,9.236,9.236,7.355,39.169,21.518,6.959,31.994,18.842,2.925,35.775,17.603,12.013,7.802,9.172
Thu Dec 05 12:42:51 2024,380,-16.106,-16.106,9.405,9.405,7.196,39.120,21.267,6.936,32.252,18.746,3.094,36.283,17.741,12.011,7.750,9.016
Thu Dec 05 12:42:51 2024,385,-16.142,-16.142,9.551,9.551,7.114,39.121,21.012,7.064,32.725,18.736,3.211,36.618,17.746,11.786,7.906,8.780
Thu Dec 05 12:42:51 2024,390,-16.168,-16.168,9.681,9.681,7.047,39.126,20.781,7.193,33.175,18.735,3.312,36.903,17.736,11.562,8.061,8.558
Thu Dec 05 12:42:51 2024,395,-16.214,-16.214,9.744,9.744,7.086,39.151,20.544,7.404,33.533,18.687,3.417,36.996,17.672,11.376,8.188,8.353
Thu Dec 05 12:42:51 2024,400,-16.253,-16.253,9.780,9.780,7.133,39.175,20.359,7.581,33.795,18.642,3.499,37.036,17.614,11.237,8.280,8.196
Thu Dec 05 12:42:51 2024,405,-16.269,-16.269,9.760,9.760,7.183,39.250,20.253,7.711,34.010,18.669,3.558,37.039,17.559,11.086,8.419,8.074
Thu Dec 05 12:42:51 2024,410,-16.282,-16.282,9.729,9.729,7.214,39.313,20.186,7.787,34.164,18.714,3.597,37.031,17.518,10.953,8.558,7.992
Thu Dec 05 12:42:51 2024,415,-16.324,-16.324,9.732,9.732,7.190,39.280,20.100,7.778,34.246,18.737,3.622,37.042,17.502,10.843,8.681,7.951
Thu Dec 05 12:42:51 2024,420,-16.366,-16.366,9.734,9.734,7.165,39.247,20.013,7.769,34.328,18.760,3.647,37.053,17.487,10.734,8.804,7.911
Thu Dec 05 12:42:51 2024,425,-16.456,-16.456,9.779,9.779,7.096,39.179,19.939,7.712,34.297,18.748,3.694,37.093,17.499,10.667,8.891,7.893
Thu Dec 05 12:42:51 2024,430,-16.599,-16.599,9.868,9.868,6.987,39.096,19.887,7.619,34.138,18.698,3.772,37.166,17.539,10.649,8.933,7.893
Thu Dec 05 12:42:51 2024,435,-16.774,-16.774,9.968,9.968,6.871,39.003,19.798,7.516,33.993,18.636,3.896,37.301,17.644,10.624,9.000,7.941
Thu Dec 05 12:42:51 2024,440,-16.934,-16.934,10.047,10.047,6.792,38.932,19.677,7.440,33.937,18.576,4.052,37.493,17.826,10.599,9.081,8.060
Thu Dec 05 12:42:51 2024,445,-17.068,-17.068,10.129,10.129,6.698,38.860,19.536,7.408,33.918,18.548,4.231,37.784,18.176,10.584,9.155,8.230
Thu Dec 05 12:42:51 2024,450,-17.082,-17.082,10.206,10.206,6.566,38.797,19.351,7.543,34.032,18.636,4.462,38.375,19.074,10.613,9.195,8.551
Thu Dec 05 12:42:51 2024,455,-17.085,-17.085,10.283,10.283,6.451,38.759,19.155,7.682,34.165,18.698,4.694,38.967,19.974,10.628,9.233,8.868
Thu Dec 05 12:42:51 2024,460,-17.047,-17.047,10.385,10.385,6.368,38.805,18.861,7.879,34.411,18.673,4.999,39.716,21.100,10.592,9.307,9.270
Thu Dec 05 12:42:51 2024,465,-16.999,-16.999,10.501,10.501,6.281,38.868,18.522,8.104,34.700,18.632,5.352,40.581,22.420,10.545,9.388,9.726
Thu Dec 05 12:42:51 2024,470,-17.010,-17.010,10.630,10.630,5.906,39.036,18.311,8.122,34.549,18.054,5.948,42.354,24.672,10.366,9.610,10.534
Thu Dec 05 12:42:51 2024,475,-17.031,-17.031,10.742,10.742,5.531,39.207,18.163,8.094,34.327,17.459,6.520,44.083,26.895,10.188,9.809,11.282
Thu Dec 05 12:42:51 2024,480,-17.167,-17.167,10.939,10.939,5.179,39.493,18.306,8.111,34.272,16.966,8.389,46.354,29.595,10.120,9.873,12.003
Thu Dec 05 12:42:51 2024,485,-17.311,-17.311,11.119,11.119,4.920,39.753,18.514,8.139,34.286,16.628,10.353,48.377,31.957,10.106,9.871,12.542
Thu Dec 05 12:42:51 2024,490,-17.391,-17.391,11.351,11.351,4.445,39.554,18.275,7.949,34.399,16.254,12.643,50.216,34.050,9.899,10.014,12.753
Thu Dec 05 12:42:51 2024,495,-17.424,-17.424,11.641,11.641,3.757,38.939,17.620,7.554,34.625,15.831,15.452,52.087,36.113,9.513,10.227,12.680
Thu Dec 05 12:42:51 2024,500,-17.548,-17.548,11.973,11.973,3.076,38.384,16.954,7.001,34.972,15.616,16.801,51.746,36.838,8.965,10.598,12.368
Thu Dec 05 12:42:51 2024,505,-17.706,-17.706,12.242,12.242,2.601,38.044,16.478,6.479,35.335,15.630,16.375,49.442,35.618,8.442,11.044,11.950
Thu Dec 05 12:42:51 2024,510,-17.787,-17.787,12.546,12.546,2.212,37.537,16.095,6.004,35.850,15.704,16.608,46.310,32.328,7.821,11.588,11.636
Thu Dec 05 12:42:51 2024,515,-17.715,-17.715,12.763,12.763,2.125,36.997,16.026,5.818,36.315,15.839,17.732,43.848,27.582,7.337,12.043,11.622
Thu Dec 05 12:42:51 2024,520,-17.672,-17.672,12.979,12.979,2.063,36.508,16.003,5.632,36.772,15.960,18.881,41.992,22.150,6.810,12.540,11.548
Thu Dec 05 12:42:51 2024,525,-17.744,-17.744,13.031,13.031,2.124,36.552,16.147,5.593,36.827,15.952,19.311,41.437,19.925,6.558,12.796,11.343
Thu Dec 05 12:42:51 2024,530,-17.812,-17.812,13.069,13.069,2.182,36.616,16.279,5.567,36.855,15.940,19.628,41.114,18.252,6.357,13.004,11.161
Thu Dec 05 12:42:51 2024,535,-17.804,-17.804,13.120,13.120,2.106,36.620,16.428,5.396,36.523,15.894,19.906,41.049,17.391,5.970,13.373,11.026
Thu Dec 05 12:42:51 2024,540,-17.794,-17.794,13.164,13.164,2.051,36.625,16.537,5.273,36.283,15.866,20.100,27.013,16.824,5.694,13.632,10.937
Thu Dec 05 12:42:51 2024,545,-17.766,-17.766,13.251,13.251,2.041,36.646,16.630,5.225,36.176,15.901,20.220,-1.024,16.510,5.574,13.734,10.930
Thu Dec 05 12:42:51 2024,550,-17.736,-17.736,13.346,13.346,2.044,36.672,16.714,5.201,36.113,15.951,20.314,-1.023,16.288,5.505,13.783,10.949
Thu Dec 05 12:42:51 2024,555,-17.705,-17.705,13.380,13.380,1.963,36.818,16.870,5.213,36.243,16.097,20.310,-0.923,16.017,5.241,14.124,11.009
Thu Dec 05 12:42:51 2024,560,-17.682,-17.682,13.386,13.386,1.876,36.963,17.007,5.232,36.398,16.235,20.279,-0.824,15.804,4.985,14.464,11.065
Thu Dec 05 12:42:51 2024,565,-17.618,-17.618,13.242,13.242,1.886,37.256,17.186,5.410,36.919,16.358,19.420,0.241,14.569,4.541,15.169,11.207
Thu Dec 05 12:42:51 2024,570,-17.526,-17.526,12.990,12.990,1.962,37.652,17.396,5.700,37.700,16.466,17.977,1.910,12.754,3.966,15.995,11.398
Thu Dec 05 12:42:51 2024,575,-17.534,-17.534,12.788,12.788,1.974,38.232,17.709,5.864,38.304,16.531,17.068,2.748,12.696,3.632,16.347,11.386
Thu Dec 05 12:42:51 2024,580,-17.618,-17.618,12.599,12.599,1.940,39.017,18.138,5.952,38.845,16.573,16.453,25.677,13.870,3.438,23.621,11.229
Thu Dec 05 12:42:51 2024,585,-17.650,-17.650,12.441,12.441,2.003,39.502,18.432,6.116,39.148,16.510,16.104,37.175,14.560,3.231,23.589,11.054
Thu Dec 05 12:42:51 2024,590,-17.559,-17.559,12.257,12.257,2.404,39.455,18.546,6.627,38.969,16.079,16.297,37.577,14.307,2.828,23.123,10.688
Thu Dec 05 12:42:51 2024,595,-17.506,-17.506,12.168,12.168,2.732,39.367,18.634,7.013,38.778,15.805,16.543,38.001,14.363,2.539,22.829,10.544
Thu Dec 05 12:42:51 2024,600,-17.501,-17.501,12.224,12.224,2.993,39.156,18.680,7.266,38.491,15.754,16.935,38.512,14.903,2.391,22.769,10.766
Thu Dec 05 12:42:51 2024,605,-17.496,-17.496,12.274,12.274,3.222,38.975,18.721,7.485,38.247,15.709,17.276,38.954,15.364,2.263,22.733,10.965
Thu Dec 05 12:42:51 2024,610,-17.635,-17.635,12.430,12.430,3.393,38.771,18.816,7.709,38.049,15.771,17.503,39.244,15.943,2.192,23.115,11.652
Thu Dec 05 12:42:51 2024,615,-17.757,-17.757,12.587,12.587,3.568,38.588,18.910,7.936,37.888,15.833,17.560,39.368,16.456,2.163,23.624,12.343
Thu Dec 05 12:42:51 2024,620,-17.769,-17.769,12.780,12.780,3.883,38.444,19.010,8.308,37.836,15.878,16.632,38.609,16.832,2.312,24.395,13.067
Thu Dec 05 12:42:51 2024,625,-17.764,-17.764,12.950,12.950,4.174,38.333,19.095,8.648,37.816,15.913,15.684,37.842,17.130,2.468,25.104,13.694
Thu Dec 05 12:42:51 2024,630,-17.829,-17.829,13.118,13.118,4.534,38.461,19.143,9.040,37.829,16.011,13.609,36.345,17.713,2.764,26.138,14.372
Thu Dec 05 12:42:51 2024,635,-17.910,-17.910,13.266,13.266,4.880,38.665,19.170,9.408,37.858,16.121,11.321,34.897,18.286,3.077,27.179,14.996
Thu Dec 05 12:42:51 2024,640,-17.916,-17.916,13.378,13.378,5.274,38.838,19.222,9.860,38.076,16.214,8.827,33.491,18.580,3.252,28.140,15.649
Thu Dec 05 12:42:51 2024,645,-17.887,-17.887,13.467,13.467,5.668,38.994,19.281,10.326,38.368,16.295,6.369,32.398,18.695,3.356,29.023,16.291
Thu Dec 05 12:42:51 2024,650,-17.815,-17.815,13.585,13.585,6.046,39.185,19.328,10.875,38.868,16.526,3.147,31.934,19.136,3.412,30.310,17.556
Thu Dec 05 12:42:51 2024,655,-17.715,-17.715,13.708,13.708,6.344,39.374,19.358,11.401,39.464,16.849,-0.193,32.522,19.701,3.407,31.750,19.204
Thu Dec 05 12:42:51 2024,660,-17.621,-17.621,13.828,13.828,6.618,39.570,19.352,11.954,40.174,17.142,-3.208,33.878,20.118,3.464,33.339,20.990
Thu Dec 05 12:42:51 2024,665,-17.505,-17.505,13.991,13.991,6.944,39.861,19.252,12.809,41.468,17.481,-6.493,36.256,20.592,3.718,35.940,23.833
Thu Dec 05 12:42:51 2024,670,-17.395,-17.395,14.087,14.087,7.134,40.090,19.257,13.484,42.686,17.817,-9.032,38.660,21.243,3.830,38.477,26.839
Thu Dec 05 12:42:51 2024,675,-17.271,-17.271,14.037,14.037,7.022,40.214,19.510,13.870,44.034,18.217,-10.329,41.087,22.919,3.641,41.443,30.858
Thu Dec 05 12:42:51 2024,680,-17.162,-17.162,13.995,13.995,6.923,40.324,19.734,14.206,45.230,18.559,-11.504,43.215,24.382,3.479,44.119,34.678
Thu Dec 05 12:42:51 2024,685,-17.200,-17.200,14.128,14.128,6.553,40.546,19.895,14.299,46.426,18.587,-12.156,45.995,27.265,3.146,46.761,38.385
Thu Dec 05 12:42:51 2024,690,-17.228,-17.228,14.248,14.248,6.210,40.761,20.052,14.400,47.589,18.617,-12.877,48.731,30.394,2.924,49.328,42.176
Thu Dec 05 12:42:51 2024,695,-17.303,-17.303,14.456,14.456,5.858,40.804,20.339,14.381,48.134,18.696,-13.082,50.877,33.072,3.067,51.096,44.805
Thu Dec 05 12:42:51 2024,700,-17.374,-17.374,14.653,14.653,5.526,40.851,20.609,14.364,48.656,18.766,-13.302,52.953,35.782,3.227,52.776,47.375
Thu Dec 05 12:42:51 2024,705,-17.417,-17.417,14.808,14.808,5.314,40.989,20.784,14.530,49.247,18.802,-13.603,55.123,38.714,3.434,54.280,49.881
Thu Dec 05 12:42:51 2024,710,-17.450,-17.450,14.936,14.936,5.155,41.129,20.918,14.712,49.776,18.823,-13.908,57.055,41.398,3.631,55.560,52.111
Thu Dec 05 12:42:51 2024,715,-17.475,-17.475,15.032,15.032,5.189,41.315,21.036,14.868,50.004,18.876,-14.029,58.175,43.266,3.770,56.257,53.511
Thu Dec 05 12:42:51 2024,720,-17.500,-17.500,15.130,15.130,5.341,41.563,21.166,15.039,50.107,18.959,-14.060,59.050,45.044,3.903,56.758,54.713
Thu Dec 05 12:42:51 2024,725,-17.502,-17.502,15.180,15.180,5.465,41.765,21.242,15.158,50.170,19.010,-14.090,59.747,46.366,3.997,57.076,55.552
Thu Dec 05 12:42:51 2024,730,-17.459,-17.459,15.147,15.147,5.572,41.921,21.228,15.199,50.160,19.011,-14.109,60.197,47.009,4.031,57.081,55.808
Thu Dec 05 12:42:51 2024,735,-17.463,-17.463,15.179,15.179,5.690,42.001,21.273,15.274,50.143,19.088,-14.049,60.370,47.549,4.030,57.038,56.086
Thu Dec 05 12:42:51 2024,740,-17.507,-17.507,15.261,15.261,5.805,41.994,21.361,15.366,50.112,19.226,-13.912,60.222,47.855,3.985,56.910,56.284
Thu Dec 05 12:42:51 2024,745,-17.518,-17.518,15.266,15.266,5.876,41.932,21.395,15.410,49.998,19.299,-13.840,60.029,47.875,3.943,56.683,56.291
Thu Dec 05 12:42:51 2024,750,-17.483,-17.483,15.164,15.164,5.889,41.790,21.354,15.392,49.764,19.282,-13.856,59.764,47.498,3.904,56.308,56.031
Thu Dec 05 12:42:51 2024,755,-17.455,-17.455,15.080,15.080,5.890,41.674,21.315,15.364,49.586,19.278,-13.849,59.488,47.110,3.876,56.008,55.748
Thu Dec 05 12:42:51 2024,760,-17.439,-17.439,15.018,15.018,5.882,41.555,21.273,15.309,49.466,19.364,-13.707,58.896,46.439,3.851,55.698,55.205
Thu Dec 05 12:42:51 2024,765,-17.430,-17.430,14.973,14.973,5.875,41.453,21.237,15.259,49.363,19.444,-13.573,58.349,45.822,3.832,55.420,54.705
Thu Dec 05 12:42:51 2024,770,-17.479,-17.479,15.028,15.028,5.862,41.387,21.205,15.249,49.213,19.408,-13.510,57.962,45.296,3.838,55.063,54.272
Thu Dec 05 12:42:51 2024,775,-17.529,-17.529,15.085,15.085,5.849,41.319,21.172,15.237,49.056,19.372,-13.446,57.564,44.752,3.846,54.696,53.826
Thu Dec 05 12:42:51 2024,780,-17.494,-17.494,15.081,15.081,5.856,41.181,21.050,15.181,48.905,19.333,-13.302,56.941,44.067,3.825,54.188,53.148
Thu Dec 05 12:42:51 2024,785,-17.444,-17.444,15.064,15.064,5.866,41.043,20.924,15.121,48.771,19.299,-13.159,56.341,43.426,3.802,53.708,52.500
Thu Dec 05 12:42:51 2024,790,-17.372,-17.372,14.932,14.932,5.759,40.864,20.823,14.995,48.619,19.293,-12.945,55.683,42.786,3.729,52.897,51.445
Thu Dec 05 12:42:51 2024,795,-17.309,-17.309,14.784,14.784,5.629,40.716,20.761,14.875,48.501,19.301,-12.758,55.182,42.324,3.655,52.164,50.498
Thu Dec 05 12:42:51 2024,800,-17.244,-17.244,14.594,14.594,5.575,40.504,20.682,14.798,48.311,19.354,-12.736,54.290,40.951,3.649,51.086,49.013
Thu Dec 05 12:42:51 2024,805,-17.187,-17.187,14.397,14.397,5.583,40.272,20.599,14.762,48.092,19.432,-12.840,53.237,39.132,3.706,49.892,47.334
Thu Dec 05 12:42:51 2024,810,-17.144,-17.144,14.183,14.183,5.613,40.117,20.510,14.663,47.768,19.461,-12.446,52.010,37.572,3.838,48.341,45.253
Thu Dec 05 12:42:51 2024,815,-17.120,-17.120,13.968,13.968,5.663,40.055,20.420,14.506,47.359,19.436,-11.576,50.681,36.348,4.046,46.539,42.904
Thu Dec 05 12:42:51 2024,820,-17.092,-17.092,13.805,13.805,5.672,39.936,20.306,14.310,46.938,19.395,-10.793,49.534,35.215,4.317,44.861,40.655
Thu Dec 05 12:42:51 2024,825,-17.053,-17.053,13.749,13.749,5.573,39.649,20.103,13.984,46.419,19.303,-10.096,48.705,34.155,4.786,43.256,38.326
Thu Dec 05 12:42:51 2024,830,-16.994,-16.994,13.684,13.684,5.484,39.360,19.890,13.645,45.876,19.200,-9.251,47.848,33.291,5.247,41.537,35.995
Thu Dec 05 12:42:51 2024,835,-16.818,-16.818,13.569,13.569,5.442,39.041,19.623,13.224,45.188,19.054,-7.621,46.795,33.132,5.656,39.068,33.208
Thu Dec 05 12:42:51 2024,840,-16.657,-16.657,13.441,13.441,5.369,38.704,19.364,12.784,44.498,18.923,-6.129,45.789,32.926,5.993,36.777,30.711
Thu Dec 05 12:42:51 2024,845,-16.533,-16.533,13.248,13.248,5.154,38.244,19.108,12.204,43.718,18.846,-5.205,44.716,32.599,6.084,34.723,28.531
Thu Dec 05 12:42:51 2024,850,-16.434,-16.434,13.076,13.076,4.955,37.842,18.894,11.699,43.050,18.788,-4.487,43.799,32.290,6.133,33.062,26.804
Thu Dec 05 12:42:51 2024,855,-16.391,-16.391,12.916,12.916,4.604,37.510,18.680,11.156,42.566,18.702,-2.508,42.649,32.219,6.143,31.991,25.496
Thu Dec 05 12:42:51 2024,860,-16.347,-16.347,12.737,12.737,4.206,37.207,18.438,10.570,42.139,18.598,-0.640,41.616,32.022,6.183,31.017,24.174
Thu Dec 05 12:42:51 2024,865,-16.285,-16.285,12.546,12.546,3.864,37.113,18.176,10.085,42.049,18.478,1.816,41.078,31.695,6.366,30.491,22.964
Thu Dec 05 12:42:51 2024,870,-16.217,-16.217,12.354,12.354,3.557,37.118,17.912,9.655,42.121,18.355,2.580,40.765,31.322,6.611,30.203,21.866
Thu Dec 05 12:42:51 2024,875,-16.209,-16.209,12.373,12.373,3.177,37.156,17.718,9.014,42.148,18.433,3.258,39.840,30.660,6.847,29.980,20.920
Thu Dec 05 12:42:51 2024,880,-16.251,-16.251,12.555,12.555,2.868,37.205,17.647,8.423,42.137,18.645,3.617,38.733,30.000,6.998,29.876,20.407
Thu Dec 05 12:42:51 2024,885,-16.225,-16.225,12.805,12.805,2.544,36.988,17.463,7.855,42.004,18.930,4.783,37.313,29.269,6.988,29.450,20.034
Thu Dec 05 12:42:51 2024,890,-16.136,-16.136,13.054,13.054,2.289,36.556,17.209,7.457,41.777,19.216,6.456,36.132,28.599,6.816,28.816,19.878
Thu Dec 05 12:42:51 2024,895,-16.104,-16.104,13.366,13.366,1.960,36.151,16.747,6.970,41.231,19.233,8.355,38.072,30.325,6.935,28.253,19.505
Thu Dec 05 12:42:51 2024,900,-16.163,-16.163,13.626,13.626,1.677,35.954,16.213,6.578,40.495,18.884,9.731,42.930,34.123,7.386,28.125,18.997
Thu Dec 05 12:42:51 2024,905,-16.245,-16.245,13.838,13.838,1.473,35.778,15.687,6.316,39.798,18.535,11.430,48.498,37.253,8.050,28.359,18.389
