Timestamp,Millis,thumb_tm_aa,thumb_tm_flex,thumb_mcp_aa,thumb_mcp_flex,index_mcp_aa,index_mcp_flex,index_pip,middle_mcp_aa,middle_mcp_flex,middle_pip,ring_mcp_aa,ring_mcp_flex,ring_pip,little_mcp_aa,little_mcp_flex,little_pip
Thu Dec 05 12:45:26 2024,995,-15.270,-15.270,-0.177,0.177,1.995,22.193,10.039,6.206,13.695,14.242,-3.118,15.169,10.307,13.638,6.092,9.691
Thu Dec 05 12:45:27 2024,0,-15.304,-15.304,-0.168,0.168,1.951,22.178,10.048,6.168,13.728,14.211,-3.117,15.244,10.328,13.655,6.081,9.691
Thu Dec 05 12:45:27 2024,5,-15.330,-15.330,-0.153,0.153,1.894,22.143,10.068,6.116,13.780,14.181,-3.120,15.325,10.352,13.647,6.088,9.650
Thu Dec 05 12:45:27 2024,10,-15.256,-15.256,-0.133,0.133,1.897,22.170,10.088,6.153,13.740,14.217,-3.113,15.324,10.384,13.652,6.085,9.679
Thu Dec 05 12:45:27 2024,15,-15.144,-15.144,-0.108,0.108,1.916,22.218,10.112,6.220,13.672,14.274,-3.102,15.302,10.425,13.662,6.080,9.731
Thu Dec 05 12:45:27 2024,20,-15.151,-15.151,-0.105,0.105,1.975,22.295,10.150,6.263,13.625,14.312,-3.059,15.309,10.405,13.706,6.040,9.735
Thu Dec 05 12:45:27 2024,25,-15.212,-15.212,-0.112,0.112,2.045,22.375,10.189,6.291,13.594,14.335,-3.008,15.326,10.362,13.761,5.990,9.716
Thu Dec 05 12:45:27 2024,30,-15.235,-15.235,-0.158,0.158,2.005,22.310,10.111,6.226,13.659,14.301,-3.069,15.320,10.358,13.723,6.027,9.688
Thu Dec 05 12:45:27 2024,35,-15.243,-15.243,-0.220,0.220,1.929,22.197,9.997,6.133,13.753,14.248,-3.166,15.304,10.370,13.654,6.091,9.659
Thu Dec 05 12:45:27 2024,40,-15.232,-15.232,-0.219,0.219,1.920,22.176,9.967,6.154,13.728,14.250,-3.167,15.302,10.370,13.623,6.125,9.665
Thu Dec 05 12:45:27 2024,45,-15.209,-15.209,-0.180,0.180,1.951,22.210,9.988,6.243,13.633,14.284,-3.111,15.310,10.362,13.614,6.138,9.692
Thu Dec 05 12:45:27 2024,50,-15.217,-15.217,-0.153,0.153,1.941,22.189,10.005,6.246,13.631,14.281,-3.105,15.307,10.348,13.614,6.135,9.644
Thu Dec 05 12:45:27 2024,55,-15.247,-15.247,-0.143,0.143,1.904,22.135,10.015,6.187,13.697,14.252,-3.137,15.299,10.334,13.619,6.119,9.555
Thu Dec 05 12:45:27 2024,60,-15.253,-15.253,-0.134,0.134,1.904,22.181,10.035,6.190,13.690,14.249,-3.113,15.356,10.365,13.661,6.089,9.602
Thu Dec 05 12:45:27 2024,65,-15.240,-15.240,-0.126,0.126,1.932,22.303,10.062,6.239,13.627,14.271,-3.053,15.448,10.424,13.723,6.054,9.746
Thu Dec 05 12:45:27 2024,70,-15.236,-15.236,-0.117,0.117,1.936,22.348,10.083,6.259,13.605,14.302,-3.049,15.442,10.446,13.734,6.053,9.807
Thu Dec 05 12:45:27 2024,75,-15.247,-15.247,-0.115,0.115,1.894,22.257,10.104,6.232,13.647,14.362,-3.149,15.256,10.404,13.657,6.116,9.734
Thu Dec 05 12:45:27 2024,80,-15.247,-15.247,-0.105,0.105,1.875,22.202,10.101,6.213,13.671,14.367,-3.196,15.175,10.370,13.622,6.138,9.671
Thu Dec 05 12:45:27 2024,85,-15.222,-15.222,-0.086,0.086,1.906,22.228,10.047,6.213,13.657,14.256,-3.126,15.324,10.352,13.680,6.074,9.635
Thu Dec 05 12:45:27 2024,90,-15.206,-15.206,-0.086,0.086,1.923,22.237,10.028,6.203,13.663,14.204,-3.099,15.396,10.354,13.702,6.053,9.638
Thu Dec 05 12:45:27 2024,95,-15.193,-15.193,-0.107,0.107,1.929,22.221,10.055,6.167,13.714,14.224,-3.132,15.381,10.399,13.673,6.096,9.722
Thu Dec 05 12:45:27 2024,100,-15.197,-15.197,-0.115,0.115,1.936,22.221,10.090,6.170,13.720,14.260,-3.133,15.377,10.430,13.663,6.108,9.747
Thu Dec 05 12:45:27 2024,105,-15.227,-15.227,-0.105,0.105,1.945,22.240,10.140,6.226,13.663,14.324,-3.093,15.388,10.450,13.676,6.078,9.694
Thu Dec 05 12:45:27 2024,110,-15.251,-15.251,-0.117,0.117,1.955,22.252,10.180,6.256,13.636,14.352,-3.063,15.370,10.459,13.686,6.054,9.680
Thu Dec 05 12:45:27 2024,115,-15.256,-15.256,-0.178,0.178,1.960,22.247,10.189,6.227,13.673,14.301,-3.064,15.304,10.446,13.689,6.050,9.741
Thu Dec 05 12:45:27 2024,120,-15.256,-15.256,-0.240,0.240,1.968,22.241,10.178,6.206,13.700,14.258,-3.064,15.240,10.429,13.679,6.055,9.786
Thu Dec 05 12:45:27 2024,125,-15.238,-15.238,-0.276,0.276,1.978,22.233,10.101,6.220,13.685,14.256,-3.062,15.207,10.402,13.625,6.095,9.756
Thu Dec 05 12:45:27 2024,130,-15.221,-15.221,0.312,0.312,1.988,22.226,10.027,6.234,13.670,14.253,-3.060,15.176,10.377,13.574,6.134,9.727
Thu Dec 05 12:45:27 2024,135,-15.216,-15.216,0.275,0.275,1.939,22.145,10.023,6.151,13.770,14.271,-3.138,15.106,10.402,13.581,6.141,9.772
Thu Dec 05 12:45:27 2024,140,-15.213,-15.213,-0.245,0.245,1.904,22.090,10.022,6.094,13.837,14.282,-3.191,15.059,10.415,13.585,6.147,9.799
Thu Dec 05 12:45:27 2024,145,-15.238,-15.238,-0.188,0.188,1.914,22.141,10.094,6.140,13.772,14.253,-3.139,15.140,10.356,13.602,6.126,9.744
Thu Dec 05 12:45:27 2024,150,-15.252,-15.252,-0.140,0.140,1.927,22.192,10.148,6.184,13.710,14.229,-3.092,15.209,10.304,13.620,6.105,9.698
Thu Dec 05 12:45:27 2024,155,-15.195,-15.195,-0.136,0.136,1.963,22.204,10.079,6.200,13.692,14.246,-3.088,15.191,10.306,13.643,6.090,9.733
Thu Dec 05 12:45:27 2024,160,-15.131,-15.131,-0.131,0.131,2.003,22.221,10.003,6.216,13.673,14.266,-3.085,15.172,10.309,13.670,6.074,9.778
Thu Dec 05 12:45:27 2024,165,-15.146,-15.146,-0.152,0.152,1.977,22.234,10.047,6.173,13.710,14.274,-3.089,15.189,10.322,13.672,6.090,9.855
Thu Dec 05 12:45:27 2024,170,-15.158,-15.158,-0.172,0.172,1.957,22.246,10.082,6.140,13.739,14.280,-3.093,15.202,10.332,13.673,6.102,9.916
Thu Dec 05 12:45:27 2024,175,-15.163,-15.163,-0.110,0.110,1.980,22.261,10.062,6.187,13.692,14.238,-3.102,15.155,10.289,13.691,6.087,9.877
Thu Dec 05 12:45:27 2024,180,-15.165,-15.165,-0.091,0.091,2.001,22.272,10.042,6.228,13.650,14.203,-3.109,15.115,10.253,13.705,6.074,9.840
Thu Dec 05 12:45:27 2024,185,-15.173,-15.173,-0.095,0.095,1.959,22.257,9.984,6.197,13.690,14.156,-3.155,15.059,10.232,13.677,6.104,9.853
Thu Dec 05 12:45:27 2024,190,-15.182,-15.182,-0.125,0.125,1.903,22.239,9.915,6.150,13.747,14.105,-3.210,14.999,10.214,13.639,6.144,9.877
Thu Dec 05 12:45:27 2024,195,-15.182,-15.182,-0.190,0.190,1.936,22.225,9.966,6.216,13.689,14.148,-3.167,14.983,10.228,13.650,6.142,9.939
Thu Dec 05 12:45:27 2024,200,-15.181,-15.181,0.268,0.268,1.979,22.217,10.028,6.294,13.619,14.201,-3.114,14.970,10.246,13.667,6.137,10.006
Thu Dec 05 12:45:27 2024,205,-15.209,-15.209,0.301,0.301,2.033,22.283,10.090,6.271,13.651,14.200,-3.151,14.929,10.233,13.644,6.139,9.968
Thu Dec 05 12:45:27 2024,210,-15.238,-15.238,-0.309,0.309,2.075,22.355,10.133,6.222,13.708,14.181,-3.207,14.890,10.215,13.615,6.141,9.906
Thu Dec 05 12:45:27 2024,215,-15.184,-15.184,-0.241,0.241,2.078,22.333,10.052,6.224,13.712,14.130,-3.201,14.847,10.191,13.678,6.095,9.947
Thu Dec 05 12:45:27 2024,220,-15.112,-15.112,-0.159,0.159,2.071,22.290,9.945,6.238,13.702,14.074,-3.180,14.806,10.168,13.762,6.038,10.013
Thu Dec 05 12:45:27 2024,225,-15.121,-15.121,-0.162,0.162,2.047,22.282,10.001,6.239,13.695,14.128,-3.171,14.812,10.202,13.764,6.042,10.041
Thu Dec 05 12:45:27 2024,230,-15.161,-15.161,-0.193,0.193,2.012,22.285,10.127,6.235,13.687,14.232,-3.165,14.836,10.263,13.740,6.067,10.063
Thu Dec 05 12:45:27 2024,235,-15.185,-15.185,-0.219,0.219,2.057,22.342,10.145,6.234,13.694,14.214,-3.182,14.808,10.235,13.714,6.082,10.030
Thu Dec 05 12:45:27 2024,240,-15.201,-15.201,-0.241,0.241,2.141,22.424,10.108,6.234,13.707,14.134,-3.210,14.753,10.162,13.689,6.090,9.972
Thu Dec 05 12:45:27 2024,245,-15.222,-15.222,-0.253,0.253,2.144,22.438,10.148,6.246,13.701,14.139,-3.217,14.774,10.195,13.681,6.094,9.962
Thu Dec 05 12:45:27 2024,250,-15.250,-15.250,-0.259,0.259,2.100,22.415,10.247,6.269,13.681,14.197,-3.214,14.847,10.299,13.681,6.096,9.981
Thu Dec 05 12:45:27 2024,255,-15.230,-15.230,-0.241,0.241,2.080,22.407,10.188,6.247,13.700,14.155,-3.201,14.906,10.283,13.673,6.109,9.952
Thu Dec 05 12:45:27 2024,260,-15.179,-15.179,-0.208,0.208,2.071,22.408,10.027,6.195,13.745,14.049,-3.178,14.962,10.194,13.659,6.129,9.892
Thu Dec 05 12:45:27 2024,265,-15.194,-15.194,-0.214,0.214,2.068,22.430,10.014,6.204,13.731,14.059,-3.168,14.965,10.193,13.690,6.100,9.923
Thu Dec 05 12:45:27 2024,270,-15.267,-15.267,-0.255,0.255,2.070,22.468,10.133,6.264,13.666,14.170,-3.168,14.922,10.273,13.757,6.031,10.031
Thu Dec 05 12:45:27 2024,275,-15.309,-15.309,0.276,0.276,2.057,22.460,10.166,6.255,13.674,14.206,-3.177,14.922,10.309,13.764,6.021,10.061
Thu Dec 05 12:45:27 2024,280,-15.304,-15.304,0.267,0.267,2.026,22.397,10.086,6.163,13.768,14.142,-3.194,14.975,10.283,13.699,6.086,9.987
Thu Dec 05 12:45:27 2024,285,-15.301,-15.301,0.231,0.231,2.034,22.397,10.036,6.142,13.794,14.090,-3.204,14.968,10.246,13.662,6.114,9.916
Thu Dec 05 12:45:27 2024,290,-15.300,-15.300,-0.171,0.171,2.080,22.456,10.014,6.186,13.754,14.048,-3.208,14.904,10.198,13.654,6.109,9.848
Thu Dec 05 12:45:27 2024,295,-15.291,-15.291,-0.133,0.133,2.098,22.469,10.009,6.222,13.722,14.038,-3.201,14.870,10.178,13.673,6.083,9.827
Thu Dec 05 12:45:27 2024,300,-15.266,-15.266,-0.118,0.118,2.063,22.386,10.040,6.248,13.699,14.094,-3.168,14.892,10.214,13.764,6.008,9.904
Thu Dec 05 12:45:27 2024,305,-15.248,-15.248,-0.110,0.110,2.035,22.339,10.047,6.251,13.694,14.131,-3.164,14.902,10.236,13.791,5.990,9.935
Thu Dec 05 12:45:27 2024,310,-15.234,-15.234,-0.108,0.108,2.006,22.342,10.013,6.211,13.724,14.146,-3.220,14.892,10.242,13.702,6.080,9.884
Thu Dec 05 12:45:27 2024,315,-15.218,-15.218,-0.131,0.131,1.990,22.340,10.022,6.188,13.741,14.152,-3.249,14.903,10.250,13.669,6.119,9.880
Thu Dec 05 12:45:27 2024,320,-15.200,-15.200,-0.196,0.196,1.993,22.330,10.103,6.193,13.740,14.142,-3.235,14.950,10.264,13.728,6.072,9.954
Thu Dec 05 12:45:27 2024,325,-15.185,-15.185,-0.226,0.226,2.011,22.346,10.170,6.201,13.738,14.133,-3.218,15.003,10.275,13.758,6.041,9.968
Thu Dec 05 12:45:27 2024,330,-15.192,-15.192,-0.128,0.128,2.066,22.439,10.158,6.210,13.732,14.133,-3.203,15.047,10.274,13.676,6.081,9.791
Thu Dec 05 12:45:27 2024,335,-15.206,-15.206,-0.084,0.084,2.111,22.504,10.143,6.224,13.718,14.142,-3.193,15.061,10.266,13.605,6.123,9.676
Thu Dec 05 12:45:27 2024,340,-15.236,-15.236,-0.180,0.180,2.112,22.460,10.121,6.251,13.678,14.178,-3.200,14.973,10.229,13.585,6.176,9.799
Thu Dec 05 12:45:27 2024,345,-15.272,-15.272,0.297,0.297,2.113,22.416,10.098,6.279,13.635,14.221,-3.209,14.874,10.193,13.564,6.230,9.930
Thu Dec 05 12:45:27 2024,350,-15.305,-15.305,-0.229,0.229,2.109,22.421,10.118,6.267,13.643,14.280,-3.219,14.854,10.224,13.585,6.207,9.880
Thu Dec 05 12:45:27 2024,355,-15.333,-15.333,-0.168,0.168,2.109,22.429,10.136,6.256,13.652,14.333,-3.227,14.835,10.253,13.605,6.183,9.834
Thu Dec 05 12:45:27 2024,360,-15.262,-15.262,-0.166,0.166,2.164,22.484,10.134,6.247,13.677,14.279,-3.202,14.848,10.242,13.601,6.167,9.843
Thu Dec 05 12:45:27 2024,365,-15.198,-15.198,-0.163,0.163,2.215,22.534,10.131,6.239,13.698,14.228,-3.178,14.861,10.230,13.596,6.150,9.851
Thu Dec 05 12:45:27 2024,370,-15.237,-15.237,-0.159,0.159,2.194,22.518,10.104,6.240,13.694,14.173,-3.185,14.881,10.193,13.598,6.162,9.814
Thu Dec 05 12:45:27 2024,375,-15.274,-15.274,-0.156,0.156,2.174,22.503,10.078,6.241,13.689,14.119,-3.192,14.901,10.157,13.600,6.172,9.778
Thu Dec 05 12:45:27 2024,380,-15.262,-15.262,-0.174,0.174,2.119,22.491,10.145,6.227,13.695,14.211,-3.179,15.002,10.291,13.612,6.161,9.859
Thu Dec 05 12:45:27 2024,385,-15.245,-15.245,-0.195,0.195,2.063,22.484,10.219,6.212,13.701,14.314,-3.165,15.104,10.438,13.626,6.148,9.951
Thu Dec 05 12:45:27 2024,390,-15.239,-15.239,-0.114,0.114,2.087,22.489,10.123,6.223,13.679,14.244,-3.171,15.079,10.313,13.615,6.149,9.828
Thu Dec 05 12:45:27 2024,395,-15.237,-15.237,-0.066,0.066,2.118,22.496,10.015,6.237,13.657,14.158,-3.178,15.041,10.167,13.603,6.151,9.692
Thu Dec 05 12:45:27 2024,400,-15.300,-15.300,-0.095,0.095,2.129,22.502,10.115,6.268,13.634,14.186,-3.166,14.961,10.177,13.611,6.148,9.752
Thu Dec 05 12:45:27 2024,405,-15.365,-15.365,-0.174,0.174,2.131,22.501,10.241,6.295,13.618,14.235,-3.152,14.884,10.223,13.625,6.143,9.848
Thu Dec 05 12:45:27 2024,410,-15.319,-15.319,-0.147,0.147,2.105,22.409,10.108,6.250,13.663,14.205,-3.171,14.868,10.211,13.628,6.140,9.843
Thu Dec 05 12:45:27 2024,415,-15.252,-15.252,-0.105,0.105,2.076,22.309,9.928,6.191,13.719,14.159,-3.195,14.865,10.188,13.631,6.138,9.816
Thu Dec 05 12:45:27 2024,420,-15.271,-15.271,-0.136,0.136,2.099,22.368,9.997,6.243,13.670,14.171,-3.153,14.897,10.167,13.655,6.120,9.802
Thu Dec 05 12:45:27 2024,425,-15.299,-15.299,-0.182,0.182,2.125,22.439,10.089,6.299,13.617,14.189,-3.112,14.926,10.151,13.677,6.103,9.794
Thu Dec 05 12:45:27 2024,430,-15.280,-15.280,-0.221,0.221,2.071,22.366,10.098,6.267,13.647,14.204,-3.112,14.978,10.166,13.646,6.137,9.788
Thu Dec 05 12:45:27 2024,435,-15.235,-15.235,0.247,0.247,1.970,22.205,10.049,6.178,13.730,14.214,-3.140,15.036,10.198,13.584,6.201,9.785
Thu Dec 05 12:45:27 2024,440,-15.248,-15.248,-0.213,0.213,1.989,22.242,10.130,6.167,13.742,14.222,-3.167,15.026,10.223,13.623,6.167,9.864
Thu Dec 05 12:45:27 2024,445,-15.279,-15.279,-0.171,0.171,2.047,22.343,10.236,6.189,13.725,14.226,-3.187,14.993,10.238,13.689,6.106,9.952
Thu Dec 05 12:45:27 2024,450,-15.311,-15.311,-0.170,0.170,2.058,22.377,10.200,6.230,13.681,14.233,-3.182,14.964,10.223,13.640,6.127,9.816
Thu Dec 05 12:45:27 2024,455,-15.328,-15.328,-0.193,0.193,2.034,22.352,10.086,6.266,13.637,14.239,-3.162,14.951,10.194,13.536,6.191,9.592
Thu Dec 05 12:45:27 2024,460,-15.307,-15.307,-0.188,0.188,2.032,22.348,10.028,6.276,13.619,14.236,-3.130,15.011,10.203,13.532,6.186,9.539
Thu Dec 05 12:45:27 2024,465,-15.246,-15.246,-0.152,0.152,2.056,22.369,10.035,6.259,13.629,14.224,-3.089,15.145,10.253,13.636,6.108,9.673
Thu Dec 05 12:45:27 2024,470,-15.192,-15.192,-0.120,0.120,2.074,22.386,10.036,6.264,13.620,14.210,-3.060,15.218,10.248,13.684,6.073,9.694
Thu Dec 05 12:45:27 2024,475,-15.161,-15.161,-0.105,0.105,2.077,22.394,10.032,6.295,13.591,14.197,-3.052,15.199,10.185,13.654,6.099,9.581
Thu Dec 05 12:45:27 2024,480,-15.176,-15.176,-0.101,0.101,2.039,22.345,10.012,6.275,13.609,14.187,-3.079,15.165,10.151,13.625,6.130,9.521
Thu Dec 05 12:45:27 2024,485,-15.264,-15.264,-0.134,0.134,1.941,22.216,9.972,6.175,13.700,14.184,-3.154,15.118,10.177,13.610,6.159,9.574
Thu Dec 05 12:45:27 2024,490,-15.290,-15.290,-0.152,0.152,1.904,22.167,9.937,6.125,13.744,14.177,-3.177,15.125,10.206,13.596,6.181,9.611
Thu Dec 05 12:45:27 2024,495,-15.238,-15.238,-0.144,0.144,1.940,22.215,9.905,6.132,13.732,14.163,-3.136,15.208,10.243,13.581,6.199,9.633
Thu Dec 05 12:45:27 2024,500,-15.213,-15.213,-0.143,0.143,1.964,22.259,9.888,6.147,13.711,14.166,-3.099,15.269,10.272,13.578,6.204,9.650
Thu Dec 05 12:45:27 2024,505,-15.274,-15.274,-0.157,0.157,1.950,22.289,9.925,6.191,13.662,14.225,-3.071,15.262,10.279,13.612,6.170,9.651
Thu Dec 05 12:45:27 2024,510,-15.298,-15.298,-0.162,0.162,1.944,22.298,9.966,6.227,13.628,14.270,-3.053,15.260,10.293,13.639,6.142,9.657
Thu Dec 05 12:45:27 2024,515,-15.190,-15.190,-0.130,0.130,1.972,22.227,10.051,6.253,13.628,14.286,-3.063,15.281,10.350,13.653,6.121,9.686
Thu Dec 05 12:45:27 2024,520,-15.139,-15.139,-0.097,0.097,1.978,22.194,10.113,6.261,13.635,14.301,-3.074,15.300,10.392,13.651,6.120,9.696
Thu Dec 05 12:45:27 2024,525,-15.214,-15.214,-0.066,0.066,1.933,22.226,10.148,6.219,13.667,14.318,-3.094,15.325,10.423,13.601,6.176,9.666
Thu Dec 05 12:45:27 2024,530,-15.267,-15.267,-0.074,0.074,1.906,22.261,10.160,6.193,13.685,14.316,-3.115,15.340,10.425,13.569,6.212,9.629
Thu Dec 05 12:45:27 2024,535,-15.243,-15.243,-0.097,0.097,1.940,22.270,10.097,6.217,13.661,14.256,-3.140,15.321,10.338,13.593,6.182,9.578
Thu Dec 05 12:45:27 2024,540,-15.217,-15.217,-0.156,0.156,1.973,22.282,10.031,6.243,13.634,14.196,-3.161,15.316,10.261,13.614,6.156,9.532
Thu Dec 05 12:45:27 2024,545,-15.201,-15.201,-0.137,0.137,1.973,22.294,10.002,6.260,13.620,14.194,-3.134,15.407,10.335,13.601,6.180,9.569
Thu Dec 05 12:45:27 2024,550,-15.187,-15.187,-0.120,0.120,1.973,22.304,9.976,6.274,13.608,14.192,-3.112,15.483,10.399,13.589,6.200,9.601
Thu Dec 05 12:45:27 2024,555,-15.222,-15.222,-0.120,0.120,1.928,22.246,9.982,6.200,13.690,14.188,-3.187,15.303,10.369,13.562,6.218,9.629
Thu Dec 05 12:45:27 2024,560,-15.253,-15.253,-0.122,0.122,1.890,22.196,9.986,6.136,13.760,14.184,-3.251,15.147,10.344,13.539,6.233,9.654
Thu Dec 05 12:45:27 2024,565,-15.233,-15.233,-0.180,0.180,1.862,22.172,10.001,6.130,13.756,14.181,-3.246,15.226,10.348,13.519,6.270,9.687
Thu Dec 05 12:45:27 2024,570,-15.216,-15.216,-0.231,0.231,1.844,22.160,10.014,6.131,13.745,14.176,-3.237,15.300,10.350,13.502,6.301,9.711
Thu Dec 05 12:45:27 2024,575,-15.246,-15.246,-0.163,0.163,1.915,22.243,10.017,6.183,13.705,14.149,-3.238,15.219,10.292,13.510,6.269,9.636
Thu Dec 05 12:45:27 2024,580,-15.275,-15.275,-0.112,0.112,1.983,22.323,10.021,6.232,13.667,14.123,-3.239,15.140,10.237,13.517,6.238,9.565
Thu Dec 05 12:45:27 2024,585,-15.254,-15.254,-0.110,0.110,1.967,22.275,9.977,6.210,13.690,14.096,-3.234,15.153,10.228,13.524,6.224,9.551
Thu Dec 05 12:45:27 2024,590,-15.224,-15.224,-0.120,0.120,1.937,22.208,9.927,6.175,13.724,14.071,-3.229,15.183,10.229,13.531,6.214,9.550
Thu Dec 05 12:45:27 2024,595,-15.223,-15.223,-0.145,0.145,1.925,22.215,9.934,6.173,13.716,14.100,-3.187,15.302,10.299,13.538,6.214,9.575
Thu Dec 05 12:45:27 2024,600,-15.230,-15.230,-0.180,0.180,1.918,22.245,9.957,6.180,13.694,14.149,-3.130,15.458,10.396,13.545,6.217,9.609
Thu Dec 05 12:45:27 2024,605,-15.278,-15.278,-0.189,0.189,1.957,22.310,9.992,6.215,13.679,14.113,-3.210,15.197,10.276,13.531,6.233,9.621
Thu Dec 05 12:45:27 2024,610,-15.327,-15.327,-0.196,0.196,1.999,22.375,10.025,6.252,13.664,14.071,-3.302,14.903,10.141,13.515,6.249,9.629
Thu Dec 05 12:45:27 2024,615,-15.313,-15.313,-0.149,0.149,1.981,22.328,10.007,6.221,13.701,14.081,-3.281,14.937,10.181,13.526,6.240,9.661
Thu Dec 05 12:45:27 2024,620,-15.288,-15.288,-0.106,0.106,1.954,22.267,9.981,6.182,13.742,14.100,-3.242,15.032,10.250,13.542,6.228,9.694
Thu Dec 05 12:45:27 2024,625,-15.290,-15.290,-0.103,0.103,1.967,22.270,10.076,6.179,13.747,14.143,-3.214,15.130,10.327,13.598,6.173,9.753
Thu Dec 05 12:45:27 2024,630,-15.305,-15.305,-0.125,0.125,2.000,22.303,10.227,6.195,13.732,14.195,-3.194,15.228,10.405,13.674,6.099,9.825
Thu Dec 05 12:45:27 2024,635,-15.303,-15.303,-0.114,0.114,2.011,22.323,10.234,6.177,13.761,14.178,-3.199,15.170,10.382,13.663,6.102,9.805
Thu Dec 05 12:45:27 2024,640,-15.295,-15.295,-0.101,0.101,2.010,22.332,10.186,6.150,13.799,14.139,-3.212,15.066,10.326,13.621,6.134,9.756
Thu Dec 05 12:45:27 2024,645,-15.274,-15.274,-0.096,0.096,1.987,22.277,10.109,6.157,13.790,14.139,-3.258,14.975,10.294,13.583,6.172,9.753
Thu Dec 05 12:45:27 2024,650,-15.248,-15.248,-0.101,0.101,1.949,22.181,10.020,6.188,13.748,14.170,-3.324,14.903,10.285,13.550,6.212,9.786
Thu Dec 05 12:45:27 2024,655,-15.260,-15.260,-0.114,0.114,1.924,22.169,10.016,6.195,13.728,14.160,-3.313,14.946,10.274,13.534,6.228,9.758
Thu Dec 05 12:45:27 2024,660,-15.290,-15.290,-0.130,0.130,1.906,22.199,10.052,6.191,13.720,14.131,-3.265,15.041,10.264,13.527,6.232,9.702
Thu Dec 05 12:45:27 2024,665,-15.312,-15.312,-0.152,0.152,1.925,22.250,10.092,6.177,13.730,14.108,-3.252,15.087,10.243,13.552,6.217,9.701
Thu Dec 05 12:45:27 2024,670,-15.322,-15.322,-0.181,0.181,1.973,22.309,10.127,6.157,13.757,14.096,-3.273,15.078,10.216,13.602,6.186,9.751
Thu Dec 05 12:45:27 2024,675,-15.284,-15.284,-0.202,0.202,1.979,22.301,10.126,6.145,13.778,14.108,-3.264,15.064,10.242,13.634,6.156,9.791
Thu Dec 05 12:45:27 2024,680,-15.198,-15.198,-0.214,0.214,1.948,22.233,10.091,6.137,13.794,14.146,-3.223,15.041,10.320,13.652,6.123,9.826
Thu Dec 05 12:45:27 2024,685,-15.184,-15.184,-0.197,0.197,1.919,22.201,10.115,6.128,13.801,14.205,-3.191,15.090,10.407,13.681,6.096,9.871
Thu Dec 05 12:45:27 2024,690,-15.274,-15.274,-0.128,0.128,1.882,22.212,10.241,6.112,13.794,14.324,-3.156,15.275,10.548,13.740,6.065,9.951
Thu Dec 05 12:45:27 2024,695,-15.297,-15.297,-0.110,0.110,1.898,22.230,10.247,6.133,13.771,14.339,-3.144,15.299,10.550,13.717,6.085,9.932
Thu Dec 05 12:45:27 2024,700,-15.250,-15.250,-0.137,0.137,1.982,22.263,10.116,6.205,13.724,14.236,-3.155,15.144,10.391,13.592,6.168,9.792
Thu Dec 05 12:45:27 2024,705,-15.228,-15.228,-0.166,0.166,2.024,22.280,10.068,6.244,13.696,14.199,-3.147,15.071,10.327,13.551,6.194,9.758
Thu Dec 05 12:45:27 2024,710,-15.249,-15.249,-0.222,0.222,2.000,22.264,10.174,6.230,13.699,14.281,-3.093,15.146,10.435,13.674,6.111,9.935
Thu Dec 05 12:45:27 2024,715,-15.262,-15.262,-0.245,0.245,1.968,22.243,10.239,6.214,13.707,14.327,-3.062,15.200,10.496,13.750,6.058,10.032
Thu Dec 05 12:45:27 2024,720,-15.260,-15.260,-0.190,0.190,1.887,22.188,10.247,6.180,13.735,14.305,-3.073,15.244,10.471,13.756,6.050,9.976
Thu Dec 05 12:45:27 2024,725,-15.259,-15.259,-0.152,0.152,1.822,22.146,10.254,6.153,13.757,14.288,-3.082,15.277,10.452,13.761,6.045,9.933
Thu Dec 05 12:45:27 2024,730,-15.186,-15.186,-0.183,0.183,1.860,22.165,10.324,6.139,13.777,14.360,-3.119,15.214,10.479,13.716,6.087,9.985
Thu Dec 05 12:45:27 2024,735,-15.138,-15.138,-0.214,0.214,1.889,22.175,10.355,6.141,13.780,14.396,-3.144,15.148,10.483,13.686,6.114,10.022
Thu Dec 05 12:45:27 2024,740,-15.137,-15.137,-0.257,0.257,1.926,22.175,10.281,6.206,13.724,14.344,-3.143,15.011,10.422,13.684,6.120,10.056
Thu Dec 05 12:45:27 2024,745,-15.137,-15.137,-0.273,0.273,1.962,22.184,10.226,6.257,13.678,14.304,-3.132,14.915,10.369,13.686,6.118,10.078
Thu Dec 05 12:45:27 2024,750,-15.147,-15.147,-0.169,0.169,1.998,22.222,10.249,6.251,13.676,14.317,-3.065,15.019,10.353,13.720,6.080,10.039
Thu Dec 05 12:45:27 2024,755,-15.155,-15.155,-0.127,0.127,2.027,22.254,10.269,6.246,13.673,14.329,-3.010,15.104,10.339,13.747,6.048,10.007
Thu Dec 05 12:45:27 2024,760,-15.112,-15.112,-0.119,0.119,1.965,22.152,10.222,6.175,13.775,14.204,-3.120,14.861,10.279,13.720,6.064,10.034
Thu Dec 05 12:45:27 2024,765,-15.085,-15.085,-0.131,0.131,1.922,22.086,10.188,6.132,13.835,14.120,-3.197,14.691,10.240,13.702,6.075,10.061
Thu Dec 05 12:45:27 2024,770,-15.119,-15.119,-0.148,0.148,1.947,22.160,10.200,6.199,13.756,14.181,-3.164,14.772,10.288,13.721,6.068,10.112
Thu Dec 05 12:45:27 2024,775,-15.152,-15.152,-0.163,0.163,1.971,22.235,10.212,6.264,13.678,14.240,-3.133,14.849,10.333,13.739,6.060,10.160
Thu Dec 05 12:45:27 2024,780,-15.146,-15.146,-0.150,0.150,1.967,22.301,10.308,6.195,13.746,14.247,-3.099,14.925,10.321,13.716,6.073,10.046
Thu Dec 05 12:45:27 2024,785,-15.137,-15.137,-0.138,0.138,1.961,22.363,10.398,6.125,13.815,14.249,-3.070,14.990,10.306,13.693,6.085,9.936
Thu Dec 05 12:45:27 2024,790,-15.112,-15.112,-0.110,0.110,2.050,22.513,10.407,6.226,13.717,14.203,-3.076,14.864,10.240,13.766,6.030,10.034
Thu Dec 05 12:45:27 2024,795,-15.090,-15.090,-0.106,0.106,2.133,22.646,10.403,6.328,13.616,14.160,-3.084,14.736,10.180,13.838,5.976,10.140
Thu Dec 05 12:45:27 2024,800,-14.995,-14.995,-0.106,-0.106,2.124,22.563,10.305,6.342,13.613,14.120,-3.093,14.708,10.174,13.855,5.956,10.168
Thu Dec 05 12:45:27 2024,805,-14.893,-14.893,-0.114,-0.114,2.097,22.446,10.194,6.335,13.630,14.085,-3.100,14.706,10.180,13.860,5.945,10.176
Thu Dec 05 12:45:27 2024,810,-14.904,-14.904,-0.112,-0.112,2.093,22.468,10.229,6.272,13.698,14.086,-3.102,14.748,10.217,13.834,5.962,10.161
Thu Dec 05 12:45:27 2024,815,-14.943,-14.943,-0.104,-0.104,2.096,22.528,10.306,6.203,13.768,14.102,-3.102,14.797,10.262,13.802,5.984,10.141
Thu Dec 05 12:45:27 2024,820,-14.929,-14.929,-0.097,-0.097,2.109,22.547,10.354,6.233,13.735,14.142,-3.069,14.804,10.300,13.814,5.970,10.149
Thu Dec 05 12:45:27 2024,825,-14.882,-14.882,-0.086,-0.086,2.126,22.537,10.382,6.322,13.639,14.195,-3.021,14.782,10.330,13.851,5.934,10.173
Thu Dec 05 12:45:27 2024,830,-14.828,-14.828,-0.091,-0.091,2.115,22.480,10.354,6.347,13.617,14.172,-3.024,14.776,10.309,13.850,5.929,10.153
Thu Dec 05 12:45:27 2024,835,-14.769,-14.769,-0.108,-0.108,2.085,22.392,10.288,6.328,13.642,14.100,-3.061,14.780,10.254,13.824,5.945,10.105
Thu Dec 05 12:45:27 2024,840,-14.770,-14.770,-0.072,-0.072,2.084,22.422,10.312,6.313,13.656,14.116,-3.086,14.767,10.262,13.820,5.949,10.092
Thu Dec 05 12:45:27 2024,845,-14.794,-14.794,-0.054,0.054,2.095,22.501,10.369,6.301,13.662,14.170,-3.101,14.748,10.298,13.824,5.948,10.093
Thu Dec 05 12:45:27 2024,850,-14.781,-14.781,-0.066,0.066,2.099,22.523,10.358,6.310,13.647,14.188,-3.069,14.786,10.308,13.839,5.944,10.110
Thu Dec 05 12:45:27 2024,855,-14.748,-14.748,-0.059,0.059,2.097,22.500,10.305,6.331,13.623,14.177,-3.013,14.851,10.301,13.857,5.939,10.134
Thu Dec 05 12:45:27 2024,860,-14.759,-14.759,-0.082,0.082,2.121,22.547,10.273,6.359,13.585,14.163,-2.984,14.966,10.303,13.890,5.919,10.145
Thu Dec 05 12:45:27 2024,865,-14.807,-14.807,-0.128,0.128,2.167,22.653,10.256,6.394,13.533,14.146,-2.977,15.115,10.313,13.936,5.889,10.147
Thu Dec 05 12:45:27 2024,870,-14.824,-14.824,-0.138,0.138,2.164,22.640,10.219,6.387,13.532,14.153,-3.022,15.075,10.300,13.920,5.902,10.118
Thu Dec 05 12:45:27 2024,875,-14.815,-14.815,-0.120,0.120,2.127,22.550,10.175,6.353,13.568,14.173,-3.092,14.917,10.273,13.869,5.942,10.075
Thu Dec 05 12:45:27 2024,880,-14.797,-14.797,-0.091,0.091,2.094,22.458,10.114,6.335,13.585,14.183,-3.111,14.851,10.256,13.826,5.971,10.006
Thu Dec 05 12:45:27 2024,885,-14.773,-14.773,-0.062,0.062,2.076,22.393,10.054,6.344,13.571,14.176,-3.056,14.927,10.257,13.810,5.977,9.926
Thu Dec 05 12:45:27 2024,890,-14.769,-14.769,-0.051,0.051,2.066,22.374,10.048,6.367,13.541,14.172,-3.007,15.003,10.260,13.803,5.968,9.836
Thu Dec 05 12:45:27 2024,895,-14.794,-14.794,-0.056,0.056,2.068,22.417,10.115,6.404,13.496,14.176,-2.981,15.051,10.265,13.806,5.942,9.747
Thu Dec 05 12:45:27 2024,900,-14.835,-14.835,-0.059,0.059,2.044,22.423,10.138,6.401,13.496,14.181,-2.968,15.120,10.290,13.823,5.922,9.707
Thu Dec 05 12:45:27 2024,905,-14.890,-14.890,-0.068,0.068,1.990,22.380,10.102,6.348,13.554,14.188,-2.976,15.210,10.340,13.858,5.911,9.736
Thu Dec 05 12:45:27 2024,910,-14.887,-14.887,-0.066,0.066,1.954,22.328,10.044,6.327,13.575,14.186,-2.987,15.242,10.363,13.877,5.909,9.768
Thu Dec 05 12:45:27 2024,915,-14.787,-14.787,-0.107,0.107,1.946,22.264,9.948,6.356,13.537,14.165,-3.003,15.184,10.344,13.871,5.922,9.803
Thu Dec 05 12:45:27 2024,920,-14.732,-14.732,0.012,0.126,1.940,22.246,9.908,6.360,13.532,14.140,-3.028,15.188,10.335,13.828,5.960,9.779
Thu Dec 05 12:45:27 2024,925,-14.718,-14.718,-0.082,0.082,1.937,22.286,9.929,6.329,13.569,14.099,-3.072,15.281,10.338,13.716,6.048,9.661
Thu Dec 05 12:45:27 2024,930,-14.723,-14.723,-0.061,0.061,1.956,22.342,9.936,6.320,13.582,14.056,-3.088,15.338,10.326,13.657,6.090,9.579
Thu Dec 05 12:45:27 2024,935,-14.768,-14.768,-0.090,0.090,2.076,22.490,9.854,6.396,13.506,13.953,-3.022,15.316,10.234,13.734,6.012,9.551
Thu Dec 05 12:45:27 2024,940,-14.805,-14.805,-0.105,0.105,2.154,22.592,9.809,6.446,13.452,13.905,-2.985,15.289,10.178,13.794,5.956,9.556
Thu Dec 05 12:45:27 2024,945,-14.822,-14.822,-0.077,0.077,2.114,22.578,9.883,6.422,13.460,14.030,-3.039,15.256,10.231,13.795,5.969,9.664
Thu Dec 05 12:45:27 2024,950,-14.831,-14.831,-0.052,0.052,2.078,22.551,9.931,6.403,13.465,14.140,-3.080,15.224,10.279,13.789,5.987,9.747
Thu Dec 05 12:45:27 2024,955,-14.793,-14.793,0.086,0.086,2.096,22.473,9.782,6.421,13.449,14.113,-3.016,15.206,10.269,13.753,6.014,9.652
Thu Dec 05 12:45:27 2024,960,-14.761,-14.761,0.129,0.129,2.110,22.399,9.646,6.431,13.442,14.090,-2.955,15.196,10.269,13.718,6.040,9.571
Thu Dec 05 12:45:27 2024,965,-14.797,-14.797,0.114,0.114,2.084,22.340,9.683,6.364,13.520,14.110,-2.960,15.259,10.347,13.709,6.043,9.657
Thu Dec 05 12:45:27 2024,970,-14.829,-14.829,0.097,0.097,2.062,22.298,9.722,6.309,13.583,14.128,-2.967,15.310,10.410,13.705,6.044,9.733
Thu Dec 05 12:45:27 2024,975,-14.783,-14.783,-0.036,0.036,2.072,22.373,9.749,6.354,13.537,14.102,-3.024,15.329,10.390,13.665,6.089,9.672
Thu Dec 05 12:45:27 2024,980,-14.741,-14.741,-0.041,-0.041,2.082,22.460,9.762,6.401,13.489,14.065,-3.080,15.351,10.361,13.626,6.132,9.594
Thu Dec 05 12:45:27 2024,985,-14.768,-14.768,-0.052,-0.052,2.090,22.508,9.704,6.396,13.488,13.984,-3.118,15.425,10.324,13.607,6.142,9.469
Thu Dec 05 12:45:27 2024,990,-14.804,-14.804,-0.056,-0.056,2.097,22.548,9.641,6.385,13.493,13.906,-3.149,15.498,10.290,13.594,6.147,9.351
Thu Dec 05 12:45:27 2024,995,-14.769,-14.769,-0.020,-0.020,2.094,22.584,9.555,6.400,13.447,13.913,-3.133,15.511,10.282,13.582,6.186,9.431
Thu Dec 05 12:45:28 2024,0,-14.734,-14.734,0.000,0.000,2.091,22.612,9.486,6.415,13.402,13.930,-3.114,15.512,10.281,13.574,6.220,9.520
Thu Dec 05 12:45:28 2024,5,-14.679,-14.679,-0.052,-0.052,2.188,22.694,9.499,6.442,13.386,13.938,-3.111,15.416,10.259,13.553,6.225,9.500
Thu Dec 05 12:45:28 2024,10,-14.628,-14.628,-0.103,-0.103,2.287,22.776,9.520,6.468,13.374,13.943,-3.111,15.316,10.238,13.533,6.225,9.469
Thu Dec 05 12:45:28 2024,15,-14.628,-14.628,-0.094,-0.094,2.267,22.716,9.498,6.474,13.378,13.895,-3.068,15.315,10.209,13.534,6.201,9.406
Thu Dec 05 12:45:28 2024,20,-14.649,-14.649,-0.070,-0.070,2.210,22.623,9.466,6.470,13.386,13.843,-3.023,15.351,10.187,13.543,6.176,9.349
Thu Dec 05 12:45:28 2024,25,-14.629,-14.629,-0.112,-0.112,2.222,22.619,9.506,6.484,13.382,13.910,-3.015,15.317,10.217,13.492,6.205,9.315
Thu Dec 05 12:45:28 2024,30,-14.598,-14.598,-0.172,-0.172,2.259,22.650,9.563,6.501,13.375,14.009,-3.022,15.263,10.261,13.430,6.248,9.296
Thu Dec 05 12:45:28 2024,35,-14.549,-14.549,-0.202,-0.202,2.300,22.735,9.611,6.506,13.371,14.019,-3.048,15.334,10.290,13.427,6.247,9.247
Thu Dec 05 12:45:28 2024,40,-14.502,-14.502,-0.213,-0.213,2.335,22.824,9.643,6.504,13.369,13.992,-3.075,15.437,10.306,13.450,6.228,9.196
Thu Dec 05 12:45:28 2024,45,-14.496,-14.496,-0.181,-0.181,2.329,22.807,9.642,6.440,13.448,13.927,-3.141,15.412,10.278,13.455,6.245,9.261
Thu Dec 05 12:45:28 2024,50,-14.514,-14.514,-0.130,-0.130,2.303,22.737,9.624,6.353,13.555,13.854,-3.215,15.325,10.230,13.448,6.278,9.373
Thu Dec 05 12:45:28 2024,55,-14.520,-14.520,-0.121,-0.121,2.306,22.732,9.587,6.355,13.550,13.788,-3.221,15.284,10.156,13.440,6.272,9.327
Thu Dec 05 12:45:28 2024,60,-14.520,-14.520,-0.138,-0.138,2.326,22.768,9.548,6.407,13.484,13.743,-3.185,15.280,10.086,13.434,6.244,9.203
Thu Dec 05 12:45:28 2024,65,-14.517,-14.517,-0.177,-0.177,2.329,22.803,9.527,6.428,13.451,13.741,-3.126,15.329,10.096,13.439,6.226,9.167
Thu Dec 05 12:45:28 2024,70,-14.513,-14.513,-0.227,-0.227,2.313,22.826,9.531,6.409,13.468,13.787,-3.064,15.417,10.190,13.456,6.228,9.238
Thu Dec 05 12:45:28 2024,75,-14.487,-14.487,-0.217,-0.217,2.315,22.821,9.509,6.381,13.503,13.779,-3.069,15.426,10.206,13.442,6.247,9.252
Thu Dec 05 12:45:28 2024,80,-14.441,-14.441,-0.158,-0.158,2.330,22.794,9.462,6.342,13.556,13.730,-3.125,15.376,10.165,13.402,6.281,9.224
Thu Dec 05 12:45:28 2024,85,-14.424,-14.424,-0.128,-0.128,2.334,22.768,9.444,6.334,13.570,13.722,-3.138,15.340,10.160,13.408,6.270,9.221
Thu Dec 05 12:45:28 2024,90,-14.440,-14.440,-0.127,-0.127,2.324,22.741,9.457,6.360,13.544,13.759,-3.108,15.318,10.194,13.460,6.209,9.243
Thu Dec 05 12:45:28 2024,95,-14.459,-14.459,-0.131,-0.131,2.288,22.692,9.462,6.365,13.534,13.786,-3.098,15.310,10.211,13.490,6.176,9.254
Thu Dec 05 12:45:28 2024,100,-14.487,-14.487,-0.150,-0.150,2.193,22.591,9.453,6.329,13.553,13.794,-3.128,15.329,10.194,13.478,6.196,9.247
Thu Dec 05 12:45:28 2024,105,-14.505,-14.505,-0.159,-0.159,2.166,22.571,9.468,6.325,13.549,13.816,-3.125,15.338,10.201,13.492,6.188,9.264
Thu Dec 05 12:45:28 2024,110,-14.508,-14.508,-0.140,-0.140,2.319,22.774,9.570,6.405,13.477,13.894,-3.017,15.326,10.279,13.598,6.087,9.366
Thu Dec 05 12:45:28 2024,115,-14.489,-14.489,-0.148,-0.148,2.345,22.799,9.592,6.419,13.465,13.919,-2.989,15.334,10.309,13.635,6.051,9.402
Thu Dec 05 12:45:28 2024,120,-14.439,-14.439,-0.191,-0.191,2.201,22.586,9.498,6.344,13.537,13.865,-3.070,15.368,10.270,13.572,6.107,9.339
Thu Dec 05 12:45:28 2024,125,-14.384,-14.384,-0.244,-0.244,2.118,22.450,9.444,6.303,13.581,13.828,-3.138,15.344,10.232,13.512,6.168,9.316
Thu Dec 05 12:45:28 2024,130,-14.324,-14.324,-0.318,-0.318,2.177,22.504,9.486,6.345,13.557,13.833,-3.168,15.198,10.205,13.463,6.231,9.388
Thu Dec 05 12:45:28 2024,135,-14.265,-14.265,-0.391,-0.391,2.236,22.556,9.527,6.386,13.532,13.838,-3.197,15.054,10.178,13.415,6.293,9.459
Thu Dec 05 12:45:28 2024,140,-14.272,-14.272,-0.194,-0.194,2.233,22.714,9.539,6.380,13.497,13.820,-3.067,15.453,10.261,13.542,6.180,9.431
Thu Dec 05 12:45:28 2024,145,-14.269,-14.269,-0.074,-0.074,2.238,22.838,9.553,6.382,13.467,13.809,-2.983,15.698,10.314,13.622,6.113,9.422
Thu Dec 05 12:45:28 2024,150,-14.289,-14.289,-0.119,-0.119,2.278,22.824,9.610,6.390,13.488,13.862,-3.022,15.550,10.314,13.575,6.144,9.414
Thu Dec 05 12:45:28 2024,155,-14.308,-14.308,-0.160,-0.160,2.318,22.838,9.662,6.404,13.496,13.898,-3.048,15.438,10.313,13.544,6.162,9.408
Thu Dec 05 12:45:28 2024,160,-14.325,-14.325,-0.157,-0.157,2.363,22.974,9.698,6.453,13.454,13.854,-3.022,15.465,10.301,13.583,6.126,9.408
Thu Dec 05 12:45:28 2024,165,-14.340,-14.340,-0.154,-0.154,2.404,23.106,9.728,6.499,13.414,13.811,-2.994,15.499,10.289,13.623,6.092,9.409
Thu Dec 05 12:45:28 2024,170,-14.357,-14.357,-0.115,-0.115,2.377,23.058,9.711,6.461,13.423,13.854,-2.985,15.639,10.335,13.581,6.150,9.443
Thu Dec 05 12:45:28 2024,175,-14.370,-14.370,-0.084,-0.084,2.355,23.019,9.698,6.430,13.428,13.889,-2.978,15.748,10.372,13.548,6.197,9.470
Thu Dec 05 12:45:28 2024,180,-14.282,-14.282,-0.180,-0.180,2.285,22.932,9.646,6.360,13.510,13.885,-3.017,15.644,10.346,13.507,6.245,9.441
Thu Dec 05 12:45:28 2024,185,-14.232,-14.232,-0.236,-0.236,2.239,22.871,9.613,6.309,13.574,13.874,-3.054,15.554,10.323,13.472,6.282,9.422
Thu Dec 05 12:45:28 2024,190,-14.283,-14.283,-0.181,-0.181,2.234,22.852,9.622,6.282,13.619,13.827,-3.118,15.467,10.297,13.429,6.318,9.433
Thu Dec 05 12:45:28 2024,195,-14.352,-14.352,-0.107,-0.107,2.242,22.848,9.641,6.267,13.650,13.781,-3.176,15.397,10.275,13.392,6.347,9.450
Thu Dec 05 12:45:28 2024,200,-14.304,-14.304,-0.110,-0.110,2.241,22.810,9.638,6.275,13.646,13.776,-3.177,15.401,10.282,13.401,6.338,9.439
Thu Dec 05 12:45:28 2024,205,-14.260,-14.260,-0.127,-0.127,2.242,22.794,9.640,6.288,13.633,13.783,-3.162,15.424,10.296,13.414,6.324,9.434
Thu Dec 05 12:45:28 2024,210,-14.248,-14.248,-0.180,-0.180,2.263,22.876,9.688,6.336,13.569,13.833,-3.095,15.528,10.344,13.443,6.304,9.479
Thu Dec 05 12:45:28 2024,215,-14.256,-14.256,-0.236,-0.236,2.288,22.990,9.748,6.390,13.497,13.890,-3.021,15.640,10.394,13.468,6.286,9.534
Thu Dec 05 12:45:28 2024,220,-14.224,-14.224,-0.274,-0.274,2.296,23.051,9.823,6.424,13.464,13.906,-3.004,15.624,10.376,13.450,6.305,9.526
Thu Dec 05 12:45:28 2024,225,-14.179,-14.179,-0.306,-0.306,2.300,23.100,9.902,6.453,13.440,13.911,-3.001,15.572,10.339,13.420,6.334,9.499
Thu Dec 05 12:45:28 2024,230,-14.172,-14.172,-0.305,-0.305,2.323,23.070,9.893,6.445,13.466,13.895,-2.979,15.503,10.325,13.412,6.341,9.551
Thu Dec 05 12:45:28 2024,235,-14.179,-14.179,-0.288,-0.288,2.352,23.008,9.847,6.421,13.511,13.872,-2.955,15.434,10.327,13.413,6.340,9.634
Thu Dec 05 12:45:28 2024,240,-14.155,-14.155,-0.287,-0.287,2.378,22.974,9.853,6.411,13.536,13.858,-2.974,15.379,10.334,13.392,6.368,9.680
Thu Dec 05 12:45:28 2024,245,-14.116,-14.116,-0.296,-0.296,2.403,22.951,9.886,6.408,13.552,13.848,-3.015,15.329,10.342,13.360,6.411,9.712
Thu Dec 05 12:45:28 2024,250,-14.090,-14.090,-0.296,-0.296,2.370,22.935,9.875,6.414,13.534,13.866,-3.043,15.339,10.356,13.370,6.414,9.739
Thu Dec 05 12:45:28 2024,255,-14.076,-14.076,-0.288,-0.288,2.312,22.928,9.845,6.423,13.496,13.895,-3.058,15.379,10.370,13.402,6.392,9.758
Thu Dec 05 12:45:28 2024,260,-14.077,-14.077,-0.348,-0.348,2.276,22.908,9.839,6.413,13.486,13.919,-3.061,15.400,10.390,13.427,6.379,9.802
Thu Dec 05 12:45:28 2024,265,-14.089,-14.089,-0.443,-0.443,2.266,22.881,9.854,6.392,13.502,13.933,-3.053,15.402,10.409,13.441,6.374,9.854
Thu Dec 05 12:45:28 2024,270,-14.087,-14.087,-0.437,-0.437,2.234,22.816,9.841,6.354,13.530,13.976,-3.029,15.426,10.452,13.450,6.368,9.892
Thu Dec 05 12:45:28 2024,275,-14.068,-14.068,-0.323,-0.323,2.183,22.723,9.800,6.306,13.566,14.043,-2.992,15.467,10.515,13.451,6.361,9.909
Thu Dec 05 12:45:28 2024,280,-14.033,-14.033,-0.274,-0.274,2.145,22.664,9.754,6.275,13.589,14.070,-3.007,15.460,10.527,13.422,6.387,9.920
Thu Dec 05 12:45:28 2024,285,-13.984,-13.984,-0.261,-0.261,2.114,22.622,9.700,6.254,13.607,14.073,-3.060,15.418,10.504,13.372,6.436,9.930
Thu Dec 05 12:45:28 2024,290,-13.923,-13.923,-0.295,-0.295,2.110,22.594,9.731,6.255,13.618,14.097,-3.078,15.337,10.519,13.347,6.471,10.009
Thu Dec 05 12:45:28 2024,295,-13.866,-13.866,-0.375,-0.375,2.137,22.590,9.846,6.280,13.618,14.140,-3.054,15.232,10.570,13.358,6.480,10.144
Thu Dec 05 12:45:28 2024,300,-13.840,-13.840,-0.401,-0.401,2.173,22.620,9.920,6.309,13.610,14.141,-3.044,15.130,10.573,13.351,6.494,10.222
Thu Dec 05 12:45:28 2024,305,-13.871,-13.871,-0.323,-0.323,2.218,22.706,9.899,6.337,13.594,14.068,-3.066,15.060,10.490,13.314,6.516,10.178
Thu Dec 05 12:45:28 2024,310,-13.890,-13.890,-0.301,-0.301,2.235,22.734,9.898,6.360,13.572,14.061,-3.060,15.051,10.456,13.327,6.490,10.144
Thu Dec 05 12:45:28 2024,315,-13.888,-13.888,-0.360,-0.360,2.205,22.670,9.930,6.371,13.544,14.158,-3.012,15.135,10.502,13.417,6.393,10.130
Thu Dec 05 12:45:28 2024,320,-13.913,-13.913,-0.388,-0.388,2.169,22.602,9.965,6.349,13.562,14.208,-2.998,15.148,10.541,13.470,6.335,10.158
Thu Dec 05 12:45:28 2024,325,-13.970,-13.970,-0.343,-0.343,2.143,22.564,9.986,6.280,13.654,14.147,-3.050,15.026,10.545,13.428,6.377,10.244
Thu Dec 05 12:45:28 2024,330,-14.008,-14.008,-0.324,-0.324,2.107,22.531,10.023,6.231,13.716,14.121,-3.092,14.948,10.569,13.401,6.409,10.341
Thu Dec 05 12:45:28 2024,335,-13.977,-13.977,-0.382,-0.382,2.057,22.531,10.083,6.259,13.674,14.198,-3.086,15.029,10.634,13.426,6.401,10.417
Thu Dec 05 12:45:28 2024,340,-13.953,-13.953,-0.440,-0.440,2.035,22.535,10.111,6.290,13.636,14.241,-3.077,15.049,10.652,13.461,6.372,10.454
Thu Dec 05 12:45:28 2024,345,-13.949,-13.949,-0.481,-0.481,2.073,22.543,10.067,6.316,13.617,14.201,-3.062,14.941,10.569,13.510,6.309,10.403
Thu Dec 05 12:45:28 2024,350,-13.946,-13.946,-0.514,-0.514,2.114,22.562,10.037,6.341,13.599,14.160,-3.042,14.843,10.489,13.558,6.247,10.360
Thu Dec 05 12:45:28 2024,355,-13.950,-13.950,-0.426,-0.426,2.120,22.651,10.194,6.315,13.629,14.165,-3.000,15.013,10.540,13.528,6.283,10.459
Thu Dec 05 12:45:28 2024,360,-13.946,-13.946,-0.369,-0.369,2.116,22.681,10.299,6.305,13.647,14.162,-2.973,15.084,10.556,13.522,6.292,10.515
Thu Dec 05 12:45:28 2024,365,-13.918,-13.918,-0.375,-0.375,2.078,22.548,10.290,6.337,13.635,14.133,-2.978,14.900,10.476,13.582,6.226,10.469
Thu Dec 05 12:45:28 2024,370,-13.900,-13.900,-0.387,-0.387,2.048,22.448,10.290,6.365,13.620,14.112,-2.979,14.750,10.413,13.630,6.170,10.422
Thu Dec 05 12:45:28 2024,375,-13.952,-13.952,-0.437,-0.437,2.058,22.496,10.352,6.374,13.606,14.138,-2.952,14.793,10.435,13.621,6.155,10.346
Thu Dec 05 12:45:28 2024,380,-14.006,-14.006,-0.487,-0.487,2.075,22.563,10.414,6.376,13.598,14.155,-2.932,14.830,10.449,13.601,6.147,10.261
Thu Dec 05 12:45:28 2024,385,-13.946,-13.946,-0.437,-0.437,2.108,22.638,10.350,6.316,13.666,14.024,-3.029,14.641,10.313,13.533,6.215,10.229
Thu Dec 05 12:45:28 2024,390,-13.894,-13.894,-0.393,-0.393,2.138,22.704,10.294,6.263,13.726,13.908,-3.114,14.474,10.193,13.472,6.275,10.200
Thu Dec 05 12:45:28 2024,395,-13.884,-13.884,-0.417,-0.417,2.097,22.664,10.361,6.283,13.707,13.980,-3.045,14.588,10.228,13.554,6.212,10.218
Thu Dec 05 12:45:28 2024,400,-13.873,-13.873,-0.441,-0.441,2.057,22.624,10.426,6.301,13.688,14.049,-2.977,14.699,10.262,13.634,6.150,10.236
Thu Dec 05 12:45:28 2024,405,-13.822,-13.822,-0.407,-0.407,2.079,22.625,10.525,6.370,13.619,14.166,-2.936,14.722,10.345,13.667,6.117,10.280
Thu Dec 05 12:45:28 2024,410,-13.776,-13.776,-0.375,-0.375,2.101,22.630,10.608,6.430,13.557,14.266,-2.905,14.734,10.418,13.690,6.092,10.318
Thu Dec 05 12:45:28 2024,415,-13.791,-13.791,-0.344,-0.344,2.120,22.690,10.580,6.390,13.599,14.188,-2.883,14.741,10.385,13.615,6.150,10.243
Thu Dec 05 12:45:28 2024,420,-13.818,-13.818,-0.310,-0.310,2.138,22.766,10.529,6.329,13.662,14.075,-2.861,14.747,10.332,13.518,6.227,10.143
Thu Dec 05 12:45:28 2024,425,-13.816,-13.816,-0.281,-0.281,2.087,22.756,10.515,6.289,13.700,14.060,-2.891,14.765,10.325,13.589,6.207,10.268
Thu Dec 05 12:45:28 2024,430,-13.807,-13.807,-0.258,-0.258,2.028,22.727,10.512,6.263,13.724,14.073,-2.928,14.782,10.330,13.688,6.160,10.424
Thu Dec 05 12:45:28 2024,435,-13.810,-13.810,-0.268,-0.268,1.999,22.757,10.566,6.293,13.689,14.088,-2.888,14.810,10.307,13.727,6.119,10.379
Thu Dec 05 12:45:28 2024,440,-13.817,-13.817,-0.284,-0.284,1.975,22.802,10.631,6.334,13.643,14.103,-2.833,14.839,10.278,13.755,6.081,10.296
Thu Dec 05 12:45:28 2024,445,-13.808,-13.808,-0.297,-0.297,1.983,22.802,10.616,6.325,13.658,14.089,-2.828,14.832,10.288,13.784,6.038,10.269
Thu Dec 05 12:45:28 2024,450,-13.795,-13.795,-0.307,-0.307,2.004,22.784,10.572,6.297,13.694,14.066,-2.845,14.811,10.311,13.810,6.000,10.271
Thu Dec 05 12:45:28 2024,455,-13.776,-13.776,-0.324,-0.324,1.999,22.763,10.559,6.291,13.701,14.060,-2.846,14.839,10.306,13.794,6.016,10.210
Thu Dec 05 12:45:28 2024,460,-13.754,-13.754,-0.344,-0.344,1.982,22.740,10.563,6.297,13.692,14.063,-2.839,14.892,10.288,13.756,6.059,10.121
Thu Dec 05 12:45:28 2024,465,-13.746,-13.746,-0.336,-0.336,2.048,22.818,10.582,6.320,13.672,14.057,-2.822,14.874,10.288,13.742,6.071,10.100
Thu Dec 05 12:45:28 2024,470,-13.747,-13.747,-0.310,-0.310,2.165,22.956,10.608,6.350,13.645,14.046,-2.799,14.811,10.298,13.743,6.063,10.122
Thu Dec 05 12:45:28 2024,475,-13.718,-13.718,-0.330,-0.330,2.192,23.024,10.604,6.342,13.652,14.032,-2.814,14.779,10.274,13.762,6.053,10.125
Thu Dec 05 12:45:28 2024,480,-13.671,-13.671,-0.383,-0.383,2.132,23.008,10.572,6.301,13.689,14.022,-2.858,14.785,10.230,13.790,6.042,10.110
Thu Dec 05 12:45:28 2024,485,-13.632,-13.632,-0.438,-0.438,2.087,22.979,10.548,6.277,13.712,14.024,-2.855,14.830,10.227,13.813,6.033,10.103
Thu Dec 05 12:45:28 2024,490,-13.612,-13.612,-0.480,-0.480,2.074,22.943,10.538,6.278,13.714,14.040,-2.803,14.904,10.272,13.827,6.028,10.106
Thu Dec 05 12:45:28 2024,495,-13.620,-13.620,-0.498,-0.498,2.040,22.919,10.536,6.254,13.738,14.064,-2.770,14.953,10.305,13.814,6.046,10.102
Thu Dec 05 12:45:28 2024,500,-13.674,-13.674,-0.484,-0.484,1.968,22.910,10.549,6.192,13.797,14.105,-2.760,14.971,10.325,13.759,6.102,10.084
Thu Dec 05 12:45:28 2024,505,-13.727,-13.727,-0.428,-0.428,1.934,22.926,10.544,6.171,13.816,14.089,-2.750,15.003,10.314,13.745,6.124,10.057
Thu Dec 05 12:45:28 2024,510,-13.753,-13.753,-0.336,-0.336,1.970,22.968,10.514,6.222,13.767,13.997,-2.745,15.043,10.264,13.798,6.084,10.027
Thu Dec 05 12:45:28 2024,515,-13.752,-13.752,-0.311,-0.311,1.966,22.959,10.488,6.259,13.728,13.977,-2.744,15.083,10.253,13.838,6.055,10.028
Thu Dec 05 12:45:28 2024,520,-13.704,-13.704,-0.397,-0.397,1.896,22.865,10.467,6.271,13.707,14.078,-2.748,15.123,10.308,13.854,6.047,10.077
Thu Dec 05 12:45:28 2024,525,-13.678,-13.678,-0.430,-0.430,1.840,22.794,10.462,6.270,13.702,14.138,-2.748,15.183,10.364,13.884,6.023,10.131
Thu Dec 05 12:45:28 2024,530,-13.717,-13.717,-0.307,-0.307,1.846,22.814,10.503,6.236,13.744,14.055,-2.735,15.280,10.405,13.944,5.963,10.184
Thu Dec 05 12:45:28 2024,535,-13.715,-13.715,-0.270,-0.270,1.859,22.873,10.515,6.222,13.758,14.031,-2.723,15.357,10.438,13.986,5.927,10.194
Thu Dec 05 12:45:28 2024,540,-13.621,-13.621,-0.418,-0.418,1.889,23.022,10.467,6.251,13.709,14.133,-2.711,15.396,10.453,13.992,5.938,10.114
Thu Dec 05 12:45:28 2024,545,-13.558,-13.558,-0.526,-0.526,1.914,23.148,10.433,6.276,13.666,14.196,-2.700,15.425,10.448,13.998,5.938,10.035
Thu Dec 05 12:45:28 2024,550,-13.581,-13.581,-0.531,-0.531,1.926,23.222,10.440,6.293,13.644,14.143,-2.690,15.427,10.376,14.010,5.907,9.940
Thu Dec 05 12:45:28 2024,555,-13.601,-13.601,-0.528,-0.528,1.944,23.291,10.460,6.309,13.626,14.104,-2.678,15.440,10.323,14.022,5.874,9.855
Thu Dec 05 12:45:28 2024,560,-13.588,-13.588,-0.494,-0.494,1.980,23.286,10.522,6.306,13.644,14.159,-2.672,15.492,10.405,14.030,5.866,9.888
Thu Dec 05 12:45:28 2024,565,-13.576,-13.576,-0.462,-0.462,2.013,23.282,10.580,6.302,13.658,14.210,-2.666,15.540,10.481,14.039,5.858,9.916
Thu Dec 05 12:45:28 2024,570,-13.603,-13.603,-0.490,-0.490,1.993,23.243,10.568,6.279,13.676,14.222,-2.705,15.496,10.468,14.139,5.762,10.006
Thu Dec 05 12:45:28 2024,575,-13.625,-13.625,-0.511,-0.511,1.979,23.212,10.562,6.261,13.692,14.235,-2.736,15.464,10.462,14.220,5.684,10.079
Thu Dec 05 12:45:28 2024,580,-13.654,-13.654,-0.486,-0.486,1.933,23.186,10.556,6.220,13.733,14.252,-2.773,15.452,10.482,14.198,5.712,10.090
Thu Dec 05 12:45:28 2024,585,-13.682,-13.682,-0.444,-0.444,1.937,23.189,10.574,6.196,13.760,14.296,-2.824,15.376,10.509,14.164,5.746,10.123
Thu Dec 05 12:45:28 2024,590,-13.711,-13.711,-0.402,-0.402,1.941,23.191,10.593,6.171,13.786,14.340,-2.876,15.301,10.537,14.130,5.780,10.156
Thu Dec 05 12:45:28 2024,595,-13.740,-13.740,-0.360,-0.360,1.945,23.194,10.612,6.147,13.812,14.384,-2.927,15.225,10.565,14.096,5.814,10.189
Thu Dec 05 12:45:28 2024,600,-13.821,-13.821,-0.309,-0.309,1.971,23.106,10.506,6.127,13.839,14.315,-2.901,15.195,10.508,14.032,5.857,10.062
Thu Dec 05 12:45:28 2024,605,-13.889,-13.889,-0.270,-0.270,1.987,23.029,10.407,6.111,13.862,14.246,-2.870,15.185,10.453,13.980,5.890,9.942
Thu Dec 05 12:45:28 2024,610,-13.952,-13.952,-0.235,-0.235,2.002,22.957,10.315,6.094,13.883,14.181,-2.840,15.176,10.402,13.930,5.919,9.829
Thu Dec 05 12:45:28 2024,615,-14.270,-14.270,-0.146,-0.146,1.890,23.065,10.653,6.058,13.912,14.189,-2.866,15.388,10.513,14.008,5.861,9.964
Thu Dec 05 12:45:28 2024,620,-14.359,-14.359,-0.110,-0.110,1.888,23.031,10.668,6.023,13.949,14.193,-2.876,15.343,10.525,14.025,5.850,10.052
Thu Dec 05 12:45:28 2024,625,-14.404,-14.404,-0.086,-0.086,1.900,22.986,10.646,5.992,13.983,14.203,-2.886,15.264,10.528,14.039,5.842,10.141
Thu Dec 05 12:45:28 2024,630,-14.499,-14.499,-0.034,0.034,1.921,22.952,10.536,5.962,14.021,14.074,-2.956,15.142,10.401,13.953,5.922,10.073
Thu Dec 05 12:45:28 2024,635,-14.629,-14.629,-0.084,0.084,1.948,22.927,10.364,5.932,14.058,13.849,-3.066,14.991,10.183,13.797,6.064,9.894
Thu Dec 05 12:45:28 2024,640,-14.715,-14.715,0.145,0.145,1.957,22.945,10.450,5.920,14.072,13.870,-3.100,14.995,10.192,13.791,6.065,9.848
Thu Dec 05 12:45:28 2024,645,-14.798,-14.798,0.204,0.204,1.962,22.980,10.636,5.912,14.079,13.975,-3.113,15.052,10.279,13.834,6.020,9.841
Thu Dec 05 12:45:28 2024,650,-14.802,-14.802,0.245,0.245,1.970,23.004,10.672,5.944,14.047,14.003,-3.116,15.010,10.283,13.820,6.029,9.847
Thu Dec 05 12:45:28 2024,655,-14.778,-14.778,0.294,0.294,1.982,23.030,10.659,6.001,13.992,14.008,-3.116,14.919,10.255,13.781,6.063,9.860
Thu Dec 05 12:45:28 2024,660,-14.789,-14.789,0.314,0.314,1.958,23.039,10.680,5.989,14.009,13.945,-3.091,14.879,10.245,13.775,6.061,9.881
Thu Dec 05 12:45:28 2024,665,-14.818,-14.818,0.318,0.318,1.917,23.038,10.717,5.940,14.061,13.848,-3.055,14.868,10.246,13.789,6.041,9.906
Thu Dec 05 12:45:28 2024,670,-14.822,-14.822,0.302,0.302,1.876,23.012,10.752,5.908,14.093,13.855,-3.090,14.856,10.288,13.771,6.076,9.984
Thu Dec 05 12:45:28 2024,675,-14.811,-14.811,0.270,0.270,1.823,22.963,10.794,5.877,14.123,13.924,-3.178,14.838,10.364,13.729,6.150,10.114
Thu Dec 05 12:45:28 2024,680,-14.831,-14.831,0.210,0.210,1.801,22.959,10.792,5.850,14.149,13.944,-3.216,14.872,10.338,13.723,6.171,10.137
Thu Dec 05 12:45:28 2024,685,-14.880,-14.880,-0.130,0.130,1.799,22.989,10.753,5.822,14.170,13.927,-3.218,14.952,10.226,13.747,6.154,10.079
Thu Dec 05 12:45:28 2024,690,-14.875,-14.875,-0.079,0.079,1.825,23.037,10.747,5.825,14.164,13.901,-3.198,15.020,10.179,13.761,6.150,10.059
Thu Dec 05 12:45:28 2024,695,-14.833,-14.833,-0.048,0.048,1.868,23.092,10.764,5.849,14.142,13.871,-3.164,15.073,10.180,13.767,6.156,10.069
Thu Dec 05 12:45:28 2024,700,-14.812,-14.812,-0.056,0.056,1.887,23.136,10.768,5.849,14.144,13.841,-3.136,15.120,10.182,13.775,6.153,10.053
Thu Dec 05 12:45:28 2024,705,-14.831,-14.831,-0.187,0.187,1.862,23.147,10.750,5.810,14.185,13.821,-3.128,15.140,10.185,13.784,6.138,10.002
Thu Dec 05 12:45:28 2024,710,-14.846,-14.846,0.293,0.293,1.843,23.155,10.736,5.780,14.216,13.806,-3.122,15.156,10.187,13.790,6.126,9.963
Thu Dec 05 12:45:28 2024,715,-14.847,-14.847,0.307,0.307,1.885,23.038,10.827,5.766,14.234,13.786,-3.159,15.054,10.168,13.688,6.218,9.980
Thu Dec 05 12:45:28 2024,720,-14.857,-14.857,0.374,0.374,1.890,22.973,10.921,5.764,14.235,13.817,-3.178,14.984,10.195,13.629,6.273,10.017
Thu Dec 05 12:45:28 2024,725,-14.875,-14.875,0.486,0.486,1.858,22.944,11.066,5.792,14.207,13.940,-3.184,14.919,10.292,13.602,6.306,10.118
Thu Dec 05 12:45:28 2024,730,-14.898,-14.898,0.571,0.571,1.835,22.912,11.156,5.814,14.184,14.011,-3.184,14.895,10.368,13.582,6.331,10.194
Thu Dec 05 12:45:28 2024,735,-14.939,-14.939,0.593,0.593,1.832,22.867,11.110,5.825,14.171,13.943,-3.168,14.983,10.390,13.577,6.337,10.210
Thu Dec 05 12:45:28 2024,740,-14.977,-14.977,0.612,0.612,1.828,22.826,11.067,5.834,14.158,13.882,-3.154,15.064,10.411,13.572,6.342,10.226
Thu Dec 05 12:45:28 2024,745,-15.096,-15.096,0.743,0.743,1.760,22.698,11.023,5.728,14.266,13.824,-3.246,15.053,10.345,13.569,6.356,10.183
Thu Dec 05 12:45:28 2024,750,-15.192,-15.192,0.846,0.846,1.707,22.596,10.986,5.645,14.348,13.775,-3.317,15.048,10.294,13.567,6.366,10.151
Thu Dec 05 12:45:28 2024,755,-15.288,-15.288,0.897,0.897,1.743,22.671,11.093,5.657,14.339,13.843,-3.200,15.266,10.430,13.581,6.364,10.260
Thu Dec 05 12:45:28 2024,760,-15.382,-15.382,0.937,0.937,1.761,22.712,11.130,5.649,14.349,13.867,-3.137,15.399,10.489,13.561,6.390,10.302
Thu Dec 05 12:45:28 2024,765,-15.480,-15.480,0.946,0.946,1.742,22.690,10.997,5.600,14.400,13.783,-3.189,15.344,10.367,13.446,6.502,10.178
Thu Dec 05 12:45:28 2024,770,-15.586,-15.586,0.954,0.954,1.722,22.668,10.856,5.548,14.452,13.695,-3.243,15.287,10.238,13.323,6.621,10.047
Thu Dec 05 12:45:28 2024,775,-15.626,-15.626,1.032,1.032,1.771,22.654,10.887,5.578,14.422,13.762,-3.247,15.225,10.204,13.433,6.516,10.046
Thu Dec 05 12:45:28 2024,780,-15.664,-15.664,1.094,1.094,1.809,22.644,10.903,5.598,14.402,13.809,-3.253,15.173,10.171,13.512,6.441,10.037
Thu Dec 05 12:45:28 2024,785,-15.777,-15.777,1.104,1.104,1.865,22.882,10.962,5.699,14.298,13.841,-3.128,15.495,10.301,13.553,6.414,10.120
Thu Dec 05 12:45:28 2024,790,-15.892,-15.892,1.127,1.127,1.918,23.111,11.019,5.798,14.193,13.876,-3.008,15.794,10.427,13.597,6.382,10.199
Thu Dec 05 12:45:28 2024,795,-15.865,-15.865,1.337,1.337,1.841,23.008,11.015,5.801,14.195,13.879,-3.023,15.703,10.450,13.579,6.402,10.195
Thu Dec 05 12:45:28 2024,800,-15.837,-15.837,1.566,1.566,1.757,22.897,11.010,5.805,14.195,13.883,-3.039,15.602,10.474,13.560,6.424,10.191
Thu Dec 05 12:45:28 2024,805,-15.869,-15.869,1.935,1.935,1.756,23.009,11.011,5.890,14.108,13.880,-2.982,15.758,10.522,13.668,6.320,10.281
Thu Dec 05 12:45:28 2024,810,-15.914,-15.914,2.284,2.284,1.767,23.143,11.015,5.977,14.018,13.878,-2.921,15.932,10.569,13.782,6.209,10.375
Thu Dec 05 12:45:28 2024,815,-16.079,-16.079,2.984,2.984,1.741,23.039,11.281,5.979,14.022,13.959,-2.937,15.781,10.643,13.670,6.309,10.433
Thu Dec 05 12:45:28 2024,820,-16.301,-16.301,3.877,3.877,1.709,22.906,11.621,5.980,14.013,14.063,-2.956,15.582,10.738,13.528,6.429,10.508
Thu Dec 05 12:45:28 2024,825,-16.424,16.424,4.685,4.685,1.673,22.869,11.841,5.982,14.006,14.131,-2.975,15.519,10.750,13.480,6.476,10.481
Thu Dec 05 12:45:28 2024,830,-16.566,16.566,5.618,5.618,1.630,22.837,12.085,5.985,13.998,14.206,-2.996,15.461,10.754,13.435,6.523,10.437
Thu Dec 05 12:45:28 2024,835,-16.666,16.666,6.884,6.884,1.498,22.742,12.337,5.838,14.135,14.168,-3.056,15.483,10.862,13.424,6.547,10.697
Thu Dec 05 12:45:28 2024,840,-16.758,16.758,8.174,8.174,1.356,22.643,12.585,5.674,14.286,14.113,-3.121,15.513,10.983,13.418,6.566,10.996
Thu Dec 05 12:45:28 2024,845,-16.983,16.983,9.717,9.717,1.222,22.450,12.760,5.551,14.414,14.195,-3.150,15.538,11.111,13.402,6.581,11.169
Thu Dec 05 12:45:28 2024,850,-17.199,17.199,10.906,10.906,1.131,22.273,12.851,5.483,14.493,14.313,-3.155,15.554,11.203,13.387,6.589,11.235
Thu Dec 05 12:45:28 2024,855,-17.364,17.364,12.354,12.354,1.109,22.192,12.907,5.419,14.576,14.417,-3.169,15.503,11.230,13.394,6.584,11.435
Thu Dec 05 12:45:28 2024,860,-17.499,17.499,13.841,13.841,1.118,22.155,12.946,5.358,14.641,14.512,-3.184,15.426,11.228,13.410,6.572,11.685
Thu Dec 05 12:45:28 2024,865,-17.665,17.665,15.624,15.624,0.975,21.942,13.088,5.207,14.786,14.566,-3.236,15.314,11.181,13.407,6.580,11.887
Thu Dec 05 12:45:28 2024,870,-17.831,17.831,17.387,17.387,0.756,21.649,13.274,5.018,14.970,14.589,-3.303,15.196,11.113,13.391,6.598,12.035
Thu Dec 05 12:45:28 2024,875,-17.943,17.943,19.481,19.481,0.723,21.392,13.315,4.919,15.062,14.557,-3.316,15.048,11.034,13.388,6.600,12.215
Thu Dec 05 12:45:28 2024,880,-18.000,18.000,21.656,21.656,0.850,21.234,13.227,4.906,15.065,14.483,-3.282,14.884,10.952,13.396,6.587,12.402
Thu Dec 05 12:45:28 2024,885,-18.004,18.004,23.818,23.818,0.843,20.963,13.282,4.808,15.177,14.403,-3.258,14.636,10.896,13.375,6.603,12.580
Thu Dec 05 12:45:28 2024,890,-17.979,17.979,25.879,25.879,0.755,19.242,13.422,4.666,15.334,14.325,-3.240,14.346,10.860,13.337,6.636,12.740
Thu Dec 05 12:45:28 2024,895,-18.087,18.087,27.640,27.640,0.730,18.947,13.531,4.677,15.303,14.526,-3.191,13.645,10.868,13.282,6.670,13.001
Thu Dec 05 12:45:28 2024,900,-18.349,18.349,28.791,28.791,0.770,18.229,13.595,4.834,15.055,14.955,-3.124,12.648,10.925,13.222,6.687,13.308
Thu Dec 05 12:45:28 2024,905,-18.371,18.371,29.834,29.834,0.908,17.269,13.516,5.022,14.672,15.157,-2.948,11.858,11.098,13.288,6.568,13.604
Thu Dec 05 12:45:28 2024,910,-18.108,18.108,30.533,30.533,1.129,16.317,13.296,5.210,14.224,15.077,-2.690,11.478,11.352,13.476,6.328,13.826
Thu Dec 05 12:45:28 2024,915,-18.316,18.316,31.493,31.493,1.178,15.631,13.198,5.244,13.960,14.971,-2.569,11.338,11.502,13.644,6.116,13.888
Thu Dec 05 12:45:28 2024,920,-19.092,19.092,32.581,32.581,0.984,15.397,13.273,5.064,14.038,14.843,-2.654,11.537,11.487,13.749,5.985,13.734
Thu Dec 05 12:45:28 2024,925,-19.634,19.634,33.754,33.754,0.884,15.029,13.147,4.990,13.945,14.718,-2.560,11.609,11.533,13.920,5.780,13.650
Thu Dec 05 12:45:28 2024,930,-19.481,19.481,34.775,34.775,1.023,14.427,12.580,5.178,13.464,14.615,-2.061,11.350,11.711,14.219,5.429,13.743
Thu Dec 05 12:45:28 2024,935,-19.466,19.466,35.775,35.775,1.162,13.848,12.041,5.366,12.979,14.514,-1.575,11.068,11.884,14.512,5.083,13.834
Thu Dec 05 12:45:28 2024,940,-20.018,20.018,34.564,34.564,1.023,13.915,11.745,5.286,12.989,14.071,-1.820,11.568,11.720,14.454,5.335,13.608
Thu Dec 05 12:45:28 2024,945,-20.557,20.557,33.501,33.501,0.848,13.989,11.576,5.160,13.052,13.850,-1.954,11.999,11.745,14.423,5.466,13.493
Thu Dec 05 12:45:28 2024,950,-21.051,21.051,31.861,31.861,0.489,14.291,11.732,4.830,13.402,13.949,-2.102,12.602,12.055,14.345,5.604,13.491
Thu Dec 05 12:45:28 2024,955,-21.567,21.567,29.900,29.900,0.205,14.599,11.870,4.482,13.797,14.098,-2.194,13.238,12.417,14.294,5.696,13.542
Thu Dec 05 12:45:28 2024,960,-21.778,21.778,28.148,28.148,0.203,14.823,11.901,4.252,14.114,14.291,-2.111,13.683,12.719,14.326,5.674,13.688
Thu Dec 05 12:45:28 2024,965,-22.119,22.119,26.117,26.117,0.200,15.081,11.938,3.989,14.478,14.513,-2.018,14.193,13.068,14.363,5.627,13.854
Thu Dec 05 12:45:28 2024,970,-21.747,21.747,24.705,24.705,0.151,15.374,12.017,3.755,14.604,14.526,-2.026,14.498,13.274,14.249,5.735,13.859
Thu Dec 05 12:45:28 2024,975,-21.547,21.547,23.104,23.104,0.105,15.670,12.053,3.524,14.770,14.551,-2.035,14.823,13.472,14.168,5.801,13.867
Thu Dec 05 12:45:28 2024,980,-21.354,21.354,21.705,21.705,0.072,15.856,11.898,3.418,14.970,14.535,-2.074,15.016,13.480,14.208,5.738,13.817
Thu Dec 05 12:45:28 2024,985,-21.248,21.248,20.383,20.383,0.048,16.033,11.750,3.318,15.157,14.520,-2.113,15.194,13.487,14.246,5.674,13.771
Thu Dec 05 12:45:28 2024,990,-21.264,21.264,18.948,18.948,-0.120,16.179,11.648,3.165,15.350,14.496,-2.226,15.335,13.566,14.097,5.769,13.834
Thu Dec 05 12:45:28 2024,995,-21.350,21.350,17.732,17.732,-0.232,16.289,11.554,3.034,15.516,14.471,-2.320,15.456,13.631,13.968,5.838,13.892
Thu Dec 05 12:45:29 2024,0,-21.446,21.446,16.974,16.974,-0.292,16.255,11.386,2.960,15.667,14.416,-2.305,15.675,13.628,13.988,5.756,13.922
Thu Dec 05 12:45:29 2024,5,-21.583,21.583,16.281,16.281,-0.344,16.208,11.215,2.892,15.811,14.359,-2.282,15.893,13.617,14.018,5.657,13.949
Thu Dec 05 12:45:29 2024,10,21.728,21.728,15.487,15.487,-0.399,16.412,11.210,2.887,15.889,14.335,-2.294,15.953,13.624,14.007,5.625,13.961
Thu Dec 05 12:45:29 2024,15,21.913,21.913,14.623,14.623,-0.460,16.652,11.217,2.886,15.968,14.312,-2.310,16.006,13.632,13.992,5.593,13.974
Thu Dec 05 12:45:29 2024,20,21.949,21.949,14.151,14.151,-0.487,16.802,11.145,2.894,16.042,14.217,-2.293,16.198,13.602,13.877,5.648,13.951
Thu Dec 05 12:45:29 2024,25,21.982,21.982,13.656,13.656,-0.515,16.965,11.053,2.903,16.125,14.099,-2.270,16.428,13.562,13.733,19.993,13.920
Thu Dec 05 12:45:29 2024,30,22.017,22.017,13.183,13.183,-0.522,17.210,11.029,2.898,16.148,14.015,-2.266,16.536,13.540,13.696,34.306,13.851
Thu Dec 05 12:45:29 2024,35,22.053,22.053,12.791,12.791,-0.523,17.435,11.022,2.891,16.156,13.950,-2.267,16.603,13.524,13.686,34.343,13.785
Thu Dec 05 12:45:29 2024,40,22.117,22.117,12.288,12.288,-0.554,17.612,11.016,2.914,16.127,13.892,-2.254,16.603,13.474,13.696,34.403,13.810
Thu Dec 05 12:45:29 2024,45,22.181,22.181,11.842,11.842,-0.587,17.747,11.010,2.942,16.094,13.846,-2.240,16.588,13.423,13.709,34.460,13.853
Thu Dec 05 12:45:29 2024,50,22.207,22.207,11.449,11.449,-0.636,17.922,10.984,2.928,16.131,13.761,-2.228,16.643,13.350,13.728,34.508,13.824
Thu Dec 05 12:45:29 2024,55,22.161,22.161,11.506,11.506,-0.653,17.981,11.028,2.960,16.115,13.768,-2.215,16.659,13.362,13.754,34.528,13.825
Thu Dec 05 12:45:29 2024,60,22.114,22.114,11.562,11.562,-0.671,18.041,11.072,2.991,16.099,13.776,-2.202,16.676,13.374,13.781,34.549,13.826
Thu Dec 05 12:45:29 2024,65,22.068,22.068,11.619,11.619,-0.688,18.100,11.116,3.023,16.082,13.783,-2.189,16.692,13.386,13.808,34.569,13.826
Thu Dec 05 12:45:29 2024,70,22.021,22.021,11.676,11.676,-0.705,18.160,11.159,3.055,16.066,13.790,-2.177,16.708,13.398,13.834,34.589,13.827
Thu Dec 05 12:45:29 2024,75,21.975,21.975,11.732,11.732,-0.723,18.219,11.203,3.087,16.050,13.798,-2.164,16.724,13.410,13.860,34.609,13.828
Thu Dec 05 12:45:29 2024,80,21.928,21.928,11.789,11.789,-0.740,18.279,11.247,3.118,16.034,13.805,-2.151,16.741,13.422,13.887,34.630,13.829
Thu Dec 05 12:45:29 2024,85,21.882,21.882,11.846,11.846,-0.758,18.338,11.291,3.150,16.017,13.812,-2.138,16.757,13.434,13.914,34.650,13.830
Thu Dec 05 12:45:29 2024,90,21.836,21.836,11.902,11.902,-0.775,18.397,11.335,3.182,16.001,13.820,-2.125,16.773,13.446,13.940,34.670,13.830
Thu Dec 05 12:45:29 2024,95,21.789,21.789,11.959,11.959,-0.792,18.457,11.379,3.213,15.985,13.827,-2.112,16.790,13.458,13.966,34.691,13.831
Thu Dec 05 12:45:29 2024,100,21.743,21.743,12.015,12.015,-0.810,18.516,11.423,3.245,15.969,13.835,-2.099,16.806,13.470,13.993,34.711,13.832
Thu Dec 05 12:45:29 2024,105,21.696,21.696,12.072,12.072,-0.827,18.576,11.466,3.277,15.953,13.842,-2.087,16.822,13.482,14.020,34.731,13.833
Thu Dec 05 12:45:29 2024,110,21.650,21.650,12.129,12.129,-0.844,18.635,11.510,3.309,15.936,13.849,-2.074,16.838,13.494,14.046,34.751,13.833
Thu Dec 05 12:45:29 2024,115,21.603,21.603,12.185,12.185,-0.862,18.695,11.554,3.340,15.920,13.857,-2.061,16.855,13.506,14.072,34.772,13.834
Thu Dec 05 12:45:29 2024,120,21.557,21.557,12.242,12.242,-0.879,18.754,11.598,3.372,15.904,13.864,-2.048,16.871,13.518,14.099,34.792,13.835
Thu Dec 05 12:45:29 2024,125,21.407,21.407,12.676,12.676,-0.885,18.740,11.779,3.463,15.789,13.959,-2.050,16.830,13.615,14.098,34.760,13.918
Thu Dec 05 12:45:29 2024,130,21.231,21.231,13.260,13.260,-0.861,18.751,11.971,3.560,15.648,14.056,-2.003,16.784,13.698,14.131,34.748,13.983
Thu Dec 05 12:45:29 2024,135,21.120,21.120,13.762,13.762,-0.791,18.803,12.061,3.609,15.544,14.094,-1.890,16.755,13.697,14.208,34.785,13.964
Thu Dec 05 12:45:29 2024,140,20.915,20.915,14.518,14.518,-0.726,18.758,12.166,3.660,15.415,14.129,-1.783,16.684,13.704,14.269,5.209,13.958
Thu Dec 05 12:45:29 2024,145,20.599,20.599,15.530,15.530,-0.699,18.504,12.263,3.696,15.282,14.142,-1.731,16.565,13.723,14.271,5.274,13.982
Thu Dec 05 12:45:29 2024,150,-20.298,20.298,16.514,16.514,-0.672,18.317,12.389,3.738,15.183,14.202,-1.701,16.472,13.755,14.287,5.308,14.014
Thu Dec 05 12:45:29 2024,155,-19.840,19.840,17.807,17.807,-0.628,18.267,12.640,3.818,15.137,14.405,-1.712,16.419,13.831,14.345,5.283,14.077
Thu Dec 05 12:45:29 2024,160,-19.480,19.480,19.372,19.372,-0.569,18.178,12.915,3.929,15.038,14.587,-1.701,16.336,13.890,14.395,5.287,14.117
Thu Dec 05 12:45:29 2024,165,-19.356,19.356,21.714,21.714,-0.449,17.931,13.213,4.144,14.727,14.617,-1.588,16.129,13.848,14.392,5.413,14.032
Thu Dec 05 12:45:29 2024,170,-19.430,19.430,23.859,23.859,-0.343,17.692,13.484,4.339,14.443,14.642,-1.487,15.928,13.810,14.385,5.507,13.957
Thu Dec 05 12:45:29 2024,175,-19.611,19.611,25.446,25.446,-0.221,17.543,13.600,4.638,14.172,14.654,-1.504,15.639,13.666,14.428,5.484,14.003
Thu Dec 05 12:45:29 2024,180,-19.951,19.951,27.277,27.277,-0.095,17.352,13.744,4.954,13.865,14.666,-1.509,15.320,13.520,14.470,5.469,14.034
Thu Dec 05 12:45:29 2024,185,-20.081,20.081,29.574,29.574,-0.020,17.049,13.749,5.333,13.460,14.638,-1.553,14.700,13.246,14.596,5.388,13.969
Thu Dec 05 12:45:29 2024,190,-20.288,20.288,31.332,31.332,0.066,16.813,13.752,5.627,13.146,14.616,-1.590,14.218,13.037,14.694,5.306,13.917
Thu Dec 05 12:45:29 2024,195,-20.175,20.175,33.059,33.059,0.520,16.469,13.542,6.012,12.586,14.387,-1.351,13.433,12.627,14.868,5.109,13.729
Thu Dec 05 12:45:29 2024,200,-20.130,20.130,34.535,34.535,0.925,16.126,13.356,6.347,12.092,14.185,-1.145,12.722,12.272,15.019,4.880,13.560
Thu Dec 05 12:45:29 2024,205,-20.016,20.016,35.894,35.894,1.068,15.952,13.678,6.457,11.807,14.287,-1.125,12.009,12.154,15.009,4.746,13.614
Thu Dec 05 12:45:29 2024,210,-19.964,19.964,37.090,37.090,1.182,15.805,13.997,6.542,11.559,14.396,-1.124,11.371,12.062,14.987,4.588,13.674
Thu Dec 05 12:45:29 2024,215,-19.989,19.989,37.106,37.106,1.106,15.950,14.264,6.452,11.735,14.520,-1.453,11.090,11.881,14.931,4.590,13.691
Thu Dec 05 12:45:29 2024,220,-20.154,20.154,36.924,36.924,1.005,16.136,14.506,6.340,11.971,14.641,-1.820,10.878,11.698,14.874,4.623,13.700
Thu Dec 05 12:45:29 2024,225,-19.075,19.075,35.237,35.237,1.199,15.920,13.797,6.283,12.076,14.295,-2.096,10.366,11.181,14.680,4.705,13.247
Thu Dec 05 12:45:29 2024,230,-18.106,18.106,33.807,33.807,1.398,15.680,13.104,6.254,12.124,13.954,-2.271,9.942,10.753,14.517,4.762,12.837
Thu Dec 05 12:45:29 2024,235,-18.035,18.035,32.312,32.312,1.186,16.487,13.395,6.131,12.550,14.169,-2.330,10.165,10.762,14.451,4.946,12.902
Thu Dec 05 12:45:29 2024,240,-18.123,18.123,31.018,31.018,0.936,17.383,13.812,6.012,12.973,14.454,-2.361,10.469,10.842,14.414,5.114,13.035
Thu Dec 05 12:45:29 2024,245,-18.072,18.072,29.598,29.598,0.596,18.194,13.801,5.799,13.440,14.310,-2.668,10.944,10.591,14.294,5.353,12.699
Thu Dec 05 12:45:29 2024,250,-18.036,18.036,28.407,28.407,0.280,18.888,13.707,5.595,13.842,14.102,-2.990,11.375,10.308,14.176,5.563,12.310
Thu Dec 05 12:45:29 2024,255,-17.948,17.948,26.832,26.832,0.305,19.690,13.372,5.382,14.403,13.746,-3.059,12.429,10.041,14.238,5.609,11.778
Thu Dec 05 12:45:29 2024,260,-17.871,17.871,25.515,25.515,0.477,21.013,13.010,5.221,14.754,13.410,-2.996,13.495,9.852,14.370,5.550,11.312
Thu Dec 05 12:45:29 2024,265,-18.009,18.009,23.392,23.392,0.455,21.621,12.604,5.162,14.833,13.260,-2.960,14.157,9.729,14.400,5.551,10.814
Thu Dec 05 12:45:29 2024,270,-18.242,18.242,20.973,20.973,0.341,22.081,12.192,5.155,14.782,13.207,-2.939,14.596,9.641,14.379,5.587,10.319
Thu Dec 05 12:45:29 2024,275,-18.389,18.389,18.254,18.254,0.335,22.437,11.681,5.232,14.648,13.170,-2.868,14.972,9.679,14.352,5.635,10.016
Thu Dec 05 12:45:29 2024,280,-18.480,18.480,15.033,15.033,0.414,22.730,11.049,5.382,14.472,13.145,-2.752,15.336,9.822,14.315,5.685,9.840
Thu Dec 05 12:45:29 2024,285,-18.598,18.598,12.450,12.450,0.354,22.849,10.598,5.455,14.379,13.084,-2.677,15.526,9.804,14.310,5.687,9.572
Thu Dec 05 12:45:29 2024,290,-18.727,18.727,10.282,10.282,0.226,22.878,10.256,5.487,14.333,13.006,-2.624,15.620,9.702,14.321,5.671,9.269
Thu Dec 05 12:45:29 2024,295,-18.887,18.887,8.218,8.218,0.203,23.040,9.971,5.587,25.802,13.008,-2.522,15.778,9.663,14.420,5.562,9.125
Thu Dec 05 12:45:29 2024,300,-19.068,19.068,6.304,6.304,0.269,23.300,9.739,5.739,26.007,13.075,-2.383,15.984,9.678,14.586,5.381,9.111
Thu Dec 05 12:45:29 2024,305,-19.182,19.182,4.820,4.820,0.377,23.431,9.530,5.845,26.146,13.077,-2.232,16.135,9.681,14.751,5.205,9.135
Thu Dec 05 12:45:29 2024,310,-19.240,19.240,3.690,3.690,0.517,23.462,9.342,5.911,26.228,13.027,-2.072,16.238,9.676,14.911,5.036,9.189
Thu Dec 05 12:45:29 2024,315,-19.251,19.251,2.825,2.825,0.618,23.560,9.265,5.971,26.330,13.072,-1.928,16.431,9.732,15.019,4.915,9.234
Thu Dec 05 12:45:29 2024,320,-19.205,19.205,1.837,1.837,0.721,23.795,9.290,6.055,26.523,13.268,-1.724,16.852,9.902,15.117,4.788,9.290
Thu Dec 05 12:45:29 2024,325,-19.077,19.077,1.047,1.047,0.809,23.959,9.259,6.100,26.647,13.385,-1.627,17.102,10.012,15.188,4.697,9.344
Thu Dec 05 12:45:29 2024,330,-18.744,18.744,-0.305,0.305,0.916,24.075,9.108,6.095,26.696,13.413,-1.671,17.161,10.065,15.245,4.636,9.418
Thu Dec 05 12:45:29 2024,335,-18.492,18.492,-0.502,-0.502,0.996,24.163,8.993,6.091,26.734,13.435,-1.705,17.204,10.105,15.288,4.590,9.474
Thu Dec 05 12:45:29 2024,340,-18.377,18.377,-1.042,-1.042,1.039,24.122,8.985,6.095,26.727,13.419,-1.862,17.053,10.032,15.210,4.658,9.458
Thu Dec 05 12:45:29 2024,345,-18.339,18.339,-1.501,-1.501,1.101,24.155,9.002,6.103,26.732,13.443,-1.935,17.003,10.036,15.182,4.686,9.484
Thu Dec 05 12:45:29 2024,350,-18.475,18.475,-1.684,-1.684,1.173,24.267,9.090,6.120,26.742,13.518,-1.891,17.076,10.134,15.205,4.678,9.555
Thu Dec 05 12:45:29 2024,355,-18.573,18.573,-1.840,-1.840,1.226,24.330,9.154,6.134,26.752,13.574,-1.862,17.116,10.188,15.209,4.688,9.576
Thu Dec 05 12:45:29 2024,360,-18.538,18.538,-1.916,-1.916,1.219,24.210,9.138,6.140,26.758,13.562,-1.892,17.030,10.079,15.141,4.775,9.406
Thu Dec 05 12:45:29 2024,365,-18.529,18.529,-2.000,-2.000,1.209,24.112,9.134,6.137,26.749,13.558,-1.914,16.975,10.019,15.095,4.834,9.304
Thu Dec 05 12:45:29 2024,370,-18.579,18.579,-2.149,-2.149,1.171,24.033,9.163,6.091,26.667,13.575,-1.913,17.010,10.113,15.114,4.814,9.417
Thu Dec 05 12:45:29 2024,375,-18.617,18.617,-2.290,-2.290,1.136,23.964,9.194,6.052,26.601,13.600,-1.920,17.036,10.195,15.124,4.804,9.514
Thu Dec 05 12:45:29 2024,380,-18.568,18.568,-2.386,-2.386,1.128,23.964,9.241,6.053,26.622,13.670,-1.980,17.006,10.195,15.075,4.851,9.514
Thu Dec 05 12:45:29 2024,385,-18.530,18.530,-2.458,-2.458,1.122,23.967,9.278,6.054,26.642,13.727,-2.027,16.981,10.193,15.036,4.890,9.512
Thu Dec 05 12:45:29 2024,390,-18.484,18.484,-2.487,-2.487,1.204,23.982,9.283,6.111,26.676,13.788,-2.013,16.932,10.221,15.054,4.869,9.636
Thu Dec 05 12:45:29 2024,395,-18.434,18.434,-2.504,-2.504,1.268,24.007,9.304,6.158,26.708,13.846,-2.003,16.898,10.250,15.071,4.851,9.744
Thu Dec 05 12:45:29 2024,400,-18.375,18.375,-2.444,-2.444,1.252,24.072,9.390,6.156,26.730,13.868,-2.009,16.954,10.286,15.087,4.830,9.771
Thu Dec 05 12:45:29 2024,405,-18.321,18.321,-2.389,-2.389,1.238,24.131,9.469,6.155,26.750,13.889,-2.014,17.004,10.319,15.102,4.811,9.795
Thu Dec 05 12:45:29 2024,410,-18.173,18.173,-2.338,-2.338,1.300,24.227,9.603,6.178,26.725,13.935,-1.995,17.035,10.387,15.105,4.822,9.769
Thu Dec 05 12:45:29 2024,415,-18.063,18.063,-2.301,-2.301,1.349,24.298,9.701,6.196,26.706,13.969,-1.980,17.055,10.438,15.106,4.831,9.747
Thu Dec 05 12:45:29 2024,420,-17.762,17.762,-2.204,-2.204,1.290,24.369,9.728,6.161,26.716,14.051,-1.972,17.124,10.485,15.047,4.885,9.767
Thu Dec 05 12:45:29 2024,425,-17.532,17.532,-2.129,-2.129,1.237,24.420,9.740,6.131,26.728,14.114,-1.967,17.177,10.517,15.000,4.927,9.785
Thu Dec 05 12:45:29 2024,430,-17.222,17.222,-2.060,-2.060,1.313,24.581,9.901,6.167,26.778,14.183,-2.026,17.124,10.531,14.964,4.969,9.824
Thu Dec 05 12:45:29 2024,435,-16.890,16.890,-1.992,-1.992,1.430,24.776,10.109,6.223,26.840,14.254,-2.104,17.039,10.539,14.932,5.010,9.869
Thu Dec 05 12:45:29 2024,440,-16.498,16.498,-1.901,-1.901,1.480,24.746,10.161,6.239,26.786,14.300,-2.141,16.977,10.567,14.894,5.056,9.935
Thu Dec 05 12:45:29 2024,445,-16.177,16.177,-1.827,-1.827,1.516,24.703,10.189,6.247,26.736,14.335,-2.167,16.928,10.592,14.863,5.093,9.989
Thu Dec 05 12:45:29 2024,450,-15.812,-15.812,-1.715,-1.715,1.590,24.976,10.408,6.282,26.754,14.408,-2.178,16.916,10.610,14.904,5.046,10.076
Thu Dec 05 12:45:29 2024,455,-15.491,-15.491,-1.608,-1.608,1.666,25.322,10.661,6.322,26.791,14.484,-2.183,16.919,10.621,14.967,4.974,10.159
Thu Dec 05 12:45:29 2024,460,-15.210,-15.210,-1.469,-1.469,1.743,25.398,10.763,6.377,26.836,14.562,-2.173,16.915,10.662,14.912,5.035,10.146
Thu Dec 05 12:45:29 2024,465,-14.954,-14.954,-1.320,-1.320,1.817,25.365,10.801,6.438,26.883,14.639,-2.159,16.907,10.715,14.809,5.148,10.096
Thu Dec 05 12:45:29 2024,470,-14.816,-14.816,-1.247,-1.247,1.840,25.348,10.851,6.447,26.865,14.625,-2.195,16.873,10.673,14.746,5.219,10.083
Thu Dec 05 12:45:29 2024,475,-14.729,-14.729,-1.205,-1.205,1.843,25.336,10.902,6.439,26.829,14.582,-2.244,16.832,10.603,14.700,5.270,10.085
Thu Dec 05 12:45:29 2024,480,-14.625,-14.625,-1.063,-1.063,1.852,25.315,10.951,6.450,26.827,14.555,-2.240,16.847,10.559,14.654,5.322,10.050
Thu Dec 05 12:45:29 2024,485,-14.534,-14.534,-0.883,-0.883,1.862,25.291,10.992,6.472,26.846,14.542,-2.205,16.892,10.537,14.616,5.367,9.999
Thu Dec 05 12:45:29 2024,490,-14.532,-14.532,-0.851,-0.851,1.885,25.268,11.067,6.504,26.845,14.556,-2.227,16.808,10.529,14.603,5.384,9.982
Thu Dec 05 12:45:29 2024,495,-14.579,-14.579,-0.904,-0.904,1.912,25.247,11.157,6.541,26.834,14.584,-2.280,16.654,10.529,14.605,5.384,9.985
Thu Dec 05 12:45:29 2024,500,-14.584,-14.584,-0.912,-0.912,1.929,25.222,11.190,6.551,26.840,14.608,-2.293,16.622,10.541,14.619,5.371,10.022
Thu Dec 05 12:45:29 2024,505,-14.555,-14.555,-0.880,-0.880,1.937,25.193,11.174,6.537,26.856,14.626,-2.270,16.699,10.564,14.643,5.347,10.085
Thu Dec 05 12:45:29 2024,510,-14.500,-14.500,-0.850,-0.850,1.988,25.257,11.192,6.585,26.924,14.647,-2.248,16.722,10.547,14.657,5.334,10.093
Thu Dec 05 12:45:29 2024,515,-14.436,-14.436,-0.831,-0.831,2.065,25.387,11.236,6.676,27.020,14.666,-2.230,16.694,10.500,14.658,5.335,10.050
Thu Dec 05 12:45:29 2024,520,-14.360,-14.360,-0.827,-0.827,2.111,25.470,11.293,6.712,27.057,14.678,-2.213,16.710,10.503,14.680,5.316,10.052
Thu Dec 05 12:45:29 2024,525,-14.264,-14.264,-0.851,-0.851,2.103,25.472,11.371,6.655,26.992,14.678,-2.200,16.805,10.591,14.736,5.261,10.129
Thu Dec 05 12:45:29 2024,530,-14.166,-14.166,-0.901,-0.901,2.120,25.497,11.438,6.658,26.989,14.692,-2.193,16.824,10.614,14.776,5.222,10.149
Thu Dec 05 12:45:29 2024,535,-14.006,-14.006,-1.020,-1.020,2.186,25.572,11.531,6.752,27.075,14.734,-2.196,16.739,10.550,14.816,5.182,10.096
Thu Dec 05 12:45:29 2024,540,-13.868,-13.868,-1.123,-1.123,2.243,25.638,11.610,6.834,27.149,14.770,-2.197,16.664,10.495,14.850,5.149,10.050
Thu Dec 05 12:45:29 2024,545,-13.592,-13.592,-1.234,-1.234,2.291,25.748,11.569,6.817,27.127,14.818,-2.135,16.829,10.638,14.835,5.161,10.145
Thu Dec 05 12:45:29 2024,550,-13.348,-13.348,-1.326,-1.326,2.343,25.873,11.606,6.828,27.125,14.875,-2.107,16.904,10.734,14.828,5.166,10.210
Thu Dec 05 12:45:29 2024,555,-13.113,-13.113,-1.379,-1.379,2.409,26.057,11.792,6.869,27.136,14.961,-2.134,16.858,10.797,14.824,5.171,10.263
Thu Dec 05 12:45:29 2024,560,-12.911,-12.911,-1.431,-1.431,2.477,26.195,11.946,6.908,12.847,15.031,-2.155,16.819,10.836,14.827,5.169,10.294
Thu Dec 05 12:45:29 2024,565,-12.718,-12.718,-1.505,-1.505,2.579,26.262,12.080,6.963,12.807,15.088,-2.170,16.782,10.824,14.854,5.143,10.275
Thu Dec 05 12:45:29 2024,570,-12.528,-12.528,-1.577,-1.577,2.678,26.329,12.211,7.016,12.768,15.144,-2.185,16.745,10.811,14.880,5.118,10.256
Thu Dec 05 12:45:29 2024,575,-12.415,-12.415,-1.552,-1.552,2.745,26.356,12.213,6.994,12.802,15.119,-2.171,16.731,10.770,14.895,5.105,10.141
Thu Dec 05 12:45:29 2024,580,-12.273,-12.273,-1.553,-1.553,2.824,26.405,12.221,6.984,12.822,15.104,-2.150,16.725,10.737,14.911,5.089,10.045
Thu Dec 05 12:45:29 2024,585,-12.205,-12.205,-1.600,-1.600,2.854,26.466,12.172,6.986,12.814,15.098,-2.107,16.775,10.748,14.915,5.085,10.062
Thu Dec 05 12:45:29 2024,590,-12.133,-12.133,-1.651,-1.651,2.885,26.531,12.118,6.987,12.806,15.092,-2.060,16.829,10.761,14.918,5.081,10.081
Thu Dec 05 12:45:29 2024,595,-12.159,-12.159,-1.593,-1.593,3.135,26.679,12.290,6.986,12.849,15.090,-2.066,16.738,10.797,14.894,5.106,10.082
Thu Dec 05 12:45:29 2024,600,-12.184,-12.184,-1.541,-1.541,3.353,26.810,12.441,6.984,12.884,15.088,-2.072,16.656,10.828,14.872,5.124,10.083
Thu Dec 05 12:45:29 2024,605,-12.218,-12.218,-1.558,-1.558,3.798,27.232,12.738,6.968,12.925,15.079,-2.093,16.544,10.753,14.903,5.090,10.069
Thu Dec 05 12:45:29 2024,610,-12.249,-12.249,-1.576,-1.576,4.203,27.624,13.006,6.952,12.961,15.071,-2.112,16.442,10.683,14.932,5.058,10.055
Thu Dec 05 12:45:29 2024,615,-12.326,-12.326,-1.629,-1.629,5.038,28.675,13.594,6.939,12.996,15.175,-2.122,16.540,10.765,14.886,5.092,9.974
Thu Dec 05 12:45:29 2024,620,-12.402,-12.402,-1.682,-1.682,5.866,29.735,14.176,6.926,13.026,15.287,-2.130,16.655,10.862,14.831,5.128,9.891
Thu Dec 05 12:45:29 2024,625,-12.370,-12.370,-1.595,-1.595,7.140,31.159,15.062,7.031,12.959,15.199,-2.216,16.368,10.699,14.681,5.240,9.772
Thu Dec 05 12:45:29 2024,630,-12.317,-12.317,-1.478,-1.478,8.518,32.687,16.022,7.160,12.839,15.066,-2.322,15.986,10.482,14.510,5.358,9.647
Thu Dec 05 12:45:29 2024,635,-12.132,-12.132,-1.472,-1.472,9.726,34.223,17.456,7.176,12.800,14.965,-2.353,15.918,10.394,14.216,5.591,9.635
Thu Dec 05 12:45:29 2024,640,-11.935,-11.935,-1.474,-1.474,11.009,35.880,19.055,7.186,12.734,14.856,-2.381,15.866,10.309,13.897,5.833,9.629
Thu Dec 05 12:45:29 2024,645,-11.896,-11.896,-1.625,-1.625,12.255,38.073,22.736,7.532,12.363,14.913,-2.289,15.895,10.218,13.660,5.953,9.603
Thu Dec 05 12:45:29 2024,650,-11.904,-11.904,-1.788,-1.788,13.276,40.013,26.390,7.898,11.990,15.001,-2.182,15.936,10.144,13.488,6.010,9.578
Thu Dec 05 12:45:29 2024,655,-11.978,-11.978,-1.764,-1.764,13.805,42.427,31.173,8.465,11.483,15.094,-1.959,15.963,10.108,13.460,5.945,9.493
Thu Dec 05 12:45:29 2024,660,-12.063,-12.063,-1.696,-1.696,14.161,44.813,36.152,9.024,10.964,15.168,-1.727,15.969,10.086,13.476,5.853,9.401
Thu Dec 05 12:45:29 2024,665,-11.876,-11.876,-1.796,-1.796,14.394,47.904,42.003,9.375,10.625,15.019,-1.488,16.026,10.051,13.486,5.921,9.223
Thu Dec 05 12:45:29 2024,670,-11.640,-11.640,-1.930,-1.930,14.492,50.413,46.851,9.542,10.458,14.831,-1.316,16.087,10.024,13.489,6.025,9.066
Thu Dec 05 12:45:29 2024,675,-11.515,-11.515,-2.179,-2.179,14.584,53.537,54.575,9.667,10.330,14.863,-0.845,16.427,10.082,13.588,5.982,8.849
Thu Dec 05 12:45:29 2024,680,-11.471,-11.471,-2.410,-2.410,14.689,56.200,62.131,9.743,10.251,14.973,-0.379,16.742,10.157,13.702,5.891,8.668
Thu Dec 05 12:45:29 2024,685,-11.382,-11.382,-2.752,-2.752,14.503,57.765,68.401,9.706,10.268,15.192,-0.066,17.283,10.209,13.755,5.843,8.424
Thu Dec 05 12:45:29 2024,690,-11.277,-11.277,-3.137,-3.137,14.126,58.576,73.464,9.613,10.312,15.461,0.148,17.922,10.242,13.770,5.824,8.161
Thu Dec 05 12:45:29 2024,695,-11.069,-11.069,-3.357,-3.357,14.106,59.171,75.425,9.753,10.099,15.680,0.287,18.175,10.161,13.734,5.865,8.027
Thu Dec 05 12:45:29 2024,700,-10.806,-10.806,-3.471,-3.471,14.300,59.593,75.431,10.013,9.747,15.860,0.372,18.204,10.018,13.670,5.938,7.973
Thu Dec 05 12:45:29 2024,705,-10.625,-10.625,-3.441,-3.441,14.893,60.630,76.239,10.299,30.705,16.081,0.377,18.287,9.834,13.546,6.060,7.811
Thu Dec 05 12:45:29 2024,710,-10.559,-10.559,-3.307,-3.307,15.647,61.861,77.459,10.526,31.128,16.271,0.318,18.391,9.669,13.410,6.186,7.610
Thu Dec 05 12:45:29 2024,715,-10.447,-10.447,-3.139,-3.139,16.255,63.335,79.095,10.717,31.559,16.466,0.228,18.612,9.554,13.267,6.337,7.488
Thu Dec 05 12:45:29 2024,720,-10.281,-10.281,-2.936,-2.936,16.542,65.092,81.282,10.826,31.940,16.654,0.088,19.008,9.532,13.127,6.516,7.510
Thu Dec 05 12:45:29 2024,725,-10.192,-10.192,-2.808,-2.808,16.757,66.874,83.896,10.884,32.236,16.852,0.052,19.292,9.622,13.029,6.642,7.634
Thu Dec 05 12:45:29 2024,730,-10.165,-10.165,-2.747,-2.747,16.924,68.948,87.296,10.897,32.466,17.091,0.127,19.492,9.852,12.966,6.727,7.890
Thu Dec 05 12:45:29 2024,735,-10.153,-10.153,-2.702,-2.702,17.076,70.559,89.801,10.905,32.647,17.273,0.183,19.624,10.028,12.917,6.792,8.084
Thu Dec 05 12:45:29 2024,740,-10.092,-10.092,-2.501,-2.501,17.086,72.934,93.016,11.105,33.052,17.436,0.431,19.565,10.310,12.666,6.992,8.156
Thu Dec 05 12:45:29 2024,745,-10.055,-10.055,-2.372,-2.372,17.173,74.786,95.298,11.228,33.343,17.575,0.592,20.612,10.524,12.502,7.126,8.241
Thu Dec 05 12:45:29 2024,750,-10.088,-10.088,-2.165,-2.165,17.357,77.152,97.292,11.312,33.748,17.643,0.604,20.774,10.572,12.313,7.353,8.346
Thu Dec 05 12:45:29 2024,755,-10.092,-10.092,-1.985,-1.985,17.555,79.036,98.717,11.404,34.083,17.734,0.661,20.980,10.653,12.143,7.536,8.408
Thu Dec 05 12:45:29 2024,760,-10.042,-10.042,-1.730,-1.730,17.683,80.481,99.475,11.558,34.412,17.902,0.822,21.196,10.792,11.918,7.735,8.364
Thu Dec 05 12:45:29 2024,765,-10.004,-10.004,-1.539,-1.539,17.811,81.593,99.996,11.675,34.665,18.033,0.945,21.361,10.898,11.748,7.885,8.332
Thu Dec 05 12:45:29 2024,770,-9.842,-9.842,-1.649,-1.649,17.850,82.670,100.343,11.752,34.957,18.129,1.026,21.646,11.061,11.590,8.049,8.360
Thu Dec 05 12:45:29 2024,775,-9.718,-9.718,-1.727,-1.727,17.975,83.598,100.610,11.828,35.220,18.232,1.141,21.942,11.217,11.495,8.151,8.381
Thu Dec 05 12:45:29 2024,780,-9.627,-9.627,-1.812,-1.812,18.267,84.352,100.790,11.921,35.485,18.368,1.382,22.363,11.411,11.555,8.115,8.407
Thu Dec 05 12:45:29 2024,785,-9.528,-9.528,-1.909,-1.909,18.613,85.208,100.977,12.024,35.787,18.523,1.653,22.838,11.633,11.622,8.074,8.437
Thu Dec 05 12:45:29 2024,790,-9.457,-9.457,-1.853,-1.853,18.710,85.785,100.939,12.055,36.054,18.710,1.742,23.016,11.747,11.516,8.174,8.378
Thu Dec 05 12:45:29 2024,795,-9.389,-9.389,-1.810,-1.810,18.827,86.349,100.903,12.087,36.312,18.886,1.835,23.201,11.862,11.426,8.260,8.328
Thu Dec 05 12:45:29 2024,800,-9.276,-9.276,-1.790,-1.790,19.002,87.032,101.055,12.147,36.570,19.009,1.849,23.374,11.932,11.496,8.205,8.423
Thu Dec 05 12:45:29 2024,805,-9.179,-9.179,-1.768,-1.768,19.181,87.624,101.173,12.202,36.796,19.114,1.858,23.528,11.994,11.554,8.162,8.504
Thu Dec 05 12:45:29 2024,810,-9.098,-9.098,-1.682,-1.682,19.516,88.169,101.250,12.298,37.054,19.217,1.864,23.714,12.082,11.528,8.205,8.533
Thu Dec 05 12:45:29 2024,815,-9.026,-9.026,-1.598,-1.598,19.842,88.669,101.310,12.390,37.294,19.312,1.868,23.890,12.166,11.499,8.250,8.554
Thu Dec 05 12:45:29 2024,820,-9.023,-9.023,-1.566,-1.566,20.105,88.849,101.443,12.445,37.411,19.343,1.876,23.980,12.214,11.405,8.314,8.478
Thu Dec 05 12:45:29 2024,825,-9.025,-9.025,-1.544,-1.544,20.318,88.974,101.554,12.489,37.498,19.364,1.884,24.048,12.251,11.324,8.366,8.410
Thu Dec 05 12:45:29 2024,830,-8.988,-8.988,-1.442,-1.442,20.522,89.216,101.598,12.488,37.596,19.398,1.790,24.082,12.244,11.195,8.498,8.401
Thu Dec 05 12:45:29 2024,835,-8.944,-8.944,-1.325,-1.325,20.690,89.462,101.606,12.469,37.680,19.432,1.672,24.098,12.220,11.066,8.642,8.414
Thu Dec 05 12:45:29 2024,840,-8.906,-8.906,-1.288,-1.288,20.845,89.546,101.661,12.496,37.673,19.465,1.648,24.080,12.233,10.936,8.735,8.311
Thu Dec 05 12:45:29 2024,845,-8.864,-8.864,-1.259,-1.259,21.021,89.617,101.732,12.534,37.651,19.502,1.636,24.055,12.254,10.788,8.829,8.176
Thu Dec 05 12:45:29 2024,850,-8.849,-8.849,-1.196,-1.196,20.985,89.480,101.628,12.503,37.600,19.528,1.584,24.043,12.239,10.730,8.882,8.154
Thu Dec 05 12:45:29 2024,855,-8.845,-8.845,-1.143,-1.143,20.910,89.331,101.509,12.464,37.556,19.544,1.535,24.039,12.220,10.708,8.913,8.164
Thu Dec 05 12:45:29 2024,860,-8.846,-8.846,-1.096,-1.096,20.654,89.015,101.473,12.335,37.474,19.569,1.414,24.116,12.311,10.622,8.997,8.256
Thu Dec 05 12:45:29 2024,865,-8.849,-8.849,-1.066,-1.066,20.397,88.720,101.484,12.204,37.400,19.590,1.297,24.211,12.424,10.533,9.080,8.358
Thu Dec 05 12:45:29 2024,870,-8.838,-8.838,-1.108,-1.108,20.129,88.341,101.416,12.127,37.323,19.570,1.249,24.363,12.479,10.451,9.144,8.297
Thu Dec 05 12:45:29 2024,875,-8.825,-8.825,-1.174,-1.174,19.900,87.986,101.325,12.083,37.256,19.537,1.235,24.513,12.504,10.384,9.191,8.184
Thu Dec 05 12:45:29 2024,880,-8.814,-8.814,-1.244,-1.244,19.666,87.621,101.227,12.037,37.187,19.502,1.220,24.669,12.530,10.316,9.239,8.068
Thu Dec 05 12:45:29 2024,885,-8.795,-8.795,-1.285,-1.285,19.542,87.350,101.056,12.010,37.142,19.551,1.236,24.701,12.590,10.348,9.212,8.077
Thu Dec 05 12:45:29 2024,890,-8.762,-8.762,-1.353,-1.353,19.348,86.889,100.731,11.966,37.068,19.658,1.272,24.732,12.704,10.430,9.147,8.121
Thu Dec 05 12:45:29 2024,895,-8.707,-8.707,-1.388,-1.388,18.851,85.894,100.365,11.867,36.979,19.796,1.240,24.885,12.895,10.419,9.139,8.155
Thu Dec 05 12:45:29 2024,900,-8.611,-8.611,-1.428,-1.428,18.022,84.327,99.858,11.720,36.858,19.979,1.170,25.157,13.188,10.417,9.121,8.268
Thu Dec 05 12:45:29 2024,905,-8.508,-8.508,-1.538,-1.538,17.155,82.860,99.339,11.589,36.711,20.093,1.132,25.463,13.457,10.510,9.049,8.438
Thu Dec 05 12:45:29 2024,910,-8.482,-8.482,-1.622,-1.622,16.472,81.190,98.581,11.496,36.584,20.142,1.090,25.706,13.590,10.582,9.002,8.494
Thu Dec 05 12:45:29 2024,915,-8.513,-8.513,-1.683,-1.683,15.930,79.276,97.533,11.421,36.469,20.153,1.036,25.913,13.631,10.633,8.977,8.461
Thu Dec 05 12:45:29 2024,920,-8.535,-8.535,-1.748,-1.748,15.378,77.451,96.191,11.348,36.313,20.121,0.989,26.075,13.648,10.646,8.974,8.395
Thu Dec 05 12:45:29 2024,925,-8.550,-8.550,-1.865,-1.865,14.303,74.556,93.251,11.227,35.934,19.947,0.923,26.224,13.611,10.563,9.034,8.189
Thu Dec 05 12:45:29 2024,930,-8.563,-8.563,-1.951,-1.951,13.632,72.488,90.937,11.138,35.668,19.833,0.874,26.344,13.590,10.511,9.071,8.048
Thu Dec 05 12:45:29 2024,935,-8.807,-8.807,-2.131,-2.131,13.739,69.212,85.510,11.464,35.729,19.530,1.040,26.088,13.354,10.574,8.947,7.719
Thu Dec 05 12:45:29 2024,940,-8.974,8.974,-2.251,-2.251,13.794,67.084,81.867,11.643,35.732,19.340,1.130,25.955,13.211,10.604,8.877,7.505
Thu Dec 05 12:45:29 2024,945,-9.116,9.116,-2.396,-2.396,12.972,65.016,78.936,11.500,35.213,18.972,1.033,25.733,13.179,10.494,8.972,7.489
Thu Dec 05 12:45:29 2024,950,-9.256,9.256,-2.527,-2.527,12.381,63.177,76.253,11.409,34.818,18.672,0.969,25.546,13.137,10.413,9.036,7.450
Thu Dec 05 12:45:29 2024,955,-9.599,9.599,-2.462,-2.462,12.169,63.464,75.864,11.312,34.646,18.231,1.112,25.983,13.126,10.464,9.030,7.334
Thu Dec 05 12:45:29 2024,960,-9.739,9.739,-2.321,-2.321,12.160,63.192,74.071,11.232,34.408,17.918,1.156,26.046,13.047,10.429,9.066,7.264
Thu Dec 05 12:45:29 2024,965,-9.511,9.511,-1.875,-1.875,12.730,62.214,69.024,11.163,33.993,17.700,1.058,25.478,12.790,10.225,9.192,7.239
Thu Dec 05 12:45:29 2024,970,-9.294,9.294,-1.431,-1.431,13.279,61.291,64.112,11.101,33.592,17.474,0.967,24.911,12.537,10.023,9.309,7.213
Thu Dec 05 12:45:29 2024,975,-8.516,-8.516,-1.207,-1.207,12.093,56.233,53.341,10.747,33.098,17.378,0.343,24.261,12.246,9.620,9.720,7.409
Thu Dec 05 12:45:29 2024,980,-7.930,-7.930,-0.974,-0.974,11.449,52.529,45.721,10.478,32.673,17.273,-0.140,23.725,11.995,9.285,10.045,7.559
Thu Dec 05 12:45:29 2024,985,-8.047,-8.047,-1.091,-1.091,10.857,49.994,39.898,10.265,32.375,17.392,-0.325,23.157,12.149,9.063,10.098,7.631
Thu Dec 05 12:45:29 2024,990,-8.081,-8.081,-1.155,-1.155,10.425,47.963,35.751,10.093,32.130,17.465,-0.498,22.738,12.234,8.879,10.150,7.696
Thu Dec 05 12:45:29 2024,995,-7.879,-7.879,-1.101,-1.101,9.892,45.778,31.498,9.602,31.784,17.478,-0.569,22.639,12.107,8.949,10.177,7.902
Thu Dec 05 12:45:30 2024,0,-7.705,-7.705,-1.075,-1.075,9.429,43.770,27.847,9.157,31.470,17.497,-0.640,22.532,12.002,8.999,10.200,8.088
Thu Dec 05 12:45:30 2024,5,-7.612,-7.612,-1.167,-1.167,8.784,42.033,24.571,8.827,31.194,17.478,-0.548,22.298,11.968,9.098,10.235,8.169
Thu Dec 05 12:45:30 2024,10,-7.538,-7.538,-1.254,-1.254,8.254,40.615,21.988,8.556,30.968,17.462,-0.463,22.098,11.942,9.181,10.258,8.231
Thu Dec 05 12:45:30 2024,15,-7.515,-7.515,-1.289,-1.289,7.515,39.119,19.733,8.186,30.519,17.139,-0.442,22.008,11.896,9.238,10.281,8.203
Thu Dec 05 12:45:30 2024,20,-7.498,-7.498,-1.318,-1.318,6.769,37.638,17.585,7.808,30.049,16.788,-0.428,21.931,11.848,9.292,10.300,8.167
Thu Dec 05 12:45:30 2024,25,-7.691,-7.691,-1.299,-1.299,6.066,36.471,16.198,7.527,29.679,16.476,-0.332,22.033,11.795,9.458,10.216,8.098
Thu Dec 05 12:45:30 2024,30,-7.900,-7.900,-1.277,-1.277,5.384,35.379,14.943,7.260,29.329,16.178,-0.228,22.156,11.742,9.632,10.113,8.026
Thu Dec 05 12:45:30 2024,35,-8.166,0.058,-1.343,-1.343,4.847,34.671,14.180,7.010,29.086,15.893,-0.164,22.294,11.664,9.678,10.100,7.873
Thu Dec 05 12:45:30 2024,40,-8.442,8.442,-1.403,-1.403,4.330,33.998,13.476,6.765,28.841,15.609,-0.094,22.434,11.593,9.733,10.078,7.731
Thu Dec 05 12:45:30 2024,45,-8.693,8.693,-1.361,-1.361,3.904,33.278,12.857,6.578,28.520,15.334,0.018,22.566,11.596,9.928,9.936,7.743
Thu Dec 05 12:45:30 2024,50,-8.900,8.900,-1.268,-1.268,3.580,32.621,12.363,6.444,28.200,15.099,0.141,22.681,11.640,10.174,9.740,7.838
Thu Dec 05 12:45:30 2024,55,-9.118,9.118,-1.238,-1.238,3.300,32.054,12.111,6.209,27.736,14.910,0.213,22.821,11.695,10.338,9.615,7.977
Thu Dec 05 12:45:30 2024,60,-9.324,9.324,-1.224,-1.224,3.048,31.550,11.930,5.967,27.280,14.745,0.268,22.956,11.747,10.472,9.508,8.114
Thu Dec 05 12:45:30 2024,65,-9.596,9.596,-1.218,-1.218,2.811,30.947,11.780,5.800,26.895,14.696,0.325,22.896,11.808,10.598,9.397,8.245
Thu Dec 05 12:45:30 2024,70,-9.848,9.848,-1.216,-1.216,2.626,30.424,11.675,5.698,26.621,14.706,0.369,22.762,11.859,10.694,9.305,8.345
Thu Dec 05 12:45:30 2024,75,-10.022,10.022,-1.230,-1.230,2.462,29.922,11.481,5.557,26.317,14.640,0.416,22.646,11.921,10.778,9.222,8.450
Thu Dec 05 12:45:30 2024,80,-10.142,10.142,-1.248,-1.248,2.330,29.502,11.284,5.423,26.050,14.557,0.456,22.553,11.978,10.845,9.153,8.541
Thu Dec 05 12:45:30 2024,85,-10.258,10.258,-1.208,-1.208,2.208,29.154,11.116,5.277,25.785,14.438,0.484,22.468,11.997,10.892,9.102,8.648
Thu Dec 05 12:45:30 2024,90,-10.379,10.379,-1.059,-1.059,2.089,28.887,10.982,5.088,25.480,14.236,0.497,22.380,11.948,10.911,9.074,8.800
Thu Dec 05 12:45:30 2024,95,-10.444,10.444,-1.019,-1.019,1.954,28.622,10.863,4.967,25.299,14.133,0.505,22.323,11.922,10.941,9.036,8.872
Thu Dec 05 12:45:30 2024,100,-10.423,10.423,-1.155,-1.155,1.674,28.197,10.705,4.904,25.238,14.150,0.504,22.296,11.900,11.008,8.963,8.821
Thu Dec 05 12:45:30 2024,105,-10.445,10.445,-1.213,-1.213,1.500,27.922,10.560,4.840,25.165,14.097,0.517,22.296,11.855,11.068,8.897,8.793
Thu Dec 05 12:45:30 2024,110,-10.503,10.503,-1.256,-1.256,1.318,27.630,10.349,4.756,25.068,13.971,0.550,22.330,11.770,11.160,8.802,8.750
Thu Dec 05 12:45:30 2024,115,-10.510,10.510,-1.246,-1.246,1.180,27.362,10.188,4.720,25.010,13.883,0.574,22.317,11.712,11.163,8.799,8.691
Thu Dec 05 12:45:30 2024,120,-10.486,10.486,-1.204,-1.204,1.082,27.134,10.074,4.716,24.984,13.825,0.589,22.278,11.676,11.112,8.854,8.627
Thu Dec 05 12:45:30 2024,125,-10.485,10.485,-1.157,-1.157,0.900,26.822,9.863,4.707,24.980,13.727,0.647,22.432,11.629,11.080,8.886,8.502
Thu Dec 05 12:45:30 2024,130,-10.510,10.510,-1.127,-1.127,0.707,26.561,9.642,4.696,25.008,13.628,0.727,22.734,11.587,11.085,8.876,8.367
Thu Dec 05 12:45:30 2024,135,-10.579,10.579,-1.126,-1.126,0.509,26.260,9.434,4.694,25.036,13.548,0.812,22.959,11.568,11.087,8.869,8.257
Thu Dec 05 12:45:30 2024,140,-10.737,10.737,-1.184,-1.184,0.273,25.837,9.223,4.707,25.065,13.494,0.921,23.070,11.586,11.083,8.869,8.180
Thu Dec 05 12:45:30 2024,145,-10.839,10.839,-1.218,-1.218,0.065,25.437,9.005,4.748,25.142,13.482,1.048,23.192,11.604,11.100,8.849,8.104
Thu Dec 05 12:45:30 2024,150,-10.909,10.909,-1.233,-1.233,-0.168,24.865,8.669,4.845,25.326,13.524,1.259,23.395,11.628,11.154,8.793,7.988
Thu Dec 05 12:45:30 2024,155,-10.957,10.957,-1.243,-1.243,-0.321,24.438,8.412,4.922,25.475,13.562,1.423,23.557,11.646,11.198,8.748,7.900
Thu Dec 05 12:45:30 2024,160,-11.048,11.048,-1.250,-1.250,-0.461,24.193,8.315,5.041,25.606,13.437,1.440,23.510,11.445,11.215,8.727,7.742
Thu Dec 05 12:45:30 2024,165,-11.116,11.116,-1.257,-1.257,-0.582,23.964,8.206,5.132,25.717,13.361,1.480,23.508,11.317,11.233,8.706,7.624
Thu Dec 05 12:45:30 2024,170,-11.253,11.253,-1.161,-1.161,-0.728,23.708,8.127,5.207,25.792,13.399,1.511,23.343,11.268,11.292,8.651,7.602
Thu Dec 05 12:45:30 2024,175,-11.396,11.396,-1.100,-1.100,-0.861,23.484,8.056,5.279,25.878,13.426,1.536,23.208,11.204,11.355,8.588,7.584
Thu Dec 05 12:45:30 2024,180,-11.557,11.557,-1.127,-1.127,-0.932,23.384,8.048,5.317,25.974,13.456,1.535,23.129,11.124,11.439,8.491,7.627
Thu Dec 05 12:45:30 2024,185,-11.676,11.676,-1.150,-1.150,-0.981,23.317,8.043,5.343,26.045,13.479,1.533,23.074,11.067,11.500,8.421,7.660
Thu Dec 05 12:45:30 2024,190,-11.652,11.652,-1.179,-1.179,-1.036,23.173,7.948,5.366,26.116,13.545,1.566,22.994,11.016,11.543,8.370,7.670
Thu Dec 05 12:45:30 2024,195,-11.632,11.632,-1.210,-1.210,-1.079,23.053,7.874,5.399,26.198,13.602,1.605,22.925,10.960,11.596,8.308,7.679
Thu Dec 05 12:45:30 2024,200,-11.619,11.619,-1.253,-1.253,-1.056,23.044,7.915,5.491,26.325,13.606,1.678,22.918,10.871,11.698,8.193,7.680
Thu Dec 05 12:45:30 2024,205,-11.607,11.607,-1.294,-1.294,-1.029,23.047,7.964,5.580,26.445,13.606,1.748,22.918,10.787,11.795,8.083,7.680
Thu Dec 05 12:45:30 2024,210,-11.780,11.780,-1.273,-1.273,-1.090,23.126,8.015,5.611,26.557,13.723,1.757,22.904,10.824,11.827,8.063,7.693
Thu Dec 05 12:45:30 2024,215,-11.955,11.955,-1.251,-1.251,-1.151,23.207,8.067,5.641,26.673,13.842,1.765,22.889,10.863,11.858,8.044,7.707
Thu Dec 05 12:45:30 2024,220,-11.880,11.880,-1.227,-1.227,-1.213,22.968,7.898,5.671,26.811,13.814,1.734,22.904,10.804,11.819,8.099,7.616
Thu Dec 05 12:45:30 2024,225,-11.786,11.786,-1.204,-1.204,-1.271,22.722,7.717,5.699,26.948,13.775,1.701,22.921,10.741,11.776,8.157,7.520
Thu Dec 05 12:45:30 2024,230,-11.823,11.823,-1.118,-1.118,-1.210,22.669,7.733,5.933,27.366,13.963,1.759,22.945,10.675,11.820,8.124,7.427
Thu Dec 05 12:45:30 2024,235,-11.865,11.865,-1.042,-1.042,-1.149,22.645,7.764,6.143,27.737,14.138,1.815,22.966,10.621,11.865,8.087,7.351
Thu Dec 05 12:45:30 2024,240,-11.922,11.922,-0.948,-0.948,-1.099,22.583,7.807,6.350,28.194,14.381,1.894,23.099,10.622,11.884,8.086,7.181
Thu Dec 05 12:45:30 2024,245,-11.976,11.976,-0.868,-0.868,-1.057,22.520,7.849,6.533,28.624,14.609,1.968,23.240,10.631,11.895,8.088,7.011
Thu Dec 05 12:45:30 2024,250,-11.986,11.986,-0.819,-0.819,-0.985,22.582,7.862,6.975,29.500,14.953,2.048,23.336,10.662,12.025,7.965,6.947
Thu Dec 05 12:45:30 2024,255,-11.984,11.984,-0.791,-0.791,-0.922,22.663,7.867,7.378,30.294,15.245,2.112,23.402,10.691,12.154,7.839,6.920
Thu Dec 05 12:45:30 2024,260,-11.931,11.931,-0.800,-0.800,-0.798,22.774,7.845,7.916,31.373,15.610,2.196,23.482,10.682,12.257,7.742,6.828
Thu Dec 05 12:45:30 2024,265,-11.872,11.872,-0.820,-0.820,-0.681,22.876,7.820,8.370,32.294,15.902,2.266,23.549,10.661,12.326,7.674,6.734
Thu Dec 05 12:45:30 2024,270,-11.756,11.756,-0.804,-0.804,-0.617,22.956,7.809,8.766,33.165,16.230,2.316,23.625,10.708,12.324,7.669,6.595
Thu Dec 05 12:45:30 2024,275,-11.622,11.622,-0.779,-0.779,-0.576,23.024,7.803,9.120,33.983,16.554,2.355,23.701,10.777,12.299,7.679,6.446
Thu Dec 05 12:45:30 2024,280,-11.582,11.582,-0.757,0.757,-0.449,23.155,7.880,9.477,34.767,16.967,2.449,23.869,10.876,12.365,7.595,6.392
Thu Dec 05 12:45:30 2024,285,-11.582,11.582,-0.750,0.750,-0.318,23.290,7.972,9.769,35.397,17.335,2.545,24.038,10.968,12.451,7.492,6.381
Thu Dec 05 12:45:30 2024,290,-11.566,11.566,-0.765,0.765,-0.185,23.474,8.069,10.048,36.037,17.712,2.588,24.208,11.057,12.514,7.392,6.230
Thu Dec 05 12:45:30 2024,295,-11.541,11.541,-0.785,0.785,-0.095,23.634,8.140,10.226,36.475,17.974,2.579,24.326,11.115,12.539,7.321,6.027
Thu Dec 05 12:45:30 2024,300,-11.496,11.496,-0.799,0.799,0.063,23.843,8.279,10.374,36.814,18.206,2.561,24.486,11.176,12.599,7.207,5.853
Thu Dec 05 12:45:30 2024,305,-11.434,11.434,-0.804,0.804,0.206,24.085,8.471,10.478,37.026,18.388,2.536,24.673,11.236,12.686,7.068,5.722
Thu Dec 05 12:45:30 2024,310,-11.396,11.396,-0.805,0.805,0.299,24.304,8.602,10.554,37.263,18.551,2.511,24.894,11.295,12.770,6.946,5.619
Thu Dec 05 12:45:30 2024,315,-11.383,11.383,-0.804,0.804,0.329,24.516,8.676,10.607,37.551,18.710,2.483,25.176,11.360,12.855,6.837,5.537
Thu Dec 05 12:45:30 2024,320,-11.366,11.366,-0.802,0.802,0.391,24.718,8.724,10.672,37.802,18.898,2.447,25.319,11.382,12.986,6.672,5.416
Thu Dec 05 12:45:30 2024,325,-11.344,11.344,-0.799,0.799,0.499,24.896,8.726,10.753,37.984,19.123,2.402,25.235,11.336,13.181,6.427,5.244
Thu Dec 05 12:45:30 2024,330,-11.354,11.354,-0.798,0.798,0.539,25.022,8.742,10.803,38.150,19.401,2.316,25.095,11.283,13.337,6.209,5.070
Thu Dec 05 12:45:30 2024,335,-11.410,11.410,-0.821,0.821,0.512,25.124,8.776,10.832,38.348,19.815,2.160,24.858,11.207,13.495,5.954,4.852
Thu Dec 05 12:45:30 2024,340,-11.429,11.429,-0.874,0.874,0.539,25.319,8.795,10.866,38.610,20.157,2.049,24.911,11.175,13.661,5.694,4.632
Thu Dec 05 12:45:30 2024,345,-11.394,11.394,-0.964,0.964,0.648,25.685,8.790,10.912,39.004,20.424,1.993,25.433,11.208,13.861,5.400,4.379
Thu Dec 05 12:45:30 2024,350,-11.375,11.375,-1.069,1.069,0.784,26.063,8.823,10.970,39.352,20.773,1.925,25.767,11.214,14.064,5.098,4.163
Thu Dec 05 12:45:30 2024,355,-11.372,11.372,-1.157,1.157,0.958,26.433,8.917,11.044,39.588,21.234,1.845,25.721,11.168,14.253,4.812,4.018
Thu Dec 05 12:45:30 2024,360,-11.310,11.310,-1.253,1.253,1.168,26.816,8.979,11.128,39.958,21.836,1.782,25.763,11.153,14.456,4.540,3.934
Thu Dec 05 12:45:30 2024,365,-11.166,11.166,-1.332,1.332,1.376,27.112,8.969,11.198,40.445,22.497,1.766,25.938,11.192,14.624,4.374,3.968
Thu Dec 05 12:45:30 2024,370,-11.026,-11.026,-1.408,1.408,1.629,27.419,9.016,11.290,41.012,23.298,1.757,26.151,11.264,14.798,4.176,3.981
Thu Dec 05 12:45:30 2024,375,-10.893,-10.893,-1.459,1.459,2.037,27.730,9.273,11.455,41.819,24.541,1.784,26.491,11.453,14.978,3.866,3.893
Thu Dec 05 12:45:30 2024,380,-10.769,-10.769,-1.494,1.494,2.389,28.001,9.505,11.579,42.521,25.629,1.776,26.813,11.625,15.130,3.609,3.837
Thu Dec 05 12:45:30 2024,385,-10.576,-10.576,-1.477,1.477,2.745,28.231,9.802,11.585,43.222,26.748,1.570,27.332,11.847,15.261,3.445,3.893
Thu Dec 05 12:45:30 2024,390,-10.438,-10.438,-1.470,1.470,2.999,28.399,10.035,11.585,43.758,27.611,1.404,27.774,12.026,15.362,3.317,3.934
Thu Dec 05 12:45:30 2024,395,-10.360,-10.360,-1.524,1.524,3.089,28.400,10.288,11.578,44.258,28.442,1.188,28.607,12.305,15.463,3.160,3.954
Thu Dec 05 12:45:30 2024,400,-10.290,-10.290,-1.574,1.574,3.173,28.368,10.526,11.570,44.650,29.160,0.987,29.342,12.544,15.562,3.006,3.959
Thu Dec 05 12:45:30 2024,405,-10.220,-10.220,-1.603,1.603,3.258,28.117,10.783,11.557,44.577,29.481,0.784,29.819,12.680,15.683,2.803,3.879
Thu Dec 05 12:45:30 2024,410,-10.153,-10.153,-1.639,1.639,3.342,27.866,11.052,11.538,44.499,29.820,0.590,30.313,12.811,15.809,2.593,3.801
Thu Dec 05 12:45:30 2024,415,-10.115,-10.115,-1.736,1.736,3.395,27.621,11.659,11.363,44.698,30.919,0.380,31.424,12.956,16.075,2.278,3.785
Thu Dec 05 12:45:30 2024,420,-10.084,-10.084,-1.832,1.832,3.446,27.404,12.203,11.205,44.884,31.964,-0.446,32.421,13.070,16.319,1.990,3.770
Thu Dec 05 12:45:30 2024,425,-10.051,-10.051,-1.912,1.912,3.487,27.115,12.436,11.187,45.040,32.583,-0.830,33.146,12.738,16.513,1.735,3.539
Thu Dec 05 12:45:30 2024,430,-10.024,-10.024,-2.006,2.006,3.518,26.784,12.704,11.230,45.218,33.389,-1.428,34.038,12.362,16.734,1.458,3.292
Thu Dec 05 12:45:30 2024,435,-10.107,-10.107,-2.006,2.006,3.310,26.575,12.785,12.110,45.116,33.783,-2.292,35.052,12.407,16.689,1.667,3.419
Thu Dec 05 12:45:30 2024,440,-10.216,-10.216,-1.996,1.996,3.063,26.377,12.849,13.198,45.032,34.087,-3.249,36.153,12.490,16.604,1.942,3.600
Thu Dec 05 12:45:30 2024,445,-10.605,-10.605,2.593,2.593,2.679,26.221,13.211,17.419,44.813,31.107,-4.031,36.501,13.039,15.855,2.226,3.601
Thu Dec 05 12:45:30 2024,450,-10.974,-10.974,3.167,3.167,2.343,26.114,13.545,20.995,45.474,28.359,-4.687,36.764,13.567,15.145,2.413,3.606
Thu Dec 05 12:45:30 2024,455,-11.270,-11.270,3.735,3.735,2.333,26.184,13.767,23.046,46.307,26.999,-5.040,37.154,14.145,14.588,2.612,3.518
Thu Dec 05 12:45:30 2024,460,-11.529,-11.529,4.251,4.251,2.359,26.266,13.956,24.674,47.138,25.994,-5.325,37.526,14.686,14.101,2.779,3.433
Thu Dec 05 12:45:30 2024,465,-11.735,-11.735,4.663,4.663,2.382,26.331,14.106,25.910,47.854,25.267,-5.551,37.826,15.125,13.714,2.899,3.369
Thu Dec 05 12:45:30 2024,470,-11.714,-11.714,4.622,4.622,2.629,26.794,13.987,24.913,47.589,25.985,-5.229,38.396,15.178,13.923,2.873,3.064
Thu Dec 05 12:45:30 2024,475,-11.776,-11.776,4.516,4.516,2.657,27.195,14.183,24.728,47.988,26.607,-5.181,38.879,15.600,14.144,2.905,3.053
Thu Dec 05 12:45:30 2024,480,-11.850,-11.850,4.294,4.294,2.638,27.732,14.513,24.457,48.659,27.604,-5.146,39.488,16.218,14.509,2.923,3.108
Thu Dec 05 12:45:30 2024,485,-11.931,-11.931,4.180,4.180,2.739,27.902,14.909,24.341,49.710,29.187,-5.334,39.639,16.716,14.724,2.704,3.036
Thu Dec 05 12:45:30 2024,490,-12.007,-12.007,4.123,4.123,2.881,27.903,15.290,24.292,50.855,30.944,-5.591,39.584,17.104,14.855,2.414,2.926
Thu Dec 05 12:45:30 2024,495,-12.063,-12.063,4.083,4.083,2.983,27.906,15.567,24.247,51.730,32.280,-5.776,39.546,17.387,14.950,2.203,2.852
Thu Dec 05 12:45:30 2024,500,-11.975,-11.975,3.869,3.869,3.383,27.877,16.327,24.605,53.356,35.028,-6.185,39.793,18.686,15.041,1.795,3.128
Thu Dec 05 12:45:30 2024,505,-11.982,-11.982,3.786,3.786,3.695,28.056,16.950,24.872,54.555,37.085,-6.478,40.245,19.608,15.189,1.595,3.272
Thu Dec 05 12:45:30 2024,510,-12.015,-12.015,3.738,3.738,4.046,28.366,17.648,25.206,55.750,39.197,-6.776,40.922,20.611,15.378,1.466,3.396
Thu Dec 05 12:45:30 2024,515,-11.971,-11.971,3.625,3.625,4.273,28.630,18.176,25.246,56.775,41.117,-6.989,41.575,21.662,15.490,1.447,3.592
Thu Dec 05 12:45:30 2024,520,-11.859,-11.859,3.458,3.458,4.390,28.844,18.543,25.022,57.641,42.807,-7.125,42.196,22.738,15.532,1.524,3.842
Thu Dec 05 12:45:30 2024,525,-11.800,-11.800,3.300,3.300,4.533,29.131,18.901,24.830,58.398,44.349,-7.142,42.875,23.906,15.581,1.625,4.161
Thu Dec 05 12:45:30 2024,530,-11.798,-11.798,3.157,3.157,4.700,29.483,19.234,24.683,59.007,45.710,-7.033,43.599,25.142,15.634,1.745,4.544
Thu Dec 05 12:45:30 2024,535,-11.785,-11.785,3.076,3.076,4.847,29.803,19.563,24.630,59.523,46.749,-6.952,44.315,26.225,15.688,1.821,4.866
Thu Dec 05 12:45:30 2024,540,-11.752,-11.752,3.056,3.056,5.011,30.181,19.991,24.695,60.056,47.646,-6.886,45.242,27.407,15.760,1.861,5.199
Thu Dec 05 12:45:30 2024,545,-11.726,-11.726,3.040,3.040,5.144,30.487,20.339,24.748,60.491,48.384,-6.834,46.007,28.402,15.817,1.892,5.470
Thu Dec 05 12:45:30 2024,550,-11.698,-11.698,2.951,2.951,5.428,30.936,20.678,24.840,61.296,49.671,-6.593,46.802,29.475,15.957,1.850,5.685
Thu Dec 05 12:45:30 2024,555,-11.678,-11.678,2.899,2.899,5.613,31.241,20.925,24.903,61.831,50.537,-6.448,47.386,30.274,16.047,1.829,5.851
Thu Dec 05 12:45:30 2024,560,-11.713,-11.713,2.896,2.896,5.844,31.749,21.379,24.647,62.487,51.697,-6.444,48.351,31.233,15.968,1.969,5.997
Thu Dec 05 12:45:30 2024,565,-11.726,-11.726,2.869,2.869,6.025,32.141,21.776,24.445,63.072,52.884,-6.443,49.197,32.226,15.928,2.083,6.181
Thu Dec 05 12:45:30 2024,570,-11.707,-11.707,2.783,2.783,6.145,32.446,22.259,24.163,63.709,54.731,-6.512,50.181,33.697,15.899,2.250,6.540
Thu Dec 05 12:45:30 2024,575,-11.671,-11.671,2.656,2.656,6.283,32.764,22.720,23.902,64.342,56.536,-6.500,51.076,35.080,15.869,2.386,6.804
Thu Dec 05 12:45:30 2024,580,-11.617,-11.617,2.485,2.485,6.431,33.053,23.074,23.718,64.865,57.976,-6.353,51.687,36.068,15.843,2.459,6.882
Thu Dec 05 12:45:30 2024,585,-11.565,-11.565,-2.290,2.290,6.608,33.432,23.512,23.474,65.567,59.784,-6.229,52.492,37.328,15.796,2.577,6.982
Thu Dec 05 12:45:30 2024,590,-11.589,-11.589,-2.199,2.199,6.720,33.865,23.875,23.191,66.401,61.315,-6.415,53.407,38.368,15.664,2.832,7.090
Thu Dec 05 12:45:30 2024,595,-11.606,-11.606,-2.118,2.118,6.850,34.356,24.293,22.884,67.291,62.914,-6.628,54.380,39.510,15.523,3.098,7.207
Thu Dec 05 12:45:30 2024,600,-11.514,-11.514,-2.126,2.126,7.054,34.848,24.809,22.701,67.696,63.894,-6.654,54.921,40.375,15.454,3.188,7.308
Thu Dec 05 12:45:30 2024,605,-11.430,-11.430,2.133,2.133,7.240,35.298,25.281,22.532,68.070,64.798,-6.681,55.418,41.185,15.391,3.269,7.400
Thu Dec 05 12:45:30 2024,610,-11.385,-11.385,-2.000,2.000,7.247,35.710,25.604,22.576,68.737,65.992,-6.875,56.650,42.531,15.294,3.528,7.706
Thu Dec 05 12:45:30 2024,615,-11.343,-11.343,-1.881,1.881,7.255,36.088,25.904,22.614,69.342,67.098,-7.066,57.771,43.792,15.206,3.754,7.984
Thu Dec 05 12:45:30 2024,620,-11.290,-11.290,-1.738,1.738,7.313,36.431,26.268,22.582,70.262,68.938,-7.208,58.870,45.462,15.204,3.848,8.252
Thu Dec 05 12:45:30 2024,625,-11.245,-11.245,-1.618,1.618,7.372,36.698,26.578,22.540,71.082,70.597,-7.319,59.751,46.936,15.225,3.892,8.465
Thu Dec 05 12:45:30 2024,630,-11.164,-11.164,-1.564,1.564,7.430,37.186,26.943,22.750,71.750,71.699,-7.479,60.635,48.118,15.165,4.033,8.625
Thu Dec 05 12:45:30 2024,635,-11.081,-11.081,-1.520,1.520,7.486,37.688,27.307,22.985,72.385,72.722,-7.650,61.500,49.255,15.096,4.180,8.775
Thu Dec 05 12:45:30 2024,640,-11.005,-11.005,-1.486,1.486,7.498,37.771,27.322,22.724,72.657,73.407,-7.646,61.683,49.660,15.026,4.280,8.952
Thu Dec 05 12:45:30 2024,645,-10.936,-10.936,-1.455,1.455,7.509,37.848,27.336,22.480,72.914,74.044,-7.644,61.852,50.041,14.961,4.373,9.117
Thu Dec 05 12:45:30 2024,650,-10.852,-10.852,-1.460,1.460,7.610,37.955,27.360,22.615,73.221,74.600,-7.646,62.287,50.628,14.818,4.520,9.130
Thu Dec 05 12:45:30 2024,655,-10.793,-10.793,-1.472,1.472,7.698,38.033,27.378,22.792,73.440,74.960,-7.649,62.641,51.073,14.704,4.631,9.105
Thu Dec 05 12:45:30 2024,660,-10.749,-10.749,-1.464,1.464,7.799,38.153,27.418,22.654,73.837,75.658,-7.643,63.125,51.729,14.551,4.811,9.177
Thu Dec 05 12:45:30 2024,665,-10.726,-10.726,-1.451,1.451,7.870,38.247,27.453,22.440,74.170,76.248,-7.638,63.496,52.253,14.436,4.955,9.260
Thu Dec 05 12:45:30 2024,670,-10.625,-10.625,-1.311,1.311,7.942,38.380,27.416,22.346,74.584,77.114,-7.735,64.150,53.167,14.207,5.180,9.180
Thu Dec 05 12:45:30 2024,675,-10.521,-10.521,-1.164,1.164,7.998,38.495,27.364,22.316,74.931,77.878,-7.847,64.748,54.018,13.996,5.378,9.064
Thu Dec 05 12:45:30 2024,680,-10.432,-10.432,-1.121,1.121,8.075,38.608,27.559,21.981,75.647,79.649,-7.699,65.422,55.693,13.816,5.537,8.933
Thu Dec 05 12:45:30 2024,685,-10.378,-10.378,-1.142,1.142,8.138,38.684,27.813,21.605,76.323,81.334,-7.495,65.924,57.266,13.708,5.625,8.837
Thu Dec 05 12:45:30 2024,690,-10.299,-10.299,-1.102,1.102,8.188,38.836,28.042,21.194,77.308,83.030,-7.420,66.694,59.057,13.601,5.770,8.841
Thu Dec 05 12:45:30 2024,695,-10.224,-10.224,-1.030,1.030,8.214,38.999,28.196,20.868,78.256,84.282,-7.458,67.452,60.533,13.520,5.914,8.912
Thu Dec 05 12:45:30 2024,700,-10.173,-10.173,-0.979,0.979,8.270,39.269,28.474,20.636,79.153,85.748,-7.541,68.148,62.187,13.429,6.046,8.925
Thu Dec 05 12:45:30 2024,705,-10.147,-10.147,-0.948,0.948,8.329,39.538,28.760,20.505,79.830,87.008,-7.627,68.660,63.588,13.353,6.145,8.906
Thu Dec 05 12:45:30 2024,710,-10.127,-10.127,-0.923,0.923,8.378,39.758,28.996,20.404,80.385,88.019,-7.703,69.078,64.739,13.291,6.226,8.890
Thu Dec 05 12:45:30 2024,715,-10.139,-10.139,-0.962,0.962,8.298,40.064,29.342,20.395,80.960,88.967,-7.892,69.829,65.785,13.228,6.367,9.040
Thu Dec 05 12:45:30 2024,720,-10.123,-10.123,-0.908,0.908,8.338,40.228,29.652,20.394,81.110,89.456,-7.917,69.983,66.319,13.184,6.424,9.071
Thu Dec 05 12:45:30 2024,725,-10.096,-10.096,-0.801,0.801,8.437,40.311,29.963,20.417,80.954,89.604,-7.842,69.778,66.458,13.151,6.435,9.053
Thu Dec 05 12:45:30 2024,730,-10.079,-10.079,-0.711,0.711,8.454,40.300,30.259,20.623,80.582,89.341,-7.769,69.415,66.156,13.086,6.485,9.062
Thu Dec 05 12:45:30 2024,735,-10.070,-10.070,-0.643,0.643,8.360,40.161,30.542,21.090,79.914,88.486,-7.704,68.831,65.259,12.974,6.588,9.111
Thu Dec 05 12:45:30 2024,740,-10.030,-10.030,-0.606,0.606,8.305,40.018,30.658,21.313,79.098,87.264,-7.624,68.122,63.930,12.922,6.649,9.206
Thu Dec 05 12:45:30 2024,745,-9.929,-9.929,-0.611,0.611,8.311,39.849,30.524,21.175,77.944,85.327,-7.510,67.129,61.766,12.960,6.647,9.390
Thu Dec 05 12:45:30 2024,750,-9.850,-9.850,-0.618,0.618,8.314,39.716,30.418,21.077,77.038,83.782,-7.435,66.349,60.085,12.990,6.645,9.537
Thu Dec 05 12:45:30 2024,755,-9.748,-9.748,-0.438,0.438,8.115,39.370,30.048,20.526,75.698,81.439,-7.226,64.695,57.277,12.941,6.736,9.541
Thu Dec 05 12:45:30 2024,760,-9.700,-9.700,-0.385,0.385,8.046,39.120,29.840,20.293,74.448,79.431,-7.000,63.317,55.016,12.923,6.761,9.505
Thu Dec 05 12:45:30 2024,765,-9.711,-9.711,-0.428,0.428,8.083,38.898,29.737,20.307,72.968,77.265,-6.646,61.815,52.743,12.922,6.728,9.377
Thu Dec 05 12:45:30 2024,770,-9.733,-9.733,-0.484,0.484,8.110,38.651,29.545,20.143,70.897,74.349,-6.103,59.710,49.860,12.936,6.684,9.282
Thu Dec 05 12:45:30 2024,775,-9.769,-9.769,-0.534,0.534,8.099,38.505,29.277,19.674,68.806,71.665,-5.461,57.590,47.406,12.977,6.644,9.323
Thu Dec 05 12:45:30 2024,780,-9.810,-9.810,-0.591,0.591,8.085,38.336,28.973,19.166,66.403,68.599,-4.778,55.164,44.792,13.025,6.598,9.370
Thu Dec 05 12:45:30 2024,785,-9.647,-9.647,-0.643,0.643,8.155,38.070,28.178,19.336,62.614,61.934,-3.922,52.929,40.945,12.962,6.710,9.827
Thu Dec 05 12:45:30 2024,790,-9.523,-9.523,-0.738,0.738,8.146,37.772,27.545,19.686,59.784,57.223,-3.300,50.963,38.276,12.830,6.845,10.068
Thu Dec 05 12:45:30 2024,795,-9.368,-9.368,-0.965,0.965,7.875,37.125,26.819,21.067,57.715,53.219,-2.861,48.793,35.813,12.303,7.228,9.845
Thu Dec 05 12:45:30 2024,800,-9.192,-9.192,1.266,1.266,7.542,36.335,25.947,22.641,55.520,48.827,-2.383,46.191,33.184,11.657,7.651,9.581
Thu Dec 05 12:45:30 2024,805,-8.911,-8.911,-0.998,0.998,7.466,36.358,25.595,20.051,55.540,48.714,-1.837,45.263,31.457,11.775,7.678,9.252
Thu Dec 05 12:45:30 2024,810,-8.703,-8.703,-0.850,0.850,7.371,36.335,25.340,17.957,55.379,48.077,1.561,44.325,29.959,11.801,7.741,8.963
Thu Dec 05 12:45:30 2024,815,-8.789,8.789,-0.845,0.845,7.297,36.514,25.834,16.303,54.578,47.303,1.644,43.876,29.332,11.762,7.844,8.798
Thu Dec 05 12:45:30 2024,820,-8.906,8.906,-0.886,0.886,7.236,36.680,26.336,14.551,53.585,46.162,2.027,43.254,28.617,11.698,7.960,8.654
Thu Dec 05 12:45:30 2024,825,-8.947,8.947,-1.056,1.056,7.364,36.476,26.101,14.015,51.656,43.758,2.323,41.855,27.999,11.476,8.085,8.877
Thu Dec 05 12:45:30 2024,830,-8.996,8.996,-1.260,1.260,7.511,36.240,25.826,13.420,49.484,41.150,2.745,40.237,27.303,11.215,8.215,9.143
Thu Dec 05 12:45:30 2024,835,-8.743,8.743,-1.410,1.410,7.821,36.183,24.319,13.022,47.341,37.901,3.143,38.008,25.966,11.174,8.303,9.391
Thu Dec 05 12:45:30 2024,840,-8.476,8.476,-1.537,1.537,8.121,36.163,22.808,12.714,45.482,35.096,3.527,35.962,24.687,11.165,8.375,9.623
Thu Dec 05 12:45:30 2024,845,-8.510,8.510,-1.828,1.828,8.203,36.012,20.762,12.308,43.778,31.467,3.838,34.704,22.498,11.138,8.487,9.358
Thu Dec 05 12:45:30 2024,850,-8.589,8.589,-2.146,2.146,8.258,35.849,18.706,11.907,42.166,27.968,4.130,33.582,20.288,11.112,8.592,9.042
Thu Dec 05 12:45:30 2024,855,-8.780,8.780,-2.381,2.381,8.205,35.736,17.206,11.288,40.476,24.848,4.306,32.953,18.636,10.866,8.852,8.458
Thu Dec 05 12:45:30 2024,860,-8.970,8.970,-2.578,2.578,8.138,35.648,16.029,10.714,39.019,22.266,4.433,32.512,17.332,10.610,9.109,7.899
Thu Dec 05 12:45:30 2024,865,-9.112,9.112,-2.665,2.665,7.991,35.408,15.268,10.254,37.730,20.400,4.727,32.257,16.393,10.491,9.228,7.461
Thu Dec 05 12:45:30 2024,870,-9.227,9.227,-2.696,2.696,7.816,35.114,14.735,9.868,36.595,18.962,5.075,32.111,15.670,10.441,9.279,7.100
Thu Dec 05 12:45:30 2024,875,-9.285,9.285,-2.718,2.718,7.531,34.672,14.268,9.460,35.640,18.003,5.313,31.672,14.827,10.383,9.389,6.911
Thu Dec 05 12:45:30 2024,880,-9.318,9.318,-2.738,2.738,7.192,34.157,13.825,9.039,34.755,17.241,5.503,31.112,13.936,10.320,9.520,6.802
Thu Dec 05 12:45:30 2024,885,-9.517,9.517,-2.738,2.738,6.832,33.812,13.649,8.577,33.755,16.724,5.540,30.567,13.419,10.245,9.639,6.733
Thu Dec 05 12:45:30 2024,890,-9.762,9.762,-2.730,2.730,6.480,33.539,13.563,8.119,32.760,16.298,5.527,30.052,13.041,10.170,9.747,6.680
Thu Dec 05 12:45:30 2024,895,-10.031,10.031,-2.750,2.750,6.154,33.221,13.431,7.653,31.806,15.912,5.489,29.624,12.758,10.164,9.781,6.695
Thu Dec 05 12:45:30 2024,900,-10.418,10.418,-2.833,2.833,5.806,32.717,13.165,7.066,30.715,15.537,5.389,29.271,12.613,10.316,9.659,6.864
Thu Dec 05 12:45:30 2024,905,-10.672,10.672,2.923,2.923,5.611,32.397,12.990,6.585,29.785,15.130,5.367,29.120,12.498,10.335,9.654,6.905
Thu Dec 05 12:45:30 2024,910,-10.877,10.877,3.020,3.020,5.482,32.141,12.842,6.141,28.925,14.717,5.373,29.065,12.412,10.313,9.682,6.906
Thu Dec 05 12:45:30 2024,915,-11.039,11.039,3.042,3.042,5.357,31.958,12.681,5.741,28.171,14.371,5.379,29.093,12.387,10.324,9.675,6.922
Thu Dec 05 12:45:30 2024,920,-11.174,11.174,2.991,2.991,5.225,31.835,12.490,5.349,27.453,14.057,5.389,29.208,12.420,10.368,9.632,6.955
Thu Dec 05 12:45:30 2024,925,-11.306,11.306,2.941,2.941,5.097,31.718,12.309,4.968,26.765,13.756,5.398,29.320,12.452,10.411,9.586,6.987
Thu Dec 05 12:45:30 2024,930,-11.464,11.464,3.249,3.249,5.030,31.586,12.185,4.762,26.331,13.493,5.424,29.530,12.500,10.484,9.506,7.100
Thu Dec 05 12:45:30 2024,935,-11.518,11.518,3.335,3.335,4.907,31.502,12.098,4.568,25.959,13.302,5.454,29.698,12.571,10.546,9.435,7.167
Thu Dec 05 12:45:30 2024,940,-11.502,11.502,3.337,3.337,4.718,31.437,12.034,4.379,25.607,13.132,5.498,29.897,12.686,10.622,9.349,7.232
Thu Dec 05 12:45:30 2024,945,-11.490,11.490,3.339,3.339,4.572,31.388,11.984,4.232,25.334,12.999,5.533,30.052,12.775,10.681,9.281,7.284
Thu Dec 05 12:45:30 2024,950,-11.622,11.622,3.444,3.444,4.523,31.105,11.929,4.027,24.769,12.747,5.531,29.894,12.792,10.688,9.281,7.317
Thu Dec 05 12:45:30 2024,955,-11.682,11.682,3.443,3.443,4.478,30.932,11.876,3.856,24.368,12.543,5.526,29.749,12.749,10.694,9.278,7.306
Thu Dec 05 12:45:30 2024,960,-11.706,11.706,3.319,3.319,4.456,30.779,11.803,3.655,23.948,12.293,5.503,29.462,12.576,10.683,9.294,7.220
Thu Dec 05 12:45:30 2024,965,-11.732,11.732,3.232,3.232,4.385,30.615,11.738,3.374,20.059,11.984,5.471,29.200,12.422,10.674,9.308,7.158
Thu Dec 05 12:45:30 2024,970,-11.752,11.752,3.276,3.276,4.226,30.493,11.723,3.018,16.964,11.667,5.430,29.100,12.378,10.671,9.314,7.178
Thu Dec 05 12:45:30 2024,975,-11.770,11.770,3.317,3.317,4.078,30.382,11.709,2.692,17.303,11.376,5.392,29.009,12.336,10.670,9.318,7.199
Thu Dec 05 12:45:30 2024,980,-11.816,11.816,3.330,3.330,3.867,30.172,11.722,2.310,17.576,11.247,5.321,28.794,12.340,10.833,9.163,7.244
Thu Dec 05 12:45:30 2024,985,-11.839,11.839,3.334,3.334,3.695,29.999,11.734,2.006,17.668,11.111,5.248,28.635,12.329,10.930,9.069,7.268
Thu Dec 05 12:45:30 2024,990,-11.800,11.800,3.268,3.268,3.471,29.732,11.781,1.684,17.675,10.914,5.056,28.464,12.273,10.946,9.052,7.247
Thu Dec 05 12:45:30 2024,995,-11.777,11.777,3.238,3.238,3.282,29.498,11.808,1.430,17.604,10.772,4.902,28.343,12.253,10.974,9.022,7.224
Thu Dec 05 12:45:31 2024,0,-11.805,11.805,3.326,3.326,3.096,29.218,11.778,1.264,17.551,10.753,4.790,28.332,12.367,11.061,8.927,7.178
Thu Dec 05 12:45:31 2024,5,-11.834,11.834,3.415,3.415,2.918,28.947,11.747,1.109,17.486,10.740,4.684,28.328,12.483,11.148,8.830,7.132
Thu Dec 05 12:45:31 2024,10,-11.858,11.858,3.488,3.488,2.774,28.730,11.722,0.984,17.420,10.730,4.598,28.326,12.576,11.217,8.749,7.094
Thu Dec 05 12:45:31 2024,15,-11.865,11.865,3.511,3.511,2.729,28.662,11.714,0.945,17.398,10.727,4.571,28.325,12.605,11.239,8.724,7.082
Thu Dec 05 12:45:31 2024,20,-11.971,11.971,3.261,3.261,2.752,28.763,11.943,0.808,17.159,10.811,4.559,28.547,12.809,11.329,8.635,7.259
Thu Dec 05 12:45:31 2024,25,-11.836,11.836,3.386,3.386,2.540,28.432,11.841,0.768,17.175,10.830,4.525,28.927,13.063,11.334,8.641,7.337
Thu Dec 05 12:45:31 2024,30,-11.834,11.834,3.465,3.465,2.537,28.371,11.862,0.722,17.092,10.804,4.570,29.316,13.308,11.374,8.595,7.321
Thu Dec 05 12:45:31 2024,35,-11.904,11.904,3.574,3.574,2.673,28.454,11.956,0.670,16.932,10.729,4.698,29.907,13.664,11.445,8.503,7.232
Thu Dec 05 12:45:31 2024,40,-11.856,11.856,3.582,3.582,2.540,28.384,11.962,0.750,16.940,10.901,4.778,30.729,14.306,11.542,8.415,7.393
Thu Dec 05 12:45:31 2024,45,-11.804,11.804,3.578,3.578,2.402,28.311,11.956,0.828,16.965,11.069,4.834,31.436,14.864,11.625,8.342,7.552
Thu Dec 05 12:45:31 2024,50,-11.813,11.813,3.629,3.629,2.396,28.434,12.048,1.034,17.041,11.210,4.923,32.290,15.481,11.866,8.114,7.767
Thu Dec 05 12:45:31 2024,55,-11.835,11.835,3.691,3.691,2.417,28.597,12.160,1.267,17.106,11.346,5.019,33.186,16.119,12.139,7.851,7.995
Thu Dec 05 12:45:31 2024,60,-11.795,11.795,3.646,3.646,2.355,28.609,12.099,1.468,17.162,11.480,5.036,33.854,16.716,12.221,7.771,8.108
Thu Dec 05 12:45:31 2024,65,-11.753,11.753,3.590,3.590,2.289,28.597,12.020,1.642,17.194,11.598,5.037,34.417,17.242,12.266,7.727,8.190
Thu Dec 05 12:45:31 2024,70,-11.650,11.650,3.570,3.570,2.222,28.685,11.992,1.911,17.265,11.794,5.071,35.000,17.894,12.303,7.694,8.436
Thu Dec 05 12:45:31 2024,75,-11.477,11.477,3.568,3.568,2.137,28.862,11.991,2.315,17.295,12.095,5.135,35.756,18.813,12.342,7.658,8.859
Thu Dec 05 12:45:31 2024,80,-11.467,11.467,3.559,3.559,2.092,28.964,11.903,2.533,17.274,12.222,5.206,36.226,19.410,12.322,7.678,9.014
Thu Dec 05 12:45:31 2024,85,-11.553,11.553,3.543,3.543,2.055,29.067,11.728,2.732,17.224,12.292,5.317,36.708,20.057,12.254,7.741,9.073
Thu Dec 05 12:45:31 2024,90,-11.616,11.616,3.491,3.491,2.014,29.238,11.682,2.956,17.042,12.356,5.433,37.395,20.910,12.142,7.848,9.267
Thu Dec 05 12:45:31 2024,95,-11.668,11.668,3.427,3.427,1.975,29.424,11.698,3.168,16.801,12.405,5.543,38.119,21.792,12.017,7.966,9.501
Thu Dec 05 12:45:31 2024,100,-11.698,11.698,3.336,3.336,1.872,29.612,11.641,3.324,16.604,12.252,5.723,38.994,22.944,11.856,8.120,9.794
Thu Dec 05 12:45:31 2024,105,-11.663,11.663,3.185,3.185,1.601,29.788,11.378,3.310,16.676,11.556,6.081,40.190,24.734,11.608,8.359,10.222
Thu Dec 05 12:45:31 2024,110,-11.733,11.733,3.107,3.107,1.353,29.961,11.306,3.502,16.483,11.073,7.016,41.779,26.835,11.536,8.420,10.819
Thu Dec 05 12:45:31 2024,115,-11.867,11.867,3.100,3.100,1.144,30.086,11.373,3.796,16.164,10.761,8.342,43.477,28.937,11.621,8.327,11.465
Thu Dec 05 12:45:31 2024,120,-12.001,12.001,3.077,3.077,0.891,30.136,11.326,3.984,15.941,10.389,9.586,45.069,30.914,11.610,8.327,11.995
Thu Dec 05 12:45:31 2024,125,-12.173,12.173,2.998,2.998,0.454,29.980,10.938,3.928,20.012,9.731,10.862,46.683,32.892,11.328,8.593,12.346
Thu Dec 05 12:45:31 2024,130,-12.199,12.199,3.006,3.006,-0.366,29.889,10.673,3.814,24.248,9.564,12.096,47.014,34.318,10.603,9.256,12.834
Thu Dec 05 12:45:31 2024,135,-12.084,12.084,3.081,3.081,-0.839,29.857,10.552,3.626,24.700,9.873,12.822,45.881,34.137,9.643,10.104,13.249
Thu Dec 05 12:45:31 2024,140,-11.980,11.980,3.152,3.152,-1.341,29.851,10.436,3.435,25.311,10.173,13.565,44.845,33.689,8.735,29.139,13.639
Thu Dec 05 12:45:31 2024,145,-12.247,12.247,3.490,3.490,-1.402,29.635,11.249,4.065,27.465,11.506,13.760,37.026,22.590,7.414,29.104,14.509
Thu Dec 05 12:45:31 2024,150,-12.319,12.319,3.687,3.687,-1.502,29.562,11.653,4.516,29.092,12.226,13.768,19.910,16.882,6.437,29.445,15.079
Thu Dec 05 12:45:31 2024,155,-12.158,12.158,3.772,3.772,-1.513,29.668,11.747,5.133,30.754,12.384,13.343,6.188,15.656,5.643,29.873,15.471
Thu Dec 05 12:45:31 2024,160,-12.040,12.040,3.854,3.854,-1.528,29.746,11.845,5.633,32.131,12.536,13.015,6.725,14.456,4.974,30.346,15.802
Thu Dec 05 12:45:31 2024,165,-11.730,11.730,4.009,4.009,-1.124,29.310,11.896,6.083,32.487,12.545,9.812,30.460,14.639,4.614,29.938,15.793
Thu Dec 05 12:45:31 2024,170,-11.474,11.474,4.146,4.146,-0.817,28.996,11.956,6.522,33.011,12.586,7.235,28.417,14.531,4.221,29.729,15.847
Thu Dec 05 12:45:31 2024,175,-11.083,11.083,4.407,4.407,-0.578,28.676,12.093,6.617,33.709,13.001,5.174,27.619,15.364,4.134,29.848,16.331
Thu Dec 05 12:45:31 2024,180,-10.758,10.758,4.622,4.622,-0.372,28.404,12.206,6.738,34.316,13.327,3.279,27.488,15.889,4.019,29.924,16.725
Thu Dec 05 12:45:31 2024,185,-10.577,10.577,4.982,4.982,-0.206,28.442,12.417,6.969,34.885,13.674,2.684,27.815,16.386,4.040,29.856,16.884
Thu Dec 05 12:45:31 2024,190,-10.397,10.397,5.294,5.294,0.266,28.452,12.602,7.167,35.418,13.994,1.982,28.248,16.812,4.043,29.813,17.062
Thu Dec 05 12:45:31 2024,195,-10.320,10.320,5.554,5.554,0.416,28.894,12.990,7.416,35.986,14.321,2.101,29.055,17.342,3.985,29.860,17.075
Thu Dec 05 12:45:31 2024,200,-10.250,10.250,5.768,5.768,0.554,29.218,13.289,7.613,36.445,14.586,2.128,29.679,17.748,3.943,29.891,17.101
Thu Dec 05 12:45:31 2024,205,-10.141,10.141,5.958,5.958,0.703,29.450,13.554,7.784,36.576,14.892,1.408,30.386,18.336,3.699,29.878,17.210
Thu Dec 05 12:45:31 2024,210,-10.087,10.087,6.179,6.179,0.880,29.680,13.797,8.001,36.602,15.176,0.559,31.189,18.955,3.420,29.889,17.351
Thu Dec 05 12:45:31 2024,215,-10.146,10.146,6.425,6.425,1.066,29.899,13.973,8.267,36.584,15.354,-0.075,31.908,19.468,3.218,29.952,17.489
Thu Dec 05 12:45:31 2024,220,-10.204,10.204,6.638,6.638,1.226,30.087,14.119,8.500,36.567,15.499,-0.522,32.520,19.898,3.049,30.011,17.607
Thu Dec 05 12:45:31 2024,225,-10.356,10.356,6.772,6.772,1.518,30.199,14.296,8.870,36.945,15.807,-1.261,32.904,19.928,2.754,30.500,18.102
Thu Dec 05 12:45:31 2024,230,-10.489,10.489,6.873,6.873,1.775,30.288,14.447,9.191,37.303,16.083,-1.993,33.235,19.905,2.497,30.966,18.561
Thu Dec 05 12:45:31 2024,235,-10.525,10.525,6.954,6.954,1.912,30.424,14.573,9.371,37.697,16.310,-2.880,33.930,19.924,2.286,31.646,19.046
Thu Dec 05 12:45:31 2024,240,-10.559,10.559,7.035,7.035,2.048,30.566,14.702,9.550,38.102,16.541,-3.785,34.680,19.924,2.070,32.360,19.546
Thu Dec 05 12:45:31 2024,245,-10.762,10.762,7.136,7.136,2.299,30.691,14.836,9.894,38.769,16.868,-4.650,35.575,20.044,2.074,33.556,20.516
Thu Dec 05 12:45:31 2024,250,-10.994,10.994,7.239,7.239,2.567,30.818,14.969,10.263,39.476,17.208,-5.492,36.492,20.158,2.115,34.831,21.577
Thu Dec 05 12:45:31 2024,255,-10.942,10.942,7.189,7.189,2.572,30.966,15.225,10.578,40.332,17.425,-6.130,37.610,20.631,2.002,36.703,23.477
Thu Dec 05 12:45:31 2024,260,-10.885,10.885,7.140,7.140,2.558,31.079,15.425,10.809,40.985,17.576,-6.601,38.461,21.005,1.911,38.168,25.027
Thu Dec 05 12:45:31 2024,265,-10.798,10.798,7.075,7.075,2.512,31.174,15.693,10.997,41.732,17.823,-7.090,39.739,22.041,1.947,40.468,27.686
Thu Dec 05 12:45:31 2024,270,-10.720,10.720,7.019,7.019,2.463,31.236,15.926,11.117,42.339,18.055,-7.482,40.908,23.162,2.044,42.611,30.357
Thu Dec 05 12:45:31 2024,275,-10.678,10.678,6.918,6.918,2.197,31.498,16.128,11.128,43.182,18.006,-7.636,43.274,24.965,2.478,45.546,33.453
Thu Dec 05 12:45:31 2024,280,-10.659,10.659,6.811,6.811,1.873,31.820,16.285,11.089,44.015,17.842,-7.699,45.902,26.968,3.018,48.429,36.440
Thu Dec 05 12:45:31 2024,285,-10.612,10.612,6.710,6.710,1.655,32.216,16.672,10.879,44.768,18.243,-7.628,48.848,30.277,3.280,51.096,40.346
Thu Dec 05 12:45:31 2024,290,-10.563,10.563,6.622,6.622,1.486,32.587,17.072,10.648,45.430,18.737,-7.583,51.615,33.732,3.500,53.439,44.320
Thu Dec 05 12:45:31 2024,295,-10.422,10.422,6.574,6.574,1.329,32.903,17.574,10.255,45.755,19.461,-7.708,53.570,36.682,3.577,54.927,47.707
Thu Dec 05 12:45:31 2024,300,-10.288,10.288,6.570,6.570,1.246,33.052,17.927,9.933,45.744,20.014,-7.853,54.186,38.005,3.529,55.272,49.237
Thu Dec 05 12:45:31 2024,305,-10.063,10.063,6.559,6.559,1.185,33.142,18.242,9.562,45.590,20.557,-7.707,54.185,38.796,3.348,55.139,49.995
Thu Dec 05 12:45:31 2024,310,-9.878,9.878,6.549,6.549,1.168,33.152,18.390,9.326,45.411,20.850,-7.436,53.779,38.881,3.207,54.753,49.874
Thu Dec 05 12:45:31 2024,315,-9.672,9.672,6.508,6.508,1.176,33.084,18.493,9.107,45.089,21.122,-6.998,52.982,38.808,-3.066,53.949,49.421
Thu Dec 05 12:45:31 2024,320,-9.504,9.504,6.450,6.450,1.208,32.962,18.526,8.965,44.719,21.300,-6.530,52.035,38.602,-2.994,52.974,48.774
Thu Dec 05 12:45:31 2024,325,-9.402,9.254,6.445,6.445,1.285,32.903,18.547,8.884,44.439,21.428,-6.190,51.333,38.359,-2.924,52.210,48.153
Thu Dec 05 12:45:31 2024,330,-9.381,8.864,6.511,6.511,1.432,32.932,18.555,8.884,44.262,21.492,-5.992,50.918,38.049,-2.735,51.667,47.527
