Timestamp,Millis,thumb_tm_aa,thumb_tm_flex,thumb_mcp_aa,thumb_mcp_flex,index_mcp_aa,index_mcp_flex,index_pip,middle_mcp_aa,middle_mcp_flex,middle_pip,ring_mcp_aa,ring_mcp_flex,ring_pip,little_mcp_aa,little_mcp_flex,little_pip
Thu Dec 05 12:48:46 2024,80,-16.420,-16.420,14.693,14.693,7.864,36.113,12.137,7.826,31.684,12.477,-0.592,28.086,9.830,7.410,31.156,9.196
Thu Dec 05 12:48:46 2024,85,-16.448,-16.448,14.715,14.715,7.867,36.135,12.108,7.839,31.789,12.482,-0.589,28.077,9.757,7.421,31.211,9.218
Thu Dec 05 12:48:46 2024,90,-16.471,-16.471,14.720,14.720,7.846,36.172,12.137,7.843,31.861,12.530,-0.583,28.121,9.783,7.415,31.271,9.260
Thu Dec 05 12:48:46 2024,95,-16.490,-16.490,14.711,14.711,7.803,36.227,12.220,7.840,31.909,12.618,-0.573,28.216,9.902,7.394,31.342,9.325
Thu Dec 05 12:48:46 2024,100,-16.495,-16.495,14.692,14.692,7.775,36.234,12.270,7.835,31.906,12.645,-0.577,28.261,9.952,7.386,31.372,9.368
Thu Dec 05 12:48:46 2024,105,-16.479,-16.479,14.656,14.656,7.768,36.170,12.272,7.830,31.828,12.578,-0.606,28.233,9.901,7.395,31.341,9.378
Thu Dec 05 12:48:46 2024,110,-16.474,-16.474,14.635,14.635,7.760,36.134,12.269,7.831,31.792,12.539,-0.620,28.232,9.873,7.398,31.319,9.380
Thu Dec 05 12:48:46 2024,115,-16.514,-16.514,14.657,14.657,7.742,36.183,12.241,7.866,31.895,12.576,-0.594,28.352,9.911,7.377,31.312,9.349
Thu Dec 05 12:48:46 2024,120,-16.552,-16.552,14.678,14.678,7.728,36.226,12.227,7.892,31.971,12.599,-0.576,28.453,9.941,7.361,31.312,9.327
Thu Dec 05 12:48:46 2024,125,-16.633,-16.633,14.721,14.721,7.719,36.289,12.280,7.900,31.960,12.567,-0.597,28.539,9.950,7.351,31.362,9.343
Thu Dec 05 12:48:46 2024,130,-16.723,-16.723,14.769,14.769,7.713,36.354,12.354,7.900,31.922,12.520,-0.629,28.615,9.951,7.343,31.424,9.370
Thu Dec 05 12:48:46 2024,135,-16.722,-16.722,14.800,14.800,7.696,36.348,12.389,7.909,31.948,12.561,-0.633,28.574,9.951,7.324,31.396,9.392
Thu Dec 05 12:48:46 2024,140,-16.687,-16.687,14.824,14.824,7.676,36.315,12.409,7.919,31.997,12.631,-0.625,28.494,9.950,7.300,31.337,9.411
Thu Dec 05 12:48:46 2024,145,-16.704,-16.704,14.834,14.834,7.672,36.328,12.442,7.935,32.014,12.628,-0.628,28.438,9.909,7.269,31.271,9.356
Thu Dec 05 12:48:46 2024,150,-16.772,-16.772,14.828,14.828,7.688,36.388,12.477,7.952,31.989,12.548,-0.642,28.428,9.840,7.240,31.222,9.242
Thu Dec 05 12:48:46 2024,155,-16.825,-16.825,14.821,14.821,7.701,36.430,12.505,7.962,31.976,12.488,-0.652,28.435,9.787,7.214,31.180,9.149
Thu Dec 05 12:48:46 2024,160,-16.796,-16.796,14.808,14.808,7.687,36.387,12.491,7.935,32.020,12.534,-0.648,28.534,9.828,7.194,31.176,9.153
Thu Dec 05 12:48:46 2024,165,-16.777,-16.777,14.805,14.805,7.676,36.354,12.476,7.917,32.056,12.568,-0.648,28.590,9.852,7.181,31.167,9.152
Thu Dec 05 12:48:46 2024,170,-16.784,-16.784,14.844,14.844,7.666,36.333,12.426,7.920,32.088,12.580,-0.661,28.498,9.812,7.179,31.128,9.120
Thu Dec 05 12:48:46 2024,175,-16.796,-16.796,14.886,14.886,7.661,36.332,12.394,7.936,32.122,12.594,-0.669,28.407,9.778,7.186,31.099,9.096
Thu Dec 05 12:48:46 2024,180,-16.801,-16.801,14.897,14.897,7.675,36.385,12.447,7.973,32.174,12.640,-0.642,28.442,9.818,7.208,31.118,9.125
Thu Dec 05 12:48:46 2024,185,-16.802,-16.802,14.889,14.889,7.699,36.470,12.550,8.022,32.233,12.703,-0.597,28.555,9.903,7.241,31.169,9.187
Thu Dec 05 12:48:46 2024,190,-16.778,-16.778,14.854,14.854,7.680,36.494,12.581,7.986,32.216,12.710,-0.600,28.621,9.944,7.272,31.245,9.225
Thu Dec 05 12:48:46 2024,195,-16.737,-16.737,14.805,14.805,7.625,36.449,12.531,7.882,32.132,12.660,-0.650,28.620,9.928,7.292,31.319,9.228
Thu Dec 05 12:48:46 2024,200,-16.700,-16.700,14.763,14.763,7.588,36.421,12.493,7.816,32.083,12.647,-0.688,28.621,9.928,7.302,31.363,9.232
Thu Dec 05 12:48:46 2024,205,-16.665,-16.665,14.730,14.730,7.586,36.429,12.481,7.827,32.105,12.716,-0.706,28.624,9.965,7.291,31.348,9.239
Thu Dec 05 12:48:46 2024,210,-16.635,-16.635,14.703,14.703,7.579,36.422,12.468,7.835,32.130,12.778,-0.722,28.625,9.996,7.279,31.334,9.250
Thu Dec 05 12:48:46 2024,215,-16.606,-16.606,14.691,14.691,7.511,36.297,12.427,7.798,32.169,12.824,-0.752,28.613,10.016,7.247,31.338,9.296
Thu Dec 05 12:48:46 2024,220,-16.575,-16.575,14.676,14.676,7.438,36.161,12.383,7.760,32.218,12.877,-0.784,28.594,10.037,7.216,31.349,9.352
Thu Dec 05 12:48:46 2024,225,-16.596,-16.596,14.662,14.662,7.470,36.236,12.411,7.820,32.279,12.904,-0.758,28.527,10.023,7.260,31.431,9.387
Thu Dec 05 12:48:46 2024,230,-16.633,-16.633,14.648,14.648,7.538,36.380,12.462,7.910,32.342,12.922,-0.714,28.446,9.997,7.329,31.534,9.413
Thu Dec 05 12:48:46 2024,235,-16.663,-16.663,14.643,14.643,7.577,36.485,12.510,7.962,32.417,12.971,-0.688,28.463,10.011,7.355,31.605,9.442
Thu Dec 05 12:48:46 2024,240,-16.683,-16.683,14.645,14.645,7.591,36.550,12.552,7.981,32.492,13.038,-0.675,28.548,10.051,7.347,31.644,9.470
Thu Dec 05 12:48:46 2024,245,-16.680,-16.680,14.655,14.655,7.601,36.581,12.514,7.980,32.519,13.006,-0.677,28.611,10.035,7.336,31.658,9.456
Thu Dec 05 12:48:46 2024,250,-16.639,-16.639,14.675,14.675,7.599,36.549,12.362,7.950,32.464,12.829,-0.699,28.626,9.937,7.321,31.630,9.378
Thu Dec 05 12:48:46 2024,255,-16.610,-16.610,14.702,14.702,7.597,36.520,12.239,7.916,32.402,12.672,-0.723,28.636,9.848,7.303,31.597,9.302
Thu Dec 05 12:48:46 2024,260,-16.683,-16.683,14.760,14.760,7.590,36.533,12.399,7.881,32.333,12.753,-0.743,28.612,9.887,7.277,31.551,9.284
Thu Dec 05 12:48:46 2024,265,-16.737,-16.737,14.804,14.804,7.588,36.546,12.532,7.853,32.273,12.816,-0.760,28.601,9.923,7.256,31.510,9.270
Thu Dec 05 12:48:46 2024,270,-16.688,-16.688,14.779,14.779,7.613,36.556,12.554,7.858,32.240,12.785,-0.751,28.668,9.956,7.250,31.482,9.266
Thu Dec 05 12:48:46 2024,275,-16.613,-16.613,14.736,14.736,7.644,36.567,12.546,7.873,32.214,12.731,-0.736,28.755,9.988,7.249,31.457,9.264
Thu Dec 05 12:48:46 2024,280,-16.613,-16.613,14.697,14.697,7.668,36.593,12.589,7.889,32.183,12.726,-0.747,28.760,9.984,7.243,31.435,9.234
Thu Dec 05 12:48:46 2024,285,-16.659,-16.659,14.665,14.665,7.686,36.626,12.654,7.904,32.153,12.751,-0.772,28.715,9.958,7.236,31.418,9.191
Thu Dec 05 12:48:46 2024,290,-16.697,-16.697,14.687,14.687,7.672,36.620,12.706,7.892,32.131,12.783,-0.784,28.704,9.966,7.235,31.397,9.200
Thu Dec 05 12:48:46 2024,295,-16.733,-16.733,14.780,14.780,7.616,36.563,12.750,7.846,32.113,12.831,-0.783,28.733,10.018,7.241,31.366,9.276
Thu Dec 05 12:48:46 2024,300,-16.760,-16.760,14.845,14.845,7.566,36.508,12.765,7.811,32.112,12.870,-0.784,28.746,10.056,7.239,31.340,9.333
Thu Dec 05 12:48:46 2024,305,-16.742,-16.742,14.798,14.798,7.558,36.482,12.689,7.826,32.160,12.864,-0.794,28.708,10.033,7.212,31.334,9.308
Thu Dec 05 12:48:46 2024,310,-16.721,-16.721,14.744,14.744,7.548,36.454,12.602,7.843,32.214,12.856,-0.807,28.664,10.007,7.180,31.326,9.279
Thu Dec 05 12:48:46 2024,315,-16.728,-16.728,14.718,14.718,7.567,36.431,12.572,7.869,32.215,12.811,-0.803,28.603,9.935,7.174,31.261,9.202
Thu Dec 05 12:48:46 2024,320,-16.737,-16.737,14.703,14.703,7.586,36.414,12.556,7.889,32.209,12.772,-0.798,28.553,9.874,7.172,31.204,9.138
Thu Dec 05 12:48:46 2024,325,-16.740,-16.740,14.728,14.728,7.591,36.419,12.569,7.890,32.166,12.734,-0.783,28.569,9.896,7.174,31.167,9.135
Thu Dec 05 12:48:46 2024,330,-16.738,-16.738,14.782,14.782,7.586,36.439,12.603,7.879,32.095,12.693,-0.760,28.629,9.974,7.181,31.138,9.174
Thu Dec 05 12:48:46 2024,335,-16.743,-16.743,14.799,14.799,7.602,36.465,12.637,7.894,32.107,12.706,-0.742,28.626,9.986,7.205,31.151,9.193
Thu Dec 05 12:48:46 2024,340,-16.756,-16.756,14.790,14.790,7.636,36.500,12.677,7.930,32.183,12.762,-0.727,28.574,9.952,7.247,31.196,9.199
Thu Dec 05 12:48:46 2024,345,-16.765,-16.765,14.790,14.790,7.665,36.528,12.704,7.958,32.248,12.816,-0.714,28.531,9.925,7.278,31.241,9.207
Thu Dec 05 12:48:46 2024,350,-16.754,-16.754,14.844,14.844,7.659,36.502,12.647,7.924,32.231,12.844,-0.714,28.554,9.948,7.239,31.270,9.229
Thu Dec 05 12:48:46 2024,355,-16.752,-16.752,14.891,14.891,7.658,36.498,12.624,7.902,32.223,12.861,-0.711,28.584,9.968,7.214,31.296,9.241
Thu Dec 05 12:48:46 2024,360,-16.790,-16.790,14.936,14.936,7.676,36.589,12.728,7.908,32.242,12.845,-0.691,28.675,9.983,7.242,31.323,9.225
Thu Dec 05 12:48:46 2024,365,-16.841,-16.841,14.986,14.986,7.698,36.711,12.870,7.921,32.270,12.820,-0.665,28.788,9.999,7.283,31.352,9.200
Thu Dec 05 12:48:46 2024,370,-16.817,-16.817,14.921,14.921,7.686,36.674,12.847,7.886,32.204,12.817,-0.687,28.709,9.976,7.262,31.309,9.167
Thu Dec 05 12:48:46 2024,375,-16.777,-16.777,14.832,14.832,7.667,36.607,12.792,7.841,32.119,12.818,-0.718,28.593,9.943,7.229,31.251,9.131
Thu Dec 05 12:48:46 2024,380,-16.744,-16.744,14.787,14.787,7.689,36.577,12.773,7.830,32.067,12.817,-0.729,28.569,9.954,7.198,31.210,9.139
Thu Dec 05 12:48:46 2024,385,-16.729,-16.729,14.804,14.804,7.747,36.597,12.799,7.858,32.067,12.814,-0.716,28.650,10.003,7.182,31.202,9.190
Thu Dec 05 12:48:46 2024,390,-16.745,-16.745,14.838,14.838,7.779,36.614,12.804,7.879,32.076,12.797,-0.698,28.706,10.015,7.191,31.200,9.210
Thu Dec 05 12:48:46 2024,395,-16.836,-16.836,14.909,14.909,7.741,36.620,12.751,7.878,32.107,12.746,-0.671,28.686,9.927,7.265,31.218,9.146
Thu Dec 05 12:48:46 2024,400,-16.904,-16.904,14.951,14.951,7.714,36.630,12.713,7.882,32.137,12.707,-0.647,28.672,9.863,7.320,31.226,9.095
Thu Dec 05 12:48:46 2024,405,-16.880,-16.880,14.860,14.860,7.724,36.667,12.735,7.920,32.178,12.707,-0.622,28.673,9.890,7.304,31.191,9.088
Thu Dec 05 12:48:46 2024,410,-16.854,-16.854,14.762,14.762,7.735,36.708,12.758,7.962,32.222,12.707,-0.594,28.675,9.919,7.287,31.152,9.081
Thu Dec 05 12:48:46 2024,415,-16.806,-16.806,14.782,14.782,7.699,36.638,12.673,7.960,32.204,12.712,-0.630,28.634,9.925,7.281,31.212,9.156
Thu Dec 05 12:48:46 2024,420,-16.759,-16.759,14.837,14.837,7.651,36.541,12.564,7.943,32.167,12.720,-0.682,28.586,9.923,7.280,31.295,9.247
Thu Dec 05 12:48:46 2024,425,-16.770,-16.770,14.859,14.859,7.636,36.555,12.604,7.934,32.161,12.743,-0.697,28.613,9.958,7.305,31.321,9.273
Thu Dec 05 12:48:46 2024,430,-16.820,-16.820,14.852,14.852,7.647,36.642,12.739,7.932,32.178,12.773,-0.681,28.688,10.009,7.340,31.299,9.245
Thu Dec 05 12:48:46 2024,435,-16.841,-16.841,14.846,14.846,7.677,36.713,12.820,7.947,32.212,12.793,-0.644,28.718,10.026,7.374,31.289,9.229
Thu Dec 05 12:48:46 2024,440,-16.811,-16.811,14.844,14.844,7.734,36.748,12.802,7.987,32.268,12.795,-0.578,28.671,9.985,7.401,31.299,9.231
Thu Dec 05 12:48:46 2024,445,-16.783,-16.783,14.842,14.842,7.779,36.774,12.798,8.010,32.296,12.794,-0.536,28.648,9.962,7.420,31.304,9.243
Thu Dec 05 12:48:46 2024,450,-16.755,-16.755,14.845,14.845,7.780,36.767,12.842,7.964,32.211,12.783,-0.593,28.719,10.010,7.405,31.296,9.292
Thu Dec 05 12:48:46 2024,455,-16.732,-16.732,14.850,14.850,7.780,36.760,12.882,7.920,32.133,12.772,-0.647,28.781,10.052,7.392,31.288,9.334
Thu Dec 05 12:48:46 2024,460,-16.750,-16.750,14.877,14.877,7.793,36.757,12.846,7.933,32.165,12.769,-0.627,28.701,10.004,7.422,31.273,9.298
Thu Dec 05 12:48:46 2024,465,-16.774,-16.774,14.904,14.904,7.806,36.755,12.801,7.956,32.216,12.769,-0.595,28.605,9.945,7.456,31.261,9.250
Thu Dec 05 12:48:46 2024,470,-16.764,-16.764,14.907,14.907,7.808,36.778,12.762,7.966,32.221,12.728,-0.570,28.637,9.938,7.471,31.274,9.220
Thu Dec 05 12:48:46 2024,475,-16.737,-16.737,14.900,14.900,7.806,36.812,12.722,7.970,32.206,12.665,-0.546,28.726,9.954,7.480,31.300,9.195
Thu Dec 05 12:48:46 2024,480,-16.735,-16.735,14.878,14.878,7.793,36.818,12.732,7.947,32.185,12.655,-0.539,28.802,9.996,7.493,31.321,9.200
Thu Dec 05 12:48:46 2024,485,-16.762,-16.762,14.855,14.855,7.770,36.782,12.767,7.901,32.159,12.689,-0.543,28.833,10.046,7.514,31.342,9.238
Thu Dec 05 12:48:46 2024,490,-16.783,-16.783,14.873,14.873,7.764,36.745,12.733,7.891,32.148,12.688,-0.534,28.790,10.037,7.534,31.357,9.262
Thu Dec 05 12:48:46 2024,495,-16.804,-16.804,14.891,14.891,7.758,36.708,12.698,7.882,32.137,12.686,-0.526,28.747,10.029,7.554,31.372,9.285
Thu Dec 05 12:48:46 2024,500,-16.825,-16.825,14.909,14.909,7.752,36.671,12.663,7.872,32.126,12.685,-0.518,28.704,10.020,7.574,31.387,9.308
Thu Dec 05 12:48:46 2024,505,-16.847,-16.847,14.927,14.927,7.745,36.633,12.629,7.862,32.115,12.683,-0.510,28.661,10.012,7.594,31.402,9.331
Thu Dec 05 12:48:46 2024,510,-16.840,-16.840,14.922,14.922,7.731,36.612,12.557,7.876,32.160,12.694,-0.496,28.638,10.005,7.618,31.423,9.349
Thu Dec 05 12:48:46 2024,515,-16.826,-16.826,14.919,14.919,7.712,36.600,12.500,7.882,32.229,12.735,-0.484,28.663,10.026,7.647,31.452,9.373
Thu Dec 05 12:48:46 2024,520,-16.822,-16.822,14.943,14.943,7.688,36.604,12.532,7.853,32.305,12.842,-0.484,28.800,10.116,7.678,31.491,9.409
Thu Dec 05 12:48:46 2024,525,-16.819,-16.819,14.952,14.952,7.627,36.507,12.516,7.798,32.268,12.858,-0.515,28.825,10.155,7.668,31.510,9.454
Thu Dec 05 12:48:46 2024,530,-16.820,-16.820,14.944,14.944,7.545,36.332,12.456,7.731,32.123,12.776,-0.572,28.730,10.134,7.617,31.502,9.495
Thu Dec 05 12:48:46 2024,535,-16.831,-16.831,15.022,15.022,7.496,36.217,12.445,7.676,32.011,12.726,-0.619,28.648,10.122,7.564,31.489,9.534
Thu Dec 05 12:48:46 2024,540,-16.859,-16.859,15.229,15.229,7.551,36.308,12.551,7.683,32.041,12.776,-0.614,28.648,10.138,7.542,31.473,9.540
Thu Dec 05 12:48:46 2024,545,-16.895,-16.895,15.494,15.494,7.622,36.423,12.686,7.694,32.080,12.841,-0.607,28.649,10.158,7.514,31.452,9.549
Thu Dec 05 12:48:46 2024,550,-16.930,-16.930,16.316,16.316,7.623,36.478,12.909,7.706,32.118,12.830,-0.600,28.683,10.141,7.518,31.384,9.511
Thu Dec 05 12:48:46 2024,555,-16.957,-16.957,16.948,16.948,7.624,36.520,13.081,7.716,32.149,12.822,-0.593,28.708,10.129,7.522,31.331,9.483
Thu Dec 05 12:48:46 2024,560,-17.076,-17.076,18.079,18.079,7.613,36.554,13.322,7.651,32.092,12.758,-0.634,28.741,10.087,7.467,31.321,9.498
Thu Dec 05 12:48:46 2024,565,-17.225,-17.225,19.220,19.220,7.597,36.569,13.537,7.551,31.989,12.673,-0.697,28.769,10.037,7.387,31.346,9.542
Thu Dec 05 12:48:46 2024,570,-17.366,-17.366,20.363,20.363,7.617,36.561,13.683,7.499,31.927,12.567,-0.755,28.826,9.958,7.326,31.315,9.560
Thu Dec 05 12:48:46 2024,575,-17.508,-17.508,21.544,21.544,7.659,36.538,13.795,7.475,31.885,12.444,-0.813,28.900,9.859,7.275,31.248,9.564
Thu Dec 05 12:48:46 2024,580,-17.695,-17.695,22.706,22.706,7.675,36.526,13.967,7.444,31.869,12.406,-0.867,28.944,9.789,7.228,31.163,9.593
Thu Dec 05 12:48:46 2024,585,-17.914,-17.914,23.684,23.684,7.643,36.535,14.208,7.395,31.877,12.487,-0.911,28.936,9.775,7.188,31.082,9.658
Thu Dec 05 12:48:46 2024,590,-18.156,-18.156,24.761,24.761,7.607,36.531,14.465,7.346,31.897,12.582,-0.949,28.919,9.760,7.150,30.995,9.730
Thu Dec 05 12:48:46 2024,595,-18.292,-18.292,25.371,25.371,7.572,36.375,14.492,7.374,32.034,12.687,-0.839,28.810,9.753,7.205,30.979,9.772
Thu Dec 05 12:48:46 2024,600,-18.417,-18.417,25.926,25.926,7.540,36.233,14.517,7.399,32.159,12.783,-0.739,28.712,9.746,7.255,30.964,9.811
Thu Dec 05 12:48:46 2024,605,-18.533,-18.533,26.381,26.381,7.440,36.169,14.637,7.325,32.170,12.871,-0.715,28.746,9.837,7.276,31.027,9.963
Thu Dec 05 12:48:46 2024,610,-18.620,-18.620,26.705,26.705,7.354,36.132,14.734,7.255,32.157,12.928,-0.714,28.784,9.913,7.286,31.082,10.085
Thu Dec 05 12:48:46 2024,615,-18.725,-18.725,27.095,27.095,7.285,36.055,14.756,7.213,32.150,12.953,-0.718,28.717,9.904,7.304,31.087,10.124
Thu Dec 05 12:48:46 2024,620,-18.807,-18.807,27.397,27.397,7.266,35.961,14.676,7.226,32.155,12.927,-0.728,28.551,9.794,7.323,31.029,10.041
Thu Dec 05 12:48:46 2024,625,-18.870,-18.870,27.681,27.681,7.246,35.861,14.630,7.226,32.146,12.933,-0.747,28.420,9.740,7.323,30.974,10.027
Thu Dec 05 12:48:46 2024,630,-18.889,-18.889,27.908,27.908,7.226,35.758,14.653,7.201,32.114,12.999,-0.783,28.367,9.794,7.287,30.931,10.144
Thu Dec 05 12:48:46 2024,635,-18.906,-18.906,28.108,28.108,7.224,35.694,14.676,7.204,32.094,13.046,-0.784,28.311,9.832,7.281,30.907,10.220
Thu Dec 05 12:48:46 2024,640,-18.917,-18.917,28.252,28.252,7.248,35.691,14.697,7.249,32.095,13.063,-0.732,28.253,9.844,7.319,30.913,10.230
Thu Dec 05 12:48:46 2024,645,-18.930,-18.930,28.393,28.393,7.255,35.693,14.711,7.275,32.081,13.055,-0.693,28.216,9.847,7.355,30.917,10.221
Thu Dec 05 12:48:46 2024,650,-18.951,-18.951,28.536,28.536,7.212,35.674,14.711,7.237,32.023,13.013,-0.709,28.234,9.841,7.360,30.903,10.198
Thu Dec 05 12:48:46 2024,655,-18.980,-18.980,28.704,28.704,7.124,35.636,14.702,7.145,31.925,12.938,-0.770,28.292,9.828,7.342,30.871,10.163
Thu Dec 05 12:48:46 2024,660,-18.975,-18.975,28.825,28.825,7.080,35.579,14.763,7.102,31.857,12.952,-0.821,28.310,9.886,7.311,30.842,10.234
Thu Dec 05 12:48:46 2024,665,-18.961,-18.961,28.926,28.926,7.051,35.520,14.842,7.077,31.802,12.992,-0.865,28.316,9.963,7.277,30.815,10.334
Thu Dec 05 12:48:46 2024,670,-18.966,-18.966,29.003,29.003,7.035,35.521,14.868,7.052,31.764,12.989,-0.892,28.268,9.952,7.272,30.818,10.356
Thu Dec 05 12:48:46 2024,675,-18.986,-18.986,29.052,29.052,7.032,35.561,14.850,7.035,31.741,12.955,-0.902,28.184,9.881,7.287,30.841,10.319
Thu Dec 05 12:48:46 2024,680,-19.009,-19.009,29.090,29.090,7.041,35.573,14.826,7.036,31.722,12.933,-0.899,28.097,9.834,7.298,30.858,10.299
Thu Dec 05 12:48:46 2024,685,-19.024,-19.024,29.117,29.117,7.061,35.533,14.813,7.056,31.702,12.940,-0.888,28.036,9.847,7.292,30.853,10.328
Thu Dec 05 12:48:46 2024,690,-19.043,-19.043,29.150,29.150,7.091,35.459,14.801,7.091,31.677,12.960,-0.870,27.961,9.887,7.278,30.841,10.382
Thu Dec 05 12:48:46 2024,695,-19.058,-19.058,29.112,29.112,7.111,35.408,14.782,7.086,31.673,12.964,-0.864,27.948,9.893,7.262,30.753,10.371
Thu Dec 05 12:48:46 2024,700,-19.070,-19.070,29.072,29.072,7.129,35.365,14.764,7.077,31.671,12.965,-0.860,27.943,9.895,7.247,30.666,10.354
Thu Dec 05 12:48:46 2024,705,-19.110,-19.110,29.030,29.030,7.125,35.404,14.772,7.085,31.712,12.963,-0.841,28.004,9.898,7.259,30.719,10.332
Thu Dec 05 12:48:46 2024,710,-19.161,-19.161,28.982,28.982,7.118,35.473,14.794,7.092,31.753,12.954,-0.824,28.097,9.902,7.274,30.811,10.309
Thu Dec 05 12:48:46 2024,715,-19.208,-19.208,28.934,28.934,7.114,35.542,14.821,7.095,31.779,12.940,-0.814,28.191,9.905,7.285,30.896,10.288
Thu Dec 05 12:48:46 2024,720,-19.237,-19.237,28.890,28.890,7.123,35.595,14.860,7.076,31.742,12.911,-0.834,28.276,9.905,7.274,30.926,10.283
Thu Dec 05 12:48:46 2024,725,-19.257,-19.257,28.841,28.841,7.143,35.625,14.891,7.081,31.718,12.899,-0.856,28.327,9.910,7.252,30.916,10.281
Thu Dec 05 12:48:46 2024,730,-19.252,-19.252,28.798,28.798,7.180,35.596,14.891,7.139,31.729,12.928,-0.872,28.284,9.926,7.212,30.820,10.285
Thu Dec 05 12:48:46 2024,735,-19.254,-19.254,28.758,28.758,7.196,35.569,14.891,7.171,31.742,12.937,-0.869,28.266,9.936,7.201,30.787,10.286
Thu Dec 05 12:48:46 2024,740,-19.266,-19.266,28.714,28.714,7.183,35.544,14.891,7.169,31.760,12.920,-0.841,28.284,9.938,7.228,30.839,10.283
Thu Dec 05 12:48:46 2024,745,-19.288,-19.288,28.665,28.665,7.151,35.524,14.893,7.148,31.782,12.888,-0.798,28.322,9.935,7.281,30.947,10.278
Thu Dec 05 12:48:46 2024,750,-19.318,-19.318,28.571,28.571,7.173,35.579,14.926,7.183,31.847,12.944,-0.804,28.290,9.924,7.285,30.954,10.298
Thu Dec 05 12:48:46 2024,755,-19.345,-19.345,28.484,28.484,7.206,35.645,14.962,7.227,31.911,13.012,-0.823,28.243,9.913,7.273,30.929,10.322
Thu Dec 05 12:48:46 2024,760,-19.338,-19.338,28.352,28.352,7.232,35.682,14.918,7.258,31.972,13.035,-0.808,28.236,9.906,7.280,30.955,10.331
Thu Dec 05 12:48:46 2024,765,-19.298,-19.298,28.181,28.181,7.252,35.692,14.806,7.276,32.030,13.015,-0.763,28.265,9.902,7.301,31.028,10.326
Thu Dec 05 12:48:46 2024,770,-19.268,-19.268,28.013,28.013,7.254,35.691,14.727,7.268,32.071,13.007,-0.739,28.322,9.911,7.314,31.099,10.323
Thu Dec 05 12:48:46 2024,775,-19.281,-19.281,27.905,27.905,7.201,35.660,14.793,7.186,32.054,13.052,-0.795,28.449,9.957,7.293,31.136,10.331
Thu Dec 05 12:48:46 2024,780,-19.298,-19.298,27.780,27.780,7.166,35.648,14.849,7.127,32.046,13.086,-0.838,28.559,9.998,7.275,31.170,10.334
Thu Dec 05 12:48:46 2024,785,-19.324,-19.324,27.594,27.594,7.220,35.730,14.850,7.190,32.077,13.059,-0.806,28.564,10.006,7.274,31.180,10.316
Thu Dec 05 12:48:46 2024,790,-19.354,-19.354,27.394,27.394,7.292,35.832,14.840,7.278,32.117,13.020,-0.759,28.555,10.007,7.277,31.189,10.292
Thu Dec 05 12:48:46 2024,795,-19.398,-19.398,27.242,27.242,7.321,35.936,14.827,7.307,32.178,12.976,-0.731,28.671,9.992,7.284,31.246,10.272
Thu Dec 05 12:48:46 2024,800,-19.441,-19.441,27.117,27.117,7.334,36.032,14.814,7.319,32.241,12.935,-0.712,28.815,9.974,7.290,31.313,10.253
Thu Dec 05 12:48:46 2024,805,-19.482,-19.482,26.989,26.989,7.337,36.069,14.793,7.320,32.254,12.920,-0.715,28.853,9.949,7.276,31.311,10.218
Thu Dec 05 12:48:46 2024,810,-19.529,-19.529,26.854,26.854,7.335,36.060,14.775,7.315,32.230,12.933,-0.739,28.814,9.928,7.248,31.256,10.171
Thu Dec 05 12:48:46 2024,815,-19.587,-19.587,26.767,26.767,7.351,36.093,14.813,7.338,32.266,12.951,-0.741,28.900,9.966,7.256,31.285,10.164
Thu Dec 05 12:48:46 2024,820,-19.647,-19.647,26.696,26.696,7.371,36.136,14.865,7.365,32.316,12.971,-0.739,29.016,10.016,7.272,31.335,10.167
Thu Dec 05 12:48:46 2024,825,-19.719,-19.719,26.630,26.630,7.399,36.205,14.941,7.407,32.404,12.996,-0.726,29.208,10.100,7.307,31.441,10.191
Thu Dec 05 12:48:46 2024,830,-19.715,-19.715,26.536,26.536,7.383,36.215,14.889,7.400,32.447,13.016,-0.724,29.268,10.110,7.310,31.537,10.223
Thu Dec 05 12:48:46 2024,835,-19.709,-19.709,26.412,26.412,7.362,36.228,14.819,7.392,32.505,13.043,-0.722,29.348,10.124,7.313,31.665,10.266
Thu Dec 05 12:48:46 2024,840,-19.713,-19.713,26.323,26.323,7.382,36.248,14.827,7.403,32.465,12.977,-0.717,29.293,10.053,7.289,31.596,10.209
Thu Dec 05 12:48:46 2024,845,-19.718,-19.718,26.252,26.252,7.406,36.265,14.848,7.416,32.411,12.903,-0.711,29.222,9.976,7.264,31.501,10.142
Thu Dec 05 12:48:46 2024,850,-19.717,-19.717,26.135,26.135,7.439,36.303,14.851,7.431,32.382,12.858,-0.701,29.207,9.938,7.257,31.464,10.104
Thu Dec 05 12:48:46 2024,855,-19.707,-19.707,25.989,25.989,7.472,36.359,14.826,7.444,32.397,12.869,-0.690,29.279,9.970,7.280,31.525,10.123
Thu Dec 05 12:48:46 2024,860,-19.688,-19.688,25.825,25.825,7.508,36.421,14.798,7.454,32.418,12.873,-0.673,29.332,9.989,7.306,31.589,10.127
Thu Dec 05 12:48:46 2024,865,-19.646,-19.646,25.652,25.652,7.541,36.488,14.772,7.453,32.451,12.858,-0.647,29.321,9.967,7.335,31.645,10.090
Thu Dec 05 12:48:46 2024,870,-19.601,-19.601,25.474,25.474,7.573,36.546,14.734,7.453,32.484,12.843,-0.627,29.322,9.949,7.357,31.692,10.057
Thu Dec 05 12:48:46 2024,875,-19.582,-19.582,25.425,25.425,7.569,36.506,14.660,7.463,32.483,12.833,-0.656,29.390,9.970,7.323,31.648,10.071
Thu Dec 05 12:48:46 2024,880,-19.566,-19.566,25.374,25.374,7.559,36.451,14.574,7.476,32.475,12.818,-0.695,29.482,10.001,7.281,31.591,10.092
Thu Dec 05 12:48:46 2024,885,-19.580,-19.580,25.264,25.264,7.562,36.499,14.588,7.478,32.456,12.785,-0.692,29.510,10.004,7.306,31.641,10.071
Thu Dec 05 12:48:46 2024,890,-19.609,-19.609,25.105,25.105,7.569,36.592,14.635,7.476,32.428,12.737,-0.674,29.524,10.002,7.358,31.739,10.032
Thu Dec 05 12:48:46 2024,895,-19.616,-19.616,25.038,25.038,7.602,36.608,14.592,7.513,32.447,12.718,-0.647,29.493,9.978,7.379,31.770,10.013
Thu Dec 05 12:48:46 2024,900,-19.612,-19.612,25.016,25.016,7.654,36.579,14.488,7.577,32.496,12.713,-0.610,29.433,9.937,7.384,31.765,10.004
Thu Dec 05 12:48:46 2024,905,-19.620,-19.620,25.011,25.011,7.694,36.561,14.422,7.626,32.543,12.709,-0.584,29.392,9.902,7.381,31.723,9.964
Thu Dec 05 12:48:46 2024,910,-19.656,-19.656,25.044,25.044,7.719,36.563,14.421,7.658,32.592,12.705,-0.575,29.384,9.869,7.358,31.591,9.849
Thu Dec 05 12:48:46 2024,915,-19.687,-19.687,25.071,25.071,7.738,36.565,14.421,7.685,32.635,12.702,-0.568,29.380,9.844,7.335,31.476,9.750
Thu Dec 05 12:48:46 2024,920,-19.676,-19.676,25.022,25.022,7.693,36.561,14.443,7.636,32.606,12.704,-0.568,29.441,9.918,7.317,31.537,9.831
Thu Dec 05 12:48:46 2024,925,-19.667,-19.667,24.972,24.972,7.649,36.559,14.462,7.590,32.576,12.706,-0.571,29.498,9.986,7.303,31.600,9.910
Thu Dec 05 12:48:46 2024,930,-19.671,-19.671,24.927,24.927,7.628,36.564,14.454,7.568,32.559,12.694,-0.590,29.510,9.977,7.323,31.672,9.942
Thu Dec 05 12:48:46 2024,935,-19.677,-19.677,24.886,24.886,7.615,36.572,14.441,7.554,32.545,12.680,-0.612,29.511,9.953,7.350,31.740,9.962
Thu Dec 05 12:48:46 2024,940,-19.681,-19.681,24.921,24.921,7.611,36.534,14.413,7.550,32.573,12.710,-0.648,29.517,9.931,7.330,31.733,9.960
Thu Dec 05 12:48:46 2024,945,-19.682,-19.682,24.997,24.997,7.614,36.477,14.382,7.552,32.620,12.762,-0.686,29.524,9.914,7.286,31.682,9.946
Thu Dec 05 12:48:46 2024,950,-19.701,-19.701,25.078,25.078,7.614,36.462,14.405,7.559,32.636,12.777,-0.681,29.530,9.911,7.286,31.691,9.947
Thu Dec 05 12:48:46 2024,955,-19.750,-19.750,25.181,25.181,7.608,36.510,14.521,7.573,32.604,12.736,-0.606,29.532,9.929,7.354,31.796,9.972
Thu Dec 05 12:48:46 2024,960,-19.770,-19.770,25.377,25.377,7.578,36.508,14.609,7.568,32.580,12.723,-0.562,29.537,9.952,7.390,31.865,10.015
Thu Dec 05 12:48:46 2024,965,-19.688,-19.688,26.052,26.052,7.430,36.312,14.635,7.483,32.573,12.808,-0.609,29.555,10.001,7.317,31.827,10.145
Thu Dec 05 12:48:46 2024,970,-19.593,-19.593,26.794,26.794,7.268,36.090,14.652,7.388,32.569,12.908,-0.670,29.573,10.054,7.231,31.776,10.287
Thu Dec 05 12:48:46 2024,975,-19.329,-19.329,27.774,27.774,7.117,35.888,14.644,7.196,32.244,12.807,-0.785,29.296,9.988,7.110,31.590,10.330
Thu Dec 05 12:48:46 2024,980,-19.048,-19.048,28.771,28.771,6.971,35.692,14.632,6.999,31.883,12.683,-0.905,28.987,9.907,6.988,31.390,10.359
Thu Dec 05 12:48:46 2024,985,-18.768,-18.768,29.826,29.826,6.870,35.442,14.545,6.859,31.452,12.628,-0.958,28.541,9.956,6.805,31.136,10.529
Thu Dec 05 12:48:46 2024,990,-18.441,-18.441,31.117,31.117,6.776,35.126,14.410,6.726,30.924,12.594,-0.986,27.957,10.073,6.565,30.816,10.790
Thu Dec 05 12:48:46 2024,995,-18.349,-18.349,32.309,32.309,6.691,34.815,14.347,6.642,30.605,12.663,-1.048,27.372,10.045,6.381,30.564,10.928
Thu Dec 05 12:48:47 2024,0,-18.497,-18.497,33.404,33.404,6.612,34.507,14.361,6.604,30.492,12.835,-1.152,26.786,9.873,6.250,30.378,10.944
Thu Dec 05 12:48:47 2024,5,-18.626,-18.626,34.670,34.670,6.688,34.120,14.371,6.659,30.337,13.061,-1.180,26.079,9.779,6.177,30.142,11.048
Thu Dec 05 12:48:47 2024,10,-18.584,-18.584,35.542,35.542,7.280,33.749,14.349,7.019,30.155,13.318,-0.892,25.401,10.014,6.375,29.896,11.403
Thu Dec 05 12:48:47 2024,15,-18.540,-18.540,36.338,36.338,7.806,33.376,14.285,7.319,29.971,13.519,-0.646,24.848,10.262,6.572,29.674,11.726
Thu Dec 05 12:48:47 2024,20,-18.464,-18.464,36.824,36.824,7.938,32.698,14.015,7.305,29.592,13.468,-0.655,24.721,10.467,6.697,29.436,11.857
Thu Dec 05 12:48:47 2024,25,-18.407,-18.407,37.335,37.335,7.994,31.916,13.666,7.216,29.142,13.352,-0.730,24.688,10.684,6.822,29.191,11.952
Thu Dec 05 12:48:47 2024,30,-18.464,-16.424,36.903,36.903,7.830,31.525,13.576,6.971,28.805,13.337,-0.923,24.784,10.837,6.680,29.156,12.006
Thu Dec 05 12:48:47 2024,35,-18.544,-13.954,36.183,36.183,7.606,31.265,13.569,6.688,28.520,13.351,-1.142,24.918,10.961,6.460,29.183,12.041
Thu Dec 05 12:48:47 2024,40,-18.624,-11.485,35.463,35.463,7.381,31.005,13.561,6.406,28.234,13.365,-1.362,25.052,11.084,6.241,29.209,12.076
Thu Dec 05 12:48:47 2024,45,-18.704,-9.015,34.743,34.743,7.156,30.745,13.554,6.123,27.948,13.380,-1.581,25.187,11.207,6.022,29.236,12.111
Thu Dec 05 12:48:47 2024,50,-18.785,-6.545,34.023,34.023,6.932,30.486,13.546,5.841,27.663,13.394,-1.801,25.321,11.330,5.802,29.263,12.146
Thu Dec 05 12:48:47 2024,55,-18.865,-4.076,33.303,33.303,6.707,30.226,13.539,5.558,27.377,13.408,-2.020,25.455,11.453,5.583,29.290,12.181
Thu Dec 05 12:48:47 2024,60,-18.945,-1.606,32.583,32.583,6.483,29.966,13.531,5.276,27.091,13.422,-2.239,25.589,11.576,5.364,29.317,12.216
Thu Dec 05 12:48:47 2024,65,-19.025,0.864,31.864,31.864,6.258,29.706,13.524,4.993,26.805,13.436,-2.459,25.723,11.699,5.145,29.344,12.251
Thu Dec 05 12:48:47 2024,70,-19.105,3.334,31.144,31.144,6.033,29.446,13.516,4.711,26.520,13.450,-2.678,25.857,11.822,4.925,29.371,12.286
Thu Dec 05 12:48:47 2024,75,-19.185,5.803,30.424,30.424,5.809,29.186,13.509,4.428,26.234,13.464,-2.898,25.991,11.946,4.706,29.398,12.321
Thu Dec 05 12:48:47 2024,80,-19.265,8.273,29.704,29.704,5.584,28.926,13.501,4.146,25.948,13.478,-3.117,26.125,12.069,4.487,29.425,12.356
Thu Dec 05 12:48:47 2024,85,-19.346,10.743,28.984,28.984,5.360,28.667,13.494,3.863,25.663,13.492,-3.337,26.259,12.192,4.267,29.452,12.391
Thu Dec 05 12:48:47 2024,90,-19.426,13.213,28.264,28.264,5.135,28.407,13.486,3.581,25.377,13.506,-3.556,26.393,12.315,4.048,29.479,12.426
Thu Dec 05 12:48:47 2024,95,-19.506,15.682,27.544,27.544,4.910,28.147,13.479,3.298,25.091,13.520,-3.776,26.527,12.438,3.829,29.506,12.461
Thu Dec 05 12:48:47 2024,100,-19.586,18.152,26.824,26.824,4.686,27.887,13.471,3.016,24.805,13.535,-3.995,26.662,12.561,3.610,29.533,12.496
Thu Dec 05 12:48:47 2024,105,-19.743,19.743,26.105,26.105,4.559,27.744,13.458,2.829,24.604,13.550,-4.135,26.718,12.647,3.502,29.596,12.552
Thu Dec 05 12:48:47 2024,110,-19.844,19.844,25.052,25.052,4.458,27.796,13.484,2.716,24.478,13.574,-4.181,26.713,12.676,3.558,29.726,12.555
Thu Dec 05 12:48:47 2024,115,-19.992,19.992,24.086,24.086,4.367,27.842,13.500,2.612,24.364,13.590,-4.224,26.705,12.698,3.607,29.842,12.552
Thu Dec 05 12:48:47 2024,120,-20.039,20.039,23.466,23.466,4.336,27.792,13.349,2.564,24.319,13.513,-4.279,26.622,12.604,3.613,29.844,12.454
Thu Dec 05 12:48:47 2024,125,-20.075,20.075,22.982,22.982,4.316,27.737,13.203,2.528,24.290,13.437,-4.326,26.546,12.511,3.613,29.834,12.360
Thu Dec 05 12:48:47 2024,130,-20.042,20.042,22.508,22.508,4.223,27.664,13.115,2.442,24.290,13.398,-4.369,26.551,12.484,3.632,29.833,12.306
Thu Dec 05 12:48:47 2024,135,-19.966,19.966,21.978,21.978,4.069,27.571,13.054,2.310,24.312,13.380,-4.415,26.610,12.496,3.668,29.840,12.271
Thu Dec 05 12:48:47 2024,140,-19.931,19.931,21.554,21.554,3.957,27.557,13.053,2.234,24.343,13.359,-4.450,26.684,12.504,3.682,29.894,12.264
Thu Dec 05 12:48:47 2024,145,-19.936,19.936,21.199,21.199,3.888,27.666,13.145,2.230,24.384,13.330,-4.475,26.800,12.509,3.667,30.035,12.301
Thu Dec 05 12:48:47 2024,150,-19.946,19.946,20.886,20.886,3.829,27.732,13.185,2.222,24.397,13.279,-4.500,26.892,12.502,3.640,30.143,12.329
Thu Dec 05 12:48:47 2024,155,-19.972,19.972,20.628,20.628,3.787,27.642,13.036,2.197,24.301,13.129,-4.531,26.925,12.451,3.556,30.160,12.332
Thu Dec 05 12:48:47 2024,160,-19.998,19.998,20.394,20.394,3.749,27.560,12.901,2.174,24.214,12.994,-4.560,26.954,12.405,3.480,30.176,12.336
Thu Dec 05 12:48:47 2024,165,-20.070,20.070,20.355,20.355,3.731,27.490,12.884,2.183,24.167,12.962,-4.560,27.020,12.388,3.430,30.134,12.185
Thu Dec 05 12:48:47 2024,170,-20.134,20.134,20.346,20.346,3.717,27.434,12.885,2.193,24.133,12.949,-4.556,27.079,12.377,3.394,30.093,12.044
Thu Dec 05 12:48:47 2024,175,-20.136,20.136,20.405,20.405,3.734,27.365,12.840,2.247,24.100,12.893,-4.530,27.103,12.394,3.399,30.045,12.017
Thu Dec 05 12:48:47 2024,180,-20.112,20.112,20.481,20.481,3.761,27.304,12.783,2.308,24.076,12.830,-4.498,27.108,12.418,3.423,30.004,12.048
Thu Dec 05 12:48:47 2024,185,-20.162,20.162,20.629,20.629,3.799,27.270,12.760,2.394,24.092,12.819,-4.407,27.037,12.436,3.485,29.995,12.046
Thu Dec 05 12:48:47 2024,190,-20.256,20.256,20.784,20.784,3.834,27.266,12.767,2.474,24.131,12.852,-4.301,26.933,12.444,3.556,30.013,12.022
Thu Dec 05 12:48:47 2024,195,-20.327,20.327,21.052,21.052,3.875,27.226,12.757,2.562,24.135,12.882,-4.192,26.793,12.447,3.614,29.993,12.011
Thu Dec 05 12:48:47 2024,200,-20.288,20.288,21.480,21.480,3.910,27.106,12.703,2.623,24.037,12.888,-4.142,26.630,12.437,3.597,29.875,12.044
Thu Dec 05 12:48:47 2024,205,-20.261,20.261,21.805,21.805,3.938,27.017,12.662,2.670,23.966,12.892,-4.103,26.507,12.429,3.584,29.786,12.069
Thu Dec 05 12:48:47 2024,210,-20.245,20.245,22.596,22.596,4.112,27.007,12.697,2.831,23.881,12.935,-3.940,26.264,12.490,3.677,29.689,12.133
Thu Dec 05 12:48:47 2024,215,-20.252,20.252,23.358,23.358,4.285,27.013,12.736,2.988,23.827,12.977,-3.779,26.031,12.552,3.771,29.603,12.195
Thu Dec 05 12:48:47 2024,220,-20.171,20.171,24.383,24.383,4.361,26.918,12.852,3.082,23.763,13.076,-3.683,25.874,12.667,3.816,29.469,12.300
Thu Dec 05 12:48:47 2024,225,-20.096,20.096,25.412,25.412,4.398,26.797,12.986,3.147,23.707,13.185,-3.618,25.756,12.792,3.841,29.331,12.410
Thu Dec 05 12:48:47 2024,230,-19.904,19.904,26.715,26.715,4.473,26.685,13.118,3.270,23.697,13.243,-3.485,25.507,12.810,3.878,29.096,12.426
Thu Dec 05 12:48:47 2024,235,-19.698,19.698,28.013,28.013,4.566,26.603,13.226,3.418,23.735,13.247,-3.321,25.194,12.736,3.918,28.826,12.361
Thu Dec 05 12:48:47 2024,240,-19.559,19.559,29.194,29.194,4.677,26.548,13.292,3.584,23.822,13.227,-3.142,24.885,12.633,3.987,28.588,12.278
Thu Dec 05 12:48:47 2024,245,-19.452,19.452,29.961,29.961,4.816,26.556,13.252,3.776,23.981,13.153,-2.948,24.618,12.475,4.119,28.452,12.164
Thu Dec 05 12:48:47 2024,250,-19.422,19.422,30.764,30.764,4.960,26.576,13.199,3.982,24.162,13.068,-2.742,24.339,12.303,4.250,28.317,12.036
Thu Dec 05 12:48:47 2024,255,-19.445,19.445,31.411,31.411,5.047,26.664,13.029,4.192,24.407,12.926,-2.553,24.150,12.101,4.289,28.248,11.853
Thu Dec 05 12:48:47 2024,260,-19.524,19.524,32.031,32.031,5.132,26.749,12.866,4.395,24.643,12.789,-2.371,23.969,11.907,4.325,28.182,11.677
Thu Dec 05 12:48:47 2024,265,-19.485,19.485,32.556,32.556,5.240,26.839,12.788,4.672,24.920,12.705,-2.119,23.789,11.806,4.442,28.159,11.610
Thu Dec 05 12:48:47 2024,270,-19.450,19.450,33.116,33.116,5.361,26.939,12.716,4.986,25.228,12.622,-1.832,23.603,11.710,4.581,28.144,11.553
Thu Dec 05 12:48:47 2024,275,-19.409,19.409,33.768,33.768,5.485,27.008,12.627,5.183,25.408,12.533,-1.592,23.434,11.631,4.760,28.164,11.557
Thu Dec 05 12:48:47 2024,280,-19.373,19.373,34.447,34.447,5.608,27.066,12.531,5.332,25.537,12.444,-1.373,23.278,11.561,4.953,28.202,11.586
Thu Dec 05 12:48:47 2024,285,-19.339,19.339,35.089,35.089,5.719,27.127,12.441,5.481,25.683,12.349,-1.154,23.107,11.460,5.161,28.230,11.596
Thu Dec 05 12:48:47 2024,290,-19.282,19.282,35.560,35.560,5.789,27.187,12.379,5.617,25.860,12.247,-0.962,22.902,11.291,5.383,28.226,11.552
Thu Dec 05 12:48:47 2024,295,-19.197,19.197,35.990,35.990,5.854,27.221,12.320,5.734,26.000,12.178,-0.824,22.694,11.148,5.568,28.218,11.542
Thu Dec 05 12:48:47 2024,300,-18.869,18.869,36.534,36.534,5.946,27.153,12.229,5.843,26.051,12.221,-0.842,22.303,11.032,5.708,28.144,11.691
Thu Dec 05 12:48:47 2024,305,-18.512,18.512,37.120,37.120,6.048,27.090,12.129,5.962,13.885,12.271,-0.862,21.890,10.909,5.861,28.075,11.857
Thu Dec 05 12:48:47 2024,310,-18.312,18.312,37.954,37.954,6.429,27.320,12.311,6.405,13.529,12.466,-0.630,21.242,10.900,6.165,27.866,12.016
Thu Dec 05 12:48:47 2024,315,-18.188,18.188,38.631,38.631,6.779,27.565,12.507,6.810,13.169,12.644,-0.403,20.695,10.914,6.429,27.726,12.139
Thu Dec 05 12:48:47 2024,320,-18.004,18.004,38.739,38.739,7.167,27.928,12.869,7.216,12.782,12.970,-0.171,20.346,11.123,6.743,27.675,12.342
Thu Dec 05 12:48:47 2024,325,-17.846,17.846,38.447,38.447,7.489,28.290,13.278,7.531,12.464,13.333,0.020,20.274,11.415,7.027,27.721,12.555
Thu Dec 05 12:48:47 2024,330,-17.882,17.882,37.876,37.876,7.634,28.594,13.721,7.692,12.304,13.700,0.076,20.576,11.674,7.262,27.925,12.734
Thu Dec 05 12:48:47 2024,335,-18.220,18.220,36.906,36.906,7.497,28.822,14.184,7.602,12.389,14.050,-0.026,21.350,11.863,7.404,28.338,12.850
Thu Dec 05 12:48:47 2024,340,-18.425,18.425,35.950,35.950,7.400,29.068,14.453,7.540,12.384,14.282,-0.085,21.984,11.963,7.554,28.764,12.927
Thu Dec 05 12:48:47 2024,345,-18.111,18.111,34.544,34.544,7.437,29.312,13.953,7.580,27.905,14.061,0.097,22.246,11.707,7.812,29.313,12.860
Thu Dec 05 12:48:47 2024,350,-17.860,17.860,33.456,33.456,7.471,29.513,13.530,7.613,28.262,13.864,0.249,22.457,11.491,8.022,29.770,12.800
Thu Dec 05 12:48:47 2024,355,-18.049,18.049,32.311,32.311,7.236,29.916,13.451,7.384,28.428,13.851,-0.191,22.506,11.109,7.664,29.898,12.483
Thu Dec 05 12:48:47 2024,360,-18.284,18.284,31.132,31.132,6.974,30.440,13.373,7.130,28.702,13.849,-0.688,22.650,10.697,7.264,30.097,12.128
Thu Dec 05 12:48:47 2024,365,-18.827,18.827,29.849,29.849,6.401,30.894,13.587,6.775,28.983,13.700,-1.094,23.342,10.234,7.090,30.398,11.621
Thu Dec 05 12:48:47 2024,370,-19.448,19.448,28.612,28.612,5.761,31.415,13.893,6.414,29.333,13.515,-1.442,24.175,9.775,7.005,30.729,11.084
Thu Dec 05 12:48:47 2024,375,-19.664,19.664,26.642,26.642,4.977,31.692,13.946,5.982,29.428,13.078,-1.614,24.978,9.587,7.092,31.248,10.728
Thu Dec 05 12:48:47 2024,380,-19.544,19.544,23.961,23.961,4.012,31.760,13.794,5.459,29.265,12.398,-1.658,25.804,9.622,7.320,31.940,10.514
Thu Dec 05 12:48:47 2024,385,-19.425,19.425,21.333,21.333,3.029,31.918,13.656,4.931,29.129,11.718,-1.713,26.647,9.663,7.543,32.643,10.301
Thu Dec 05 12:48:47 2024,390,-19.355,19.355,19.794,19.794,2.436,32.055,13.580,4.615,29.060,11.311,-1.752,27.156,9.690,7.674,33.067,10.175
Thu Dec 05 12:48:47 2024,395,-19.329,19.329,19.224,19.224,2.213,32.115,13.554,4.497,29.038,11.160,-1.767,27.349,9.702,7.723,33.227,10.128
Thu Dec 05 12:48:47 2024,400,-20.384,20.384,14.257,14.257,3.330,33.447,12.321,5.709,30.405,12.062,-1.282,27.827,10.033,8.158,33.771,9.464
Thu Dec 05 12:48:47 2024,405,-20.618,20.618,12.340,12.340,3.348,33.846,11.974,5.876,30.720,12.111,-1.176,28.187,10.131,8.329,34.100,9.238
Thu Dec 05 12:48:47 2024,410,-20.741,20.741,9.866,9.866,3.200,34.132,11.364,6.008,31.141,12.306,-1.034,28.586,10.316,8.578,34.570,9.168
Thu Dec 05 12:48:47 2024,415,-20.761,20.761,7.725,7.725,2.990,34.272,10.766,6.081,31.510,12.540,-0.914,28.898,10.504,8.803,34.996,9.215
Thu Dec 05 12:48:47 2024,420,-20.910,20.910,6.138,6.138,2.976,34.364,10.464,6.144,31.765,12.614,-0.846,29.133,10.594,8.961,35.314,9.286
Thu Dec 05 12:48:47 2024,425,-21.174,21.174,4.766,4.766,3.102,34.433,10.341,6.209,31.966,12.579,-0.807,29.338,10.623,9.088,35.590,9.384
Thu Dec 05 12:48:47 2024,430,-21.380,21.380,3.511,3.511,3.264,34.543,10.222,6.278,32.150,12.514,-0.749,29.563,10.642,9.226,35.844,9.461
Thu Dec 05 12:48:47 2024,435,-21.460,21.460,-2.430,2.430,3.541,34.777,10.096,6.370,32.316,12.362,-0.632,29.872,10.641,9.412,36.071,9.488
Thu Dec 05 12:48:47 2024,440,-21.490,21.490,-1.551,1.551,3.788,34.970,9.985,6.450,32.460,12.245,-0.544,30.138,10.648,9.567,36.260,9.525
Thu Dec 05 12:48:47 2024,445,-21.243,21.243,-0.950,0.950,4.054,35.046,9.881,6.529,32.584,12.248,-0.537,30.337,10.717,9.654,36.365,9.644
Thu Dec 05 12:48:47 2024,450,-21.000,21.000,-0.639,0.639,4.290,35.105,9.789,6.599,32.693,12.263,-0.541,30.507,10.783,9.725,36.449,9.760
Thu Dec 05 12:48:47 2024,455,-20.718,20.718,-0.729,-0.729,4.577,35.177,9.711,6.722,32.741,12.287,-0.558,30.469,10.761,9.790,36.424,9.842
Thu Dec 05 12:48:47 2024,460,-20.475,20.475,-0.920,-0.920,4.833,35.243,9.653,6.845,32.757,12.311,-0.579,30.354,10.707,9.842,36.360,9.897
Thu Dec 05 12:48:47 2024,465,-20.248,20.248,-1.127,-1.127,5.023,35.250,9.645,6.964,32.812,12.418,-0.615,30.310,10.754,9.883,36.302,9.986
Thu Dec 05 12:48:47 2024,470,-20.050,20.050,-1.325,-1.325,5.163,35.225,9.666,7.073,32.882,12.562,-0.656,30.307,10.849,9.914,36.250,10.087
Thu Dec 05 12:48:47 2024,475,-19.913,19.913,-1.530,-1.530,5.282,35.268,9.703,7.159,32.930,12.634,-0.667,30.297,10.886,9.931,36.179,10.122
Thu Dec 05 12:48:47 2024,480,-19.882,19.882,-1.687,-1.687,5.350,35.386,9.753,7.197,32.937,12.598,-0.637,30.279,10.839,9.927,36.096,10.066
Thu Dec 05 12:48:47 2024,485,-19.855,19.855,-1.840,-1.840,5.416,35.501,9.802,7.234,32.944,12.564,-0.609,30.262,10.793,9.921,36.016,10.013
Thu Dec 05 12:48:47 2024,490,-19.834,19.834,-1.923,-1.923,5.507,35.589,9.786,7.393,33.197,12.715,-0.542,30.356,10.849,9.961,36.087,10.112
Thu Dec 05 12:48:47 2024,495,-19.820,19.820,-1.994,-1.994,5.585,35.664,9.773,7.530,33.416,12.846,-0.487,30.438,10.897,9.995,36.148,10.198
Thu Dec 05 12:48:47 2024,500,-19.736,19.736,-2.061,-2.061,5.666,35.718,9.786,7.583,33.440,12.828,-0.473,30.453,10.878,10.012,36.149,10.206
Thu Dec 05 12:48:47 2024,505,-19.636,19.636,-2.135,-2.135,5.758,35.775,9.804,7.628,33.436,12.786,-0.464,30.458,10.845,10.028,36.140,10.203
Thu Dec 05 12:48:47 2024,510,-19.563,19.563,-2.244,-2.244,5.755,35.841,9.883,7.600,33.439,12.812,-0.495,30.445,10.823,9.986,36.076,10.167
Thu Dec 05 12:48:47 2024,515,-19.496,19.496,-2.399,-2.399,5.689,35.927,10.016,7.518,33.446,12.888,-0.562,30.417,10.804,9.898,35.963,10.104
Thu Dec 05 12:48:47 2024,520,-19.445,19.445,-2.544,-2.544,5.641,35.963,10.084,7.468,33.453,12.926,-0.602,30.433,10.813,9.859,35.957,10.119
Thu Dec 05 12:48:47 2024,525,-19.394,19.394,-2.726,-2.726,5.597,35.958,10.106,7.436,33.464,12.938,-0.627,30.500,10.854,9.860,36.057,10.217
Thu Dec 05 12:48:47 2024,530,-19.344,19.344,-2.916,-2.916,5.557,35.959,10.124,7.410,33.483,12.949,-0.651,30.572,10.890,9.856,36.144,10.300
Thu Dec 05 12:48:47 2024,535,-19.297,19.297,-3.107,-3.107,5.556,35.996,10.108,7.433,33.553,12.952,-0.665,30.654,10.885,9.824,36.115,10.262
Thu Dec 05 12:48:47 2024,540,-19.248,19.248,-3.308,-3.308,5.554,36.035,10.091,7.457,33.627,12.956,-0.680,30.740,10.880,9.790,36.085,10.222
Thu Dec 05 12:48:47 2024,545,-19.200,19.200,-3.457,-3.457,5.633,36.122,10.098,7.532,33.704,13.006,-0.659,30.766,10.891,9.799,36.077,10.179
Thu Dec 05 12:48:47 2024,550,-19.162,19.162,-3.570,-3.570,5.702,36.194,10.106,7.595,33.765,13.050,-0.640,30.782,10.900,9.809,36.073,10.146
Thu Dec 05 12:48:47 2024,555,-19.148,19.148,-3.656,-3.656,5.750,36.255,10.187,7.612,33.771,13.079,-0.631,30.705,10.875,9.844,36.042,10.107
Thu Dec 05 12:48:47 2024,560,-19.150,19.150,-3.699,-3.699,5.771,36.289,10.274,7.601,33.748,13.091,-0.630,30.611,10.842,9.879,36.009,10.079
Thu Dec 05 12:48:47 2024,565,-19.189,19.189,-3.687,-3.687,5.773,36.321,10.322,7.578,33.754,13.103,-0.630,30.611,10.841,9.899,36.029,10.080
Thu Dec 05 12:48:47 2024,570,-19.284,19.284,-3.600,-3.600,5.748,36.359,10.333,7.535,33.799,13.118,-0.630,30.730,10.882,9.904,36.124,10.118
Thu Dec 05 12:48:47 2024,575,-19.391,19.391,-3.459,-3.459,5.758,36.400,10.354,7.519,33.835,13.138,-0.616,30.802,10.925,9.913,36.198,10.159
Thu Dec 05 12:48:47 2024,580,-19.507,19.507,-3.231,-3.231,5.836,36.442,10.392,7.565,33.846,13.166,-0.576,30.764,10.965,9.927,36.218,10.199
Thu Dec 05 12:48:47 2024,585,-19.631,19.631,-2.997,-2.997,5.918,36.483,10.427,7.613,33.852,13.193,-0.532,30.722,11.006,9.946,36.238,10.240
Thu Dec 05 12:48:47 2024,590,-19.768,19.768,-2.785,-2.785,6.008,36.471,10.411,7.666,33.789,13.208,-0.457,30.650,11.035,10.024,36.238,10.274
Thu Dec 05 12:48:47 2024,595,-19.879,19.879,-2.624,-2.624,6.079,36.458,10.396,7.707,33.734,13.218,-0.402,30.592,11.056,10.088,36.238,10.300
Thu Dec 05 12:48:47 2024,600,-20.012,20.012,-2.402,-2.402,6.069,36.385,10.378,7.692,33.713,13.259,-0.395,30.496,11.076,10.085,36.207,10.332
Thu Dec 05 12:48:47 2024,605,-20.172,20.172,-2.127,-2.127,6.021,36.275,10.357,7.650,33.706,13.318,-0.410,30.371,11.099,10.051,36.159,10.372
Thu Dec 05 12:48:47 2024,610,-20.258,20.258,-1.822,-1.822,5.999,36.227,10.328,7.632,33.662,13.305,-0.426,30.333,11.124,10.040,36.100,10.380
Thu Dec 05 12:48:47 2024,615,-20.282,20.282,-1.582,-1.582,5.996,36.224,10.301,7.631,33.610,13.256,-0.439,30.355,11.144,10.044,36.050,10.370
Thu Dec 05 12:48:47 2024,620,-20.320,20.320,-1.316,-1.316,5.983,36.231,10.295,7.627,33.559,13.212,-0.452,30.377,11.171,10.045,36.020,10.383
Thu Dec 05 12:48:47 2024,625,-20.377,20.377,-1.158,-1.158,5.949,36.261,10.360,7.611,33.550,13.216,-0.452,30.389,11.200,10.036,36.073,10.463
Thu Dec 05 12:48:47 2024,630,-20.444,20.444,-0.993,-0.993,5.909,36.277,10.414,7.593,33.545,13.221,-0.458,30.407,11.223,10.021,36.120,10.527
Thu Dec 05 12:48:47 2024,635,-20.547,20.547,-0.838,-0.838,5.850,36.188,10.370,7.569,33.576,13.220,-0.499,30.467,11.199,9.972,36.104,10.459
Thu Dec 05 12:48:47 2024,640,-20.648,20.648,-0.702,-0.702,5.793,36.101,10.328,7.546,33.607,13.219,-0.541,30.524,11.175,9.925,36.089,10.393
Thu Dec 05 12:48:47 2024,645,-20.635,20.635,-0.616,-0.616,5.761,36.040,10.277,7.515,33.562,13.185,-0.558,30.507,11.195,9.879,36.034,10.395
Thu Dec 05 12:48:47 2024,650,-20.588,20.588,-0.549,-0.549,5.736,35.987,10.226,7.481,33.495,13.141,-0.569,30.467,11.228,9.836,35.968,10.416
Thu Dec 05 12:48:47 2024,655,-20.575,20.575,-0.482,0.482,5.729,36.005,10.231,7.480,33.502,13.136,-0.543,30.459,11.232,9.826,35.947,10.410
Thu Dec 05 12:48:47 2024,660,-20.586,20.586,-0.506,0.506,5.735,36.075,10.276,7.504,33.564,13.160,-0.492,30.474,11.213,9.840,35.960,10.384
Thu Dec 05 12:48:47 2024,665,-20.604,20.604,-0.629,0.629,5.702,36.099,10.311,7.498,33.593,13.190,-0.469,30.499,11.229,9.849,36.003,10.413
Thu Dec 05 12:48:47 2024,670,-20.634,20.634,-0.807,0.807,5.608,36.054,10.328,7.448,33.573,13.231,-0.485,30.536,11.298,9.848,36.093,10.528
Thu Dec 05 12:48:47 2024,675,-20.657,20.657,-0.995,0.995,5.539,36.002,10.333,7.408,33.543,13.252,-0.495,30.542,11.333,9.843,36.144,10.599
Thu Dec 05 12:48:47 2024,680,-20.668,20.668,-1.310,1.310,5.541,35.837,10.257,7.379,33.413,13.167,-0.474,30.352,11.193,9.811,35.996,10.467
Thu Dec 05 12:48:47 2024,685,-20.678,20.678,-1.585,1.585,5.542,35.698,10.193,7.355,33.304,13.095,-0.456,30.192,11.076,9.784,35.871,10.354
Thu Dec 05 12:48:47 2024,690,-20.741,20.741,2.283,2.283,5.461,35.638,10.215,7.390,33.373,13.081,-0.395,30.158,11.038,9.794,35.936,10.404
Thu Dec 05 12:48:47 2024,695,-20.808,20.808,2.998,2.998,5.375,35.587,10.244,7.428,33.455,13.073,-0.336,30.137,11.008,9.808,36.014,10.465
Thu Dec 05 12:48:47 2024,700,-21.065,21.065,3.727,3.727,5.285,35.563,10.358,7.465,33.496,13.074,-0.282,30.060,10.967,9.824,36.023,10.444
Thu Dec 05 12:48:47 2024,705,-21.423,21.423,4.415,4.415,5.199,35.558,10.517,7.498,33.509,13.082,-0.242,29.956,10.922,9.842,35.991,10.377
Thu Dec 05 12:48:47 2024,710,-21.627,21.627,4.910,4.910,5.116,35.534,10.594,7.501,33.522,13.088,-0.237,29.904,10.896,9.841,35.969,10.338
Thu Dec 05 12:48:47 2024,715,-21.688,21.688,5.316,5.316,5.008,35.476,10.586,7.464,33.538,13.093,-0.256,29.906,10.884,9.812,35.954,10.326
Thu Dec 05 12:48:47 2024,720,-21.733,21.733,5.689,5.689,4.910,35.409,10.569,7.426,33.540,13.083,-0.291,29.901,10.864,9.779,35.933,10.314
Thu Dec 05 12:48:47 2024,725,-21.709,21.709,6.029,6.029,4.821,35.267,10.504,7.376,33.469,12.989,-0.366,29.858,10.788,9.704,35.879,10.305
Thu Dec 05 12:48:47 2024,730,-21.690,21.690,6.323,6.323,4.745,35.145,10.447,7.333,33.408,12.907,-0.442,29.821,10.722,9.640,35.832,10.297
Thu Dec 05 12:48:47 2024,735,-21.686,21.686,6.663,6.663,4.851,35.141,10.585,7.406,33.377,12.945,-0.411,29.775,10.747,9.613,35.695,10.317
Thu Dec 05 12:48:47 2024,740,-21.686,21.686,6.955,6.955,4.959,35.150,10.722,7.480,33.356,12.990,-0.374,29.736,10.778,9.593,35.568,10.338
Thu Dec 05 12:48:47 2024,745,-21.661,21.661,7.257,7.257,5.038,35.140,10.771,7.503,33.348,13.027,-0.371,29.656,10.766,9.567,35.465,10.319
Thu Dec 05 12:48:47 2024,750,-21.628,21.628,7.533,7.533,5.095,35.121,10.777,7.502,33.348,13.057,-0.385,29.568,10.736,9.541,35.381,10.285
Thu Dec 05 12:48:47 2024,755,-21.617,21.617,8.306,8.306,5.099,35.101,10.918,7.466,33.307,13.067,-0.441,29.491,10.678,9.474,35.294,10.242
Thu Dec 05 12:48:47 2024,760,-21.629,21.629,9.240,9.240,5.059,35.086,11.124,7.412,33.246,13.059,-0.516,29.448,10.615,9.397,35.231,10.204
Thu Dec 05 12:48:47 2024,765,-21.619,21.619,10.866,10.866,4.983,35.088,11.461,7.327,33.190,13.093,-0.635,29.487,10.599,9.273,35.135,10.188
Thu Dec 05 12:48:47 2024,770,-21.561,21.561,12.723,12.723,4.887,35.133,11.815,7.241,33.197,13.202,-0.743,29.699,10.716,9.150,35.047,10.243
Thu Dec 05 12:48:47 2024,775,-21.489,21.489,15.132,15.132,4.767,35.192,12.274,7.125,33.204,13.341,-0.888,29.973,10.865,8.987,34.931,10.318
Thu Dec 05 12:48:47 2024,780,-21.162,21.162,18.294,18.294,4.858,35.230,12.702,6.818,32.979,13.317,-1.178,30.164,10.847,8.711,34.706,10.559
Thu Dec 05 12:48:47 2024,785,-20.856,20.856,21.304,21.304,4.945,35.266,13.111,6.525,32.768,13.298,-1.457,30.353,10.829,8.446,34.492,10.789
Thu Dec 05 12:48:47 2024,790,-20.317,20.317,24.086,24.086,4.824,34.988,13.626,6.111,31.916,13.022,-1.766,30.119,10.790,8.170,34.065,11.173
Thu Dec 05 12:48:47 2024,795,-19.843,19.843,26.223,26.223,4.682,34.697,14.051,5.769,31.108,12.753,-2.009,29.844,10.755,7.957,33.686,11.504
Thu Dec 05 12:48:47 2024,800,-19.791,19.791,28.522,28.522,4.807,34.269,14.513,5.726,30.565,12.900,-2.098,28.855,10.604,7.806,33.179,11.834
Thu Dec 05 12:48:47 2024,805,-20.267,20.267,30.416,30.416,5.201,33.814,14.910,6.035,30.487,13.491,-2.000,27.314,10.375,7.761,32.665,12.075
Thu Dec 05 12:48:47 2024,810,-20.457,20.457,31.702,31.702,5.550,33.410,15.088,6.310,30.383,13.906,-1.877,26.234,10.376,7.752,32.317,12.359
Thu Dec 05 12:48:47 2024,815,-20.065,20.065,32.171,32.171,6.007,32.908,14.828,6.667,30.173,14.144,-1.582,25.568,10.861,7.835,32.156,12.887
Thu Dec 05 12:48:47 2024,820,-19.654,19.654,32.733,32.733,6.523,32.431,14.548,7.070,30.006,14.412,-1.246,24.845,11.395,7.934,31.991,13.463
Thu Dec 05 12:48:47 2024,825,-19.600,19.600,33.886,33.886,6.722,31.439,14.435,7.053,29.203,14.557,-1.104,24.648,11.894,8.104,31.450,13.970
Thu Dec 05 12:48:47 2024,830,-19.624,19.624,35.098,35.098,6.888,30.536,14.340,7.007,28.473,14.673,-0.996,24.531,12.354,8.288,30.970,14.427
Thu Dec 05 12:48:47 2024,835,-19.672,19.672,36.833,36.833,6.999,29.959,14.345,6.992,28.008,14.890,-0.909,24.195,12.816,8.495,30.607,14.874
Thu Dec 05 12:48:47 2024,840,-19.735,19.735,38.861,38.861,7.061,29.597,14.421,6.991,27.718,15.166,-0.836,23.723,13.261,8.705,30.348,15.296
Thu Dec 05 12:48:47 2024,845,-19.871,19.871,40.056,40.056,6.946,29.234,14.250,6.868,27.504,15.114,-0.872,23.362,13.311,8.775,30.261,15.348
Thu Dec 05 12:48:47 2024,850,-20.066,20.066,40.205,40.205,6.651,28.886,13.828,6.625,27.365,14.715,-1.020,23.162,12.934,8.684,30.323,15.001
Thu Dec 05 12:48:47 2024,855,-20.351,20.351,40.137,40.137,6.297,28.512,13.455,6.323,27.170,14.335,-1.204,23.121,12.645,8.551,30.402,14.666
Thu Dec 05 12:48:47 2024,860,-20.825,20.825,39.073,39.073,5.868,28.230,13.488,5.932,26.808,14.232,-1.446,23.715,12.877,8.311,30.511,14.543
Thu Dec 05 12:48:47 2024,865,-21.299,21.299,38.046,38.046,5.464,27.977,13.521,5.564,26.470,14.134,-1.676,24.278,13.097,8.086,30.640,14.427
Thu Dec 05 12:48:47 2024,870,-21.573,21.573,36.613,36.613,5.103,27.676,13.510,5.184,26.109,14.078,-2.079,24.662,13.144,7.640,30.505,14.077
Thu Dec 05 12:48:47 2024,875,-21.771,21.771,35.438,35.438,4.833,27.440,13.496,4.891,25.830,14.041,-2.415,24.943,13.153,7.265,30.374,13.774
Thu Dec 05 12:48:47 2024,880,-21.727,21.727,34.023,34.023,4.570,27.101,13.437,4.460,25.420,14.029,-2.805,25.212,13.209,6.855,30.228,13.547
Thu Dec 05 12:48:47 2024,885,-21.606,21.606,32.910,32.910,4.389,26.809,13.373,4.089,25.068,14.033,-3.107,25.402,13.272,6.546,30.120,13.424
Thu Dec 05 12:48:47 2024,890,-21.383,21.383,31.951,31.951,4.291,26.594,13.379,3.775,24.710,14.099,-3.330,25.559,13.430,6.312,30.049,13.454
Thu Dec 05 12:48:47 2024,895,-21.069,21.069,31.098,31.098,4.284,26.456,13.468,3.506,24.316,14.243,-3.475,25.680,13.713,6.148,30.012,13.666
Thu Dec 05 12:48:47 2024,900,-20.829,20.829,30.260,30.260,4.327,26.428,13.534,3.314,24.032,14.368,-3.570,25.773,13.946,6.044,30.042,13.848
Thu Dec 05 12:48:47 2024,905,-20.678,20.678,29.465,29.465,4.466,26.612,13.553,3.268,23.969,14.452,-3.566,25.809,14.073,6.062,30.200,13.964
Thu Dec 05 12:48:47 2024,910,-20.690,20.690,28.687,28.687,4.597,26.787,13.572,3.226,23.910,14.532,-3.561,25.843,14.193,6.079,30.350,14.075
Thu Dec 05 12:48:47 2024,915,-20.694,20.694,27.762,27.762,4.566,26.700,13.531,3.145,23.778,14.512,-3.602,25.924,14.305,6.069,30.482,14.205
Thu Dec 05 12:48:47 2024,920,-20.758,20.758,26.978,26.978,4.536,26.617,13.494,3.077,23.665,14.490,-3.637,25.993,14.399,6.059,30.593,14.316
Thu Dec 05 12:48:47 2024,925,-20.706,20.706,26.440,26.440,4.471,26.587,13.502,2.980,23.595,14.480,-3.688,26.126,14.475,6.014,30.719,14.398
Thu Dec 05 12:48:47 2024,930,-20.619,20.619,26.015,26.015,4.402,26.577,13.523,2.881,23.547,14.474,-3.740,26.268,14.540,5.961,30.841,14.464
Thu Dec 05 12:48:47 2024,935,-20.609,20.609,25.829,25.829,4.363,26.612,13.559,2.842,23.538,14.454,-3.776,26.320,14.538,5.947,30.908,14.482
Thu Dec 05 12:48:47 2024,940,-20.646,20.646,25.769,25.769,4.339,26.684,13.611,2.835,23.553,14.421,-3.809,26.322,14.492,5.956,30.951,14.470
Thu Dec 05 12:48:47 2024,945,-20.653,20.653,25.716,25.716,4.291,26.707,13.628,2.819,23.581,14.389,-3.823,26.342,14.441,5.948,30.975,14.430
Thu Dec 05 12:48:47 2024,950,-20.614,20.614,25.657,25.657,4.184,26.647,13.593,2.778,23.648,14.349,-3.809,26.398,14.362,5.908,30.979,14.326
Thu Dec 05 12:48:47 2024,955,-20.571,20.571,25.610,25.610,4.061,26.594,13.568,2.738,23.732,14.314,-3.798,26.470,14.288,5.866,31.002,14.227
Thu Dec 05 12:48:47 2024,960,-20.541,20.541,25.729,25.729,3.954,26.658,13.663,2.748,23.814,14.374,-3.825,26.588,14.341,5.867,31.178,14.299
Thu Dec 05 12:48:47 2024,965,-20.517,20.517,25.833,25.833,3.863,26.718,13.744,2.757,23.886,14.425,-3.848,26.690,14.387,5.869,31.329,14.361
Thu Dec 05 12:48:47 2024,970,-20.471,20.471,26.104,26.104,3.853,26.640,13.728,2.779,23.901,14.396,-3.834,26.686,14.395,5.881,31.320,14.395
Thu Dec 05 12:48:47 2024,975,-20.440,20.440,26.329,26.329,3.859,26.562,13.701,2.797,23.904,14.362,-3.819,26.667,14.395,5.892,31.288,14.416
Thu Dec 05 12:48:47 2024,980,-20.382,20.382,26.814,26.814,3.922,26.545,13.712,2.883,23.940,14.362,-3.764,26.609,14.399,5.916,31.198,14.419
Thu Dec 05 12:48:47 2024,985,-20.306,20.306,27.542,27.542,4.045,26.596,13.765,3.036,24.013,14.399,-3.672,26.514,14.406,5.952,31.052,14.402
Thu Dec 05 12:48:47 2024,990,-20.244,20.244,28.170,28.170,4.148,26.646,13.813,3.164,24.062,14.424,-3.588,26.401,14.406,5.998,30.945,14.412
Thu Dec 05 12:48:47 2024,995,-20.194,20.194,28.784,28.784,4.248,26.703,13.863,3.283,24.092,14.442,-3.497,26.248,14.395,6.061,30.864,14.452
Thu Dec 05 12:48:48 2024,0,-20.161,20.161,29.515,29.515,4.366,26.750,13.899,3.423,24.125,14.436,-3.397,26.057,14.345,6.128,30.760,14.483
Thu Dec 05 12:48:48 2024,5,-20.105,20.105,30.213,30.213,4.477,26.711,13.833,3.543,24.128,14.326,-3.334,25.838,14.149,6.160,30.619,14.440
Thu Dec 05 12:48:48 2024,10,-20.084,20.084,30.913,30.913,4.588,26.677,13.766,3.665,24.142,14.214,-3.270,25.618,13.952,6.192,30.480,14.397
Thu Dec 05 12:48:48 2024,15,-20.096,20.096,31.530,31.530,4.686,26.651,13.708,3.772,24.165,14.116,-3.214,25.425,13.779,6.221,30.358,14.358
Thu Dec 05 12:48:48 2024,20,-20.110,20.110,31.791,31.791,4.728,26.641,13.684,3.818,24.178,14.075,-3.190,25.344,13.707,6.234,30.308,14.343
Thu Dec 05 12:48:48 2024,25,-19.609,19.609,33.427,33.427,5.088,27.050,13.794,4.343,24.694,14.070,-2.496,24.624,13.760,6.645,30.300,14.692
Thu Dec 05 12:48:48 2024,30,-19.516,19.516,34.206,34.206,5.245,27.177,13.807,4.558,24.879,14.030,-2.247,24.316,13.709,6.792,30.260,14.793
Thu Dec 05 12:48:48 2024,35,-19.393,19.393,35.027,35.027,5.328,27.239,13.774,4.749,25.074,14.009,-2.015,23.904,13.551,6.948,30.223,14.891
Thu Dec 05 12:48:48 2024,40,-19.262,19.262,35.642,35.642,5.301,27.208,13.701,4.855,25.218,14.016,-1.876,23.501,13.323,7.065,30.199,14.957
Thu Dec 05 12:48:48 2024,45,-19.146,19.146,36.197,36.197,5.316,27.145,13.654,5.018,25.373,14.056,-1.753,23.041,13.118,7.187,30.121,15.018
Thu Dec 05 12:48:48 2024,50,-19.040,19.040,36.547,36.547,5.423,27.024,13.669,5.292,25.543,14.167,-1.678,22.518,12.988,7.302,29.932,15.059
Thu Dec 05 12:48:48 2024,55,-18.938,18.938,36.872,36.872,5.524,26.922,13.684,5.552,14.276,14.272,-1.608,22.069,12.866,7.411,29.767,15.097
Thu Dec 05 12:48:48 2024,60,-18.789,18.789,36.945,36.945,6.060,27.399,13.860,6.256,13.631,14.415,-1.206,21.608,12.904,7.756,29.776,15.347
Thu Dec 05 12:48:48 2024,65,-18.646,18.646,36.970,36.970,6.668,27.990,14.065,7.025,12.902,14.555,-0.750,21.183,12.977,8.136,29.850,15.634
Thu Dec 05 12:48:48 2024,70,-18.580,18.580,36.419,36.419,6.967,28.463,14.464,7.350,12.567,14.970,-0.587,21.487,13.276,8.459,30.129,16.001
Thu Dec 05 12:48:48 2024,75,-18.550,18.550,35.723,35.723,7.133,28.865,14.903,7.491,12.399,15.455,-0.541,22.070,13.633,8.738,30.455,16.371
Thu Dec 05 12:48:48 2024,80,-18.418,18.418,34.708,34.708,7.229,29.190,15.003,7.497,12.272,15.624,-0.449,22.573,13.704,8.957,30.865,16.491
Thu Dec 05 12:48:48 2024,85,-18.178,18.178,33.366,33.366,7.241,29.411,14.695,7.342,27.906,15.405,-0.307,22.958,13.433,9.100,31.382,16.305
Thu Dec 05 12:48:48 2024,90,-18.036,18.036,32.247,32.247,7.185,29.670,14.440,7.213,28.126,15.221,-0.302,23.217,13.169,9.144,31.787,16.112
Thu Dec 05 12:48:48 2024,95,-18.019,18.019,30.858,30.858,6.915,30.245,14.152,7.060,28.349,15.014,-0.650,23.316,12.753,8.957,32.159,15.775
Thu Dec 05 12:48:48 2024,100,-18.020,18.020,29.557,29.557,6.650,30.901,13.864,6.911,28.629,14.810,-0.994,23.449,12.345,8.777,32.569,15.437
Thu Dec 05 12:48:48 2024,105,-19.125,19.125,28.540,28.540,6.521,31.507,14.184,6.648,29.002,14.994,-1.465,23.731,11.874,8.534,32.399,14.740
Thu Dec 05 12:48:48 2024,110,-19.990,19.990,27.746,27.746,6.430,32.030,14.429,6.455,29.380,15.146,-1.843,23.998,11.500,8.339,32.280,14.189
Thu Dec 05 12:48:48 2024,115,-20.350,20.350,26.299,26.299,5.646,32.201,14.630,5.990,29.621,14.841,-2.067,24.828,11.354,8.362,32.772,13.804
Thu Dec 05 12:48:48 2024,120,-20.593,20.593,24.617,24.617,4.618,32.385,14.835,5.422,29.901,14.394,-2.261,25.871,11.268,8.447,33.478,13.441
Thu Dec 05 12:48:48 2024,125,-20.653,20.653,22.535,22.535,3.649,32.674,14.854,4.972,29.997,13.942,-2.339,26.764,11.258,8.610,34.169,13.165
Thu Dec 05 12:48:48 2024,130,-20.607,20.607,20.686,20.686,2.956,32.955,14.762,4.684,29.960,13.596,-2.352,27.409,11.294,8.770,34.698,12.993
Thu Dec 05 12:48:48 2024,135,-20.530,20.530,18.757,18.757,2.448,33.243,14.593,4.442,29.902,13.304,-2.375,28.092,11.369,8.918,35.219,12.834
Thu Dec 05 12:48:48 2024,140,-20.426,20.426,16.879,16.879,2.195,33.476,14.344,4.274,29.817,13.100,-2.405,28.762,11.483,9.045,35.688,12.701
Thu Dec 05 12:48:48 2024,145,-20.340,20.340,15.187,15.187,2.142,33.672,14.052,4.200,29.772,12.982,-2.420,29.346,11.598,9.151,36.086,12.578
Thu Dec 05 12:48:48 2024,150,-20.473,20.473,13.920,13.920,2.280,33.924,13.707,4.410,30.120,13.044,-2.278,29.563,11.571,9.254,36.337,12.355
Thu Dec 05 12:48:48 2024,155,-20.588,20.588,12.933,12.933,2.398,34.126,13.430,4.592,30.417,13.101,-2.158,29.724,11.542,9.336,36.532,12.172
Thu Dec 05 12:48:48 2024,160,-20.855,20.855,11.738,11.738,2.508,34.252,13.130,4.825,30.751,13.220,-2.002,29.750,11.534,9.517,36.761,11.981
Thu Dec 05 12:48:48 2024,165,-21.113,21.113,10.680,10.680,2.600,34.341,12.871,5.034,31.042,13.334,-1.862,29.745,11.531,9.691,36.961,11.816
Thu Dec 05 12:48:48 2024,170,-21.308,21.308,9.705,9.705,2.655,34.468,12.540,5.272,31.397,13.486,-1.688,29.752,11.552,9.856,37.132,11.664
Thu Dec 05 12:48:48 2024,175,-21.434,21.434,8.859,8.859,2.673,34.620,12.165,5.520,31.787,13.664,-1.492,29.768,11.592,10.005,37.264,11.533
Thu Dec 05 12:48:48 2024,180,-21.521,21.521,7.935,7.935,2.649,34.713,11.786,5.713,32.123,13.804,-1.333,29.814,11.648,10.133,37.426,11.462
Thu Dec 05 12:48:48 2024,185,-21.533,21.533,7.104,7.104,2.569,34.703,11.484,5.783,32.307,13.858,-1.262,29.889,11.715,10.205,37.592,11.494
Thu Dec 05 12:48:48 2024,190,-21.546,21.546,6.224,6.224,2.485,34.693,11.166,5.856,32.501,13.915,-1.187,29.968,11.785,10.280,37.768,11.529
Thu Dec 05 12:48:48 2024,195,-21.472,21.472,5.582,5.582,2.624,34.642,10.862,6.040,32.702,13.931,-1.110,30.037,11.790,10.376,37.852,11.535
Thu Dec 05 12:48:48 2024,200,-21.414,21.414,5.102,5.102,2.734,34.604,10.634,6.182,32.854,13.941,-1.052,30.090,11.792,10.449,37.913,11.539
Thu Dec 05 12:48:48 2024,205,-21.294,21.294,4.515,4.515,2.968,34.548,10.517,6.299,32.932,13.995,-0.992,30.196,11.896,10.488,37.844,11.555
Thu Dec 05 12:48:48 2024,210,-21.203,21.203,4.108,4.108,3.146,34.510,10.461,6.371,32.969,14.038,-0.953,30.277,11.984,10.506,37.773,11.567
Thu Dec 05 12:48:48 2024,215,-21.134,21.134,3.746,3.746,3.322,34.579,10.433,6.474,32.977,13.958,-0.871,30.325,12.017,10.543,37.705,11.574
Thu Dec 05 12:48:48 2024,220,-21.102,21.102,3.530,3.530,3.442,34.701,10.434,6.567,32.960,13.814,-0.785,30.334,11.999,10.582,37.660,11.574
Thu Dec 05 12:48:48 2024,225,-21.008,21.008,3.264,3.264,3.588,34.831,10.417,6.657,32.964,13.674,-0.732,30.328,11.938,10.614,37.610,11.545
Thu Dec 05 12:48:48 2024,230,-20.875,20.875,-3.037,3.037,3.711,34.920,10.385,6.712,32.990,13.589,-0.739,30.307,11.848,10.626,37.570,11.493
Thu Dec 05 12:48:48 2024,235,-20.705,20.705,-2.802,2.802,3.847,35.033,10.366,6.774,33.030,13.519,-0.732,30.303,11.780,10.647,37.538,11.460
Thu Dec 05 12:48:48 2024,240,-20.471,20.471,-2.615,2.615,3.979,35.184,10.407,6.839,33.107,13.526,-0.678,30.365,11.815,10.690,37.547,11.509
Thu Dec 05 12:48:48 2024,245,-20.203,20.203,-2.418,2.418,4.128,35.328,10.439,6.917,33.189,13.531,-0.618,30.422,11.848,10.734,37.542,11.563
Thu Dec 05 12:48:48 2024,250,-19.916,19.916,-2.266,2.266,4.276,35.318,10.384,7.008,33.232,13.505,-0.576,30.390,11.826,10.748,37.459,11.598
Thu Dec 05 12:48:48 2024,255,-19.635,19.635,-2.127,2.127,4.420,35.279,10.311,7.099,33.266,13.473,-0.538,30.340,11.793,10.756,37.362,11.628
Thu Dec 05 12:48:48 2024,260,-19.526,19.526,-1.962,1.962,4.540,35.315,10.326,7.147,33.295,13.424,-0.509,30.401,11.781,10.770,37.280,11.573
Thu Dec 05 12:48:48 2024,265,-19.514,19.514,-1.803,1.803,4.636,35.382,10.382,7.170,33.318,13.371,-0.486,30.511,11.780,10.786,37.214,11.484
Thu Dec 05 12:48:48 2024,270,-19.331,19.331,-1.722,1.722,4.765,35.403,10.375,7.218,33.335,13.341,-0.478,30.552,11.769,10.784,37.134,11.427
Thu Dec 05 12:48:48 2024,275,-18.964,18.964,-1.740,1.740,4.923,35.371,10.293,7.292,33.344,13.340,-0.489,30.507,11.745,10.760,37.042,11.414
Thu Dec 05 12:48:48 2024,280,-18.615,18.615,-1.755,1.755,5.085,35.340,10.210,7.363,33.350,13.339,-0.506,30.481,11.718,10.739,36.958,11.400
Thu Dec 05 12:48:48 2024,285,-18.353,18.353,-1.758,1.758,5.226,35.311,10.137,7.416,33.349,13.339,-0.537,30.502,11.692,10.726,36.908,11.388
Thu Dec 05 12:48:48 2024,290,-18.108,18.108,-1.748,1.748,5.366,35.292,10.069,7.472,33.346,13.337,-0.564,30.510,11.660,10.711,36.844,11.365
Thu Dec 05 12:48:48 2024,295,-17.916,17.916,-1.621,1.621,5.499,35.331,10.036,7.547,33.321,13.323,-0.559,30.417,11.584,10.670,36.666,11.256
Thu Dec 05 12:48:48 2024,300,-17.744,17.744,-1.480,1.480,5.624,35.380,10.011,7.621,33.293,13.307,-0.551,30.312,11.504,10.626,36.477,11.138
Thu Dec 05 12:48:48 2024,305,-17.540,17.540,-1.458,1.458,5.687,35.407,10.005,7.626,33.221,13.269,-0.587,30.350,11.517,10.588,36.373,11.116
Thu Dec 05 12:48:48 2024,310,-17.352,17.352,-1.473,1.473,5.725,35.425,10.006,7.611,33.144,13.230,-0.631,30.424,11.554,10.556,36.304,11.123
Thu Dec 05 12:48:48 2024,315,-17.194,17.194,-1.463,1.463,5.751,35.517,10.081,7.621,33.141,13.255,-0.651,30.526,11.604,10.551,36.288,11.122
Thu Dec 05 12:48:48 2024,320,-17.073,17.073,-1.427,1.427,5.763,35.677,10.225,7.655,33.212,13.341,-0.646,30.652,11.663,10.572,36.325,11.113
Thu Dec 05 12:48:48 2024,325,-16.898,16.898,-1.342,1.342,5.811,35.787,10.300,7.722,33.260,13.395,-0.644,30.700,11.683,10.573,36.329,11.099
Thu Dec 05 12:48:48 2024,330,-16.688,16.688,-1.201,1.201,5.899,35.787,10.244,7.818,33.259,13.384,-0.649,30.610,11.636,10.540,36.280,11.082
Thu Dec 05 12:48:48 2024,335,-16.443,16.443,-1.039,1.039,5.997,35.787,10.180,7.928,33.260,13.371,-0.654,30.507,11.583,10.503,36.223,11.062
Thu Dec 05 12:48:48 2024,340,-16.205,16.205,-0.928,0.928,5.970,35.763,10.198,7.908,33.286,13.402,-0.676,30.469,11.572,10.491,36.144,11.034
Thu Dec 05 12:48:48 2024,345,-15.959,15.959,-0.816,0.816,5.943,35.737,10.212,7.887,33.312,13.434,-0.699,30.428,11.561,10.478,36.064,11.006
Thu Dec 05 12:48:48 2024,350,-15.676,15.676,-0.770,0.770,5.901,35.682,10.122,7.867,33.332,13.445,-0.734,30.313,11.507,10.439,35.998,10.970
Thu Dec 05 12:48:48 2024,355,-15.399,15.399,-0.738,0.738,5.858,35.622,10.016,7.848,33.349,13.450,-0.771,30.189,11.447,10.396,35.936,10.934
Thu Dec 05 12:48:48 2024,360,-15.159,15.159,-0.761,0.761,5.858,35.589,9.947,7.856,33.331,13.431,-0.812,30.041,11.372,10.351,35.853,10.881
Thu Dec 05 12:48:48 2024,365,-14.941,14.941,-0.834,0.834,5.894,35.578,9.910,7.890,33.280,13.387,-0.861,29.865,11.279,10.304,35.748,10.811
Thu Dec 05 12:48:48 2024,370,-14.761,14.761,-0.898,0.898,5.923,35.570,9.899,7.905,33.203,13.325,-0.894,29.787,11.224,10.260,35.640,10.747
Thu Dec 05 12:48:48 2024,375,-14.576,14.576,-0.965,0.965,5.948,35.564,9.931,7.896,33.044,13.202,-0.905,29.867,11.221,10.206,35.478,10.668
Thu Dec 05 12:48:48 2024,380,-14.404,-14.404,-1.038,1.038,5.956,35.555,9.968,7.880,32.904,13.099,-0.919,29.936,11.222,10.155,35.336,10.604
Thu Dec 05 12:48:48 2024,385,-14.305,-14.305,1.130,1.130,5.874,35.531,10.026,7.839,32.886,13.123,-0.948,29.944,11.256,10.116,35.329,10.630
Thu Dec 05 12:48:48 2024,390,-14.224,-14.224,1.220,1.220,5.792,35.506,10.082,7.799,32.876,13.154,-0.978,29.939,11.285,10.080,35.329,10.660
Thu Dec 05 12:48:48 2024,395,-14.166,-14.166,1.305,1.305,5.713,35.435,10.151,7.740,32.821,13.179,-1.007,29.800,11.246,10.005,35.259,10.666
Thu Dec 05 12:48:48 2024,400,-14.117,-14.117,1.385,1.385,5.640,35.362,10.217,7.682,32.762,13.201,-1.036,29.653,11.201,9.929,35.183,10.669
Thu Dec 05 12:48:48 2024,405,-13.980,-13.980,1.450,1.450,5.620,35.328,10.176,7.666,32.809,13.202,-1.046,29.484,11.106,9.854,35.094,10.620
Thu Dec 05 12:48:48 2024,410,-13.838,-13.838,1.492,1.492,5.632,35.320,10.095,7.675,32.895,13.192,-1.042,29.354,11.014,9.800,35.024,10.559
Thu Dec 05 12:48:48 2024,415,-13.707,-13.707,1.492,1.492,5.631,35.372,10.086,7.694,32.982,13.195,-1.026,29.360,10.984,9.784,35.005,10.499
Thu Dec 05 12:48:48 2024,420,-13.621,-13.621,1.442,1.442,5.615,35.481,10.166,7.720,33.050,13.211,-0.995,29.527,11.037,9.818,35.052,10.456
Thu Dec 05 12:48:48 2024,425,-13.518,-13.518,1.398,1.398,5.588,35.559,10.222,7.728,33.105,13.221,-0.977,29.666,11.069,9.836,35.114,10.426
Thu Dec 05 12:48:48 2024,430,-13.345,-13.345,1.372,1.372,5.520,35.525,10.191,7.674,33.116,13.200,-1.002,29.703,11.029,9.796,35.227,10.440
Thu Dec 05 12:48:48 2024,435,-13.177,-13.177,1.346,1.346,5.454,35.493,10.160,7.621,33.127,13.180,-1.028,29.739,10.989,9.757,35.338,10.455
Thu Dec 05 12:48:48 2024,440,-13.021,-13.021,1.302,1.302,5.483,35.583,10.214,7.656,33.178,13.241,-1.002,29.605,10.998,9.741,35.284,10.465
Thu Dec 05 12:48:48 2024,445,-12.873,-12.873,1.256,1.256,5.521,35.676,10.272,7.698,33.228,13.305,-0.972,29.464,11.010,9.728,35.216,10.472
Thu Dec 05 12:48:48 2024,450,-12.712,-12.712,1.197,1.197,5.526,35.698,10.298,7.714,33.236,13.309,-0.948,29.393,11.005,9.723,35.178,10.441
Thu Dec 05 12:48:48 2024,455,-12.558,-12.558,1.136,1.136,5.518,35.688,10.306,7.718,33.226,13.287,-0.927,29.360,10.991,9.721,35.156,10.395
Thu Dec 05 12:48:48 2024,460,-12.405,-12.405,1.086,1.086,5.552,35.780,10.344,7.701,33.198,13.255,-0.898,29.366,10.978,9.685,35.122,10.332
Thu Dec 05 12:48:48 2024,465,-12.266,-12.266,1.055,1.055,5.637,35.996,10.418,7.661,33.152,13.214,-0.861,29.420,10.967,9.606,35.073,10.251
Thu Dec 05 12:48:48 2024,470,-12.180,-12.180,1.052,1.052,5.743,36.208,10.524,7.638,33.123,13.209,-0.803,29.395,10.948,9.513,35.004,10.182
Thu Dec 05 12:48:48 2024,475,-12.236,-12.236,1.140,1.140,5.959,36.483,10.765,7.661,33.140,13.323,-0.653,29.107,10.898,9.338,34.848,10.120
Thu Dec 05 12:48:48 2024,480,-12.306,-12.306,1.238,1.238,6.194,36.777,11.029,7.688,33.160,13.451,-0.491,28.788,10.843,9.148,34.679,10.056
Thu Dec 05 12:48:48 2024,485,-12.332,-12.332,1.325,1.325,6.401,37.212,11.407,7.679,33.033,13.514,-0.449,28.462,10.845,8.978,34.462,10.075
Thu Dec 05 12:48:48 2024,490,-12.363,-12.363,1.411,1.411,6.608,37.658,11.797,7.667,32.895,13.573,-0.415,28.133,10.851,8.809,34.241,10.100
Thu Dec 05 12:48:48 2024,495,-12.385,-12.385,1.478,1.478,6.918,38.146,12.227,7.673,32.763,13.714,-0.330,27.853,10.873,8.639,34.064,10.138
Thu Dec 05 12:48:48 2024,500,-12.404,-12.404,1.529,1.529,7.199,38.559,12.591,7.682,32.655,13.849,-0.251,27.634,10.895,8.499,33.928,10.172
Thu Dec 05 12:48:48 2024,505,-12.456,-12.456,1.580,1.580,7.540,39.125,13.084,7.698,32.569,14.006,-0.162,27.378,10.894,8.353,33.711,10.132
Thu Dec 05 12:48:48 2024,510,-12.518,-12.518,1.614,1.614,7.815,39.631,13.520,7.713,32.534,14.126,-0.040,27.180,10.870,8.252,33.496,10.039
Thu Dec 05 12:48:48 2024,515,-12.544,-12.544,1.664,1.664,8.077,40.163,13.993,7.708,32.471,14.239,0.119,27.006,10.852,8.117,33.299,9.980
Thu Dec 05 12:48:48 2024,520,-12.499,-12.499,1.738,1.738,8.266,40.661,14.463,7.666,32.368,14.322,0.064,26.903,10.843,7.940,33.167,9.993
Thu Dec 05 12:48:48 2024,525,-12.457,-12.457,1.818,1.818,8.477,41.222,14.997,7.630,32.263,14.410,-0.111,26.799,10.842,7.758,33.025,10.007
Thu Dec 05 12:48:48 2024,530,-12.428,-12.428,1.900,1.900,8.745,41.948,15.713,7.644,32.194,14.482,-0.106,26.737,10.885,7.629,32.882,10.026
Thu Dec 05 12:48:48 2024,535,-12.405,-12.405,1.967,1.967,8.975,42.566,16.327,7.663,32.143,14.540,-0.103,26.691,10.926,7.530,32.763,10.041
Thu Dec 05 12:48:48 2024,540,-12.361,-12.361,2.025,2.025,9.458,43.560,17.582,7.628,31.849,14.441,-0.156,26.600,10.917,7.386,32.622,10.087
Thu Dec 05 12:48:48 2024,545,-12.323,-12.323,2.066,2.066,9.896,44.413,18.721,7.586,31.563,14.321,-0.256,26.521,10.897,7.266,32.509,10.130
Thu Dec 05 12:48:48 2024,550,-12.272,-12.272,2.081,2.081,10.500,45.686,20.521,7.595,31.262,13.952,-0.304,26.385,10.737,7.080,32.252,10.013
Thu Dec 05 12:48:48 2024,555,-12.221,-12.221,2.081,2.081,11.137,47.064,22.543,7.633,30.993,13.482,-0.311,26.230,10.512,6.878,31.938,9.815
Thu Dec 05 12:48:48 2024,560,-12.155,-12.155,2.059,2.059,11.758,48.715,25.009,7.743,30.805,13.036,-0.256,26.114,10.372,6.736,31.644,9.678
Thu Dec 05 12:48:48 2024,565,-12.058,-12.058,2.002,2.002,12.419,50.991,28.578,7.983,30.730,12.578,-0.112,26.053,10.350,6.674,31.351,9.623
Thu Dec 05 12:48:48 2024,570,-12.016,-12.016,1.980,1.980,13.067,53.471,32.840,8.258,30.824,12.310,0.186,25.905,10.325,6.649,31.078,9.542
Thu Dec 05 12:48:48 2024,575,-12.194,-12.194,2.082,2.082,13.681,57.003,40.021,8.706,31.590,12.783,0.660,25.351,10.251,6.769,30.861,9.327
Thu Dec 05 12:48:48 2024,580,-12.433,-12.433,2.148,2.148,14.188,60.650,48.459,9.129,32.371,13.281,1.161,24.892,10.179,6.919,30.683,9.113
Thu Dec 05 12:48:48 2024,585,-13.072,-13.072,1.794,1.794,13.217,65.052,61.749,9.304,32.844,13.564,1.697,25.099,10.153,7.256,30.682,8.970
Thu Dec 05 12:48:48 2024,590,-13.810,-13.810,1.366,1.366,11.985,69.921,76.530,9.414,33.214,13.774,2.206,25.469,10.140,7.608,30.732,8.856
Thu Dec 05 12:48:48 2024,595,-14.400,-14.400,1.216,1.216,11.357,73.142,83.515,9.577,33.953,13.907,2.433,25.929,9.961,7.866,31.098,8.623
Thu Dec 05 12:48:48 2024,600,-14.770,-14.770,1.248,1.248,11.131,74.525,84.913,9.732,34.742,13.971,2.458,26.336,9.732,8.024,31.561,8.377
Thu Dec 05 12:48:48 2024,605,-15.107,-15.107,1.352,1.352,11.141,75.886,86.119,9.902,35.728,14.091,2.424,26.790,9.510,8.196,32.067,8.252
Thu Dec 05 12:48:48 2024,610,-15.262,-15.262,1.560,1.560,11.422,76.737,86.623,10.022,36.726,14.274,2.280,27.176,9.369,8.326,32.471,8.398
Thu Dec 05 12:48:48 2024,615,-15.377,-15.377,1.776,1.776,11.718,77.494,87.148,10.131,37.591,14.439,2.171,27.522,9.258,8.444,32.799,8.540
Thu Dec 05 12:48:48 2024,620,-15.344,-15.344,2.122,2.122,12.167,78.121,88.026,10.277,38.088,14.564,2.211,27.783,9.236,8.555,32.873,8.725
Thu Dec 05 12:48:48 2024,625,-15.314,-15.314,2.385,2.385,12.515,78.587,88.703,10.384,38.443,14.657,2.245,27.973,9.224,8.638,32.920,8.865
Thu Dec 05 12:48:48 2024,630,-15.258,-15.258,2.630,2.630,13.116,79.552,90.123,10.489,38.510,14.700,2.268,28.075,9.278,8.672,32.777,8.966
Thu Dec 05 12:48:48 2024,635,-15.212,-15.212,2.800,2.800,13.622,80.368,91.309,10.562,38.490,14.719,2.282,28.127,9.334,8.686,32.632,9.027
Thu Dec 05 12:48:48 2024,640,-15.140,-15.140,2.928,2.928,14.090,81.274,92.437,10.630,38.567,14.851,2.182,28.032,9.386,8.610,32.476,9.099
Thu Dec 05 12:48:48 2024,645,-15.058,-15.058,3.034,3.034,14.547,82.213,93.501,10.692,38.687,15.035,2.030,27.873,9.435,8.493,32.318,9.174
Thu Dec 05 12:48:48 2024,650,-14.984,-14.984,3.226,3.226,15.135,83.281,94.554,10.820,38.927,15.251,1.972,27.807,9.546,8.406,32.127,9.263
Thu Dec 05 12:48:48 2024,655,-14.929,-14.929,3.497,3.497,15.790,84.353,95.465,11.011,39.279,15.476,2.030,27.861,9.715,8.365,31.925,9.356
Thu Dec 05 12:48:48 2024,660,-14.862,-14.862,3.717,3.717,16.464,85.420,96.250,11.194,39.655,15.704,2.093,27.999,9.913,8.309,31.732,9.448
Thu Dec 05 12:48:48 2024,665,-14.758,-14.758,3.755,3.755,17.043,86.339,96.645,11.335,40.073,15.910,2.158,28.393,10.179,8.212,31.576,9.529
Thu Dec 05 12:48:48 2024,670,-14.669,-14.669,3.788,3.788,17.587,87.171,96.980,11.461,40.450,16.097,2.216,28.748,10.424,8.125,31.436,9.602
Thu Dec 05 12:48:48 2024,675,-14.599,-14.599,3.764,3.764,18.276,88.142,97.498,11.532,40.809,16.206,2.188,28.900,10.481,7.881,31.034,9.458
Thu Dec 05 12:48:48 2024,680,-14.539,-14.539,3.740,3.740,18.932,89.027,97.946,11.586,41.129,16.301,2.160,29.041,10.535,7.652,30.670,9.332
Thu Dec 05 12:48:48 2024,685,-14.476,-14.476,3.742,3.742,19.473,89.715,98.145,11.588,41.382,16.409,2.189,29.371,10.752,7.527,30.563,9.442
Thu Dec 05 12:48:48 2024,690,-14.409,-14.409,3.759,3.759,19.983,90.331,98.210,11.558,41.611,16.534,2.252,29.832,11.082,7.455,30.602,9.697
Thu Dec 05 12:48:48 2024,695,-14.364,-14.364,3.761,3.761,20.512,90.899,98.364,11.569,41.729,16.607,2.270,30.084,11.283,7.366,30.549,9.820
Thu Dec 05 12:48:48 2024,700,-14.333,-14.333,3.752,3.752,21.050,91.424,98.574,11.611,41.765,16.643,2.255,30.184,11.388,7.266,30.430,9.845
Thu Dec 05 12:48:48 2024,705,-14.307,-14.307,3.747,3.747,21.596,91.928,98.718,11.660,41.821,16.689,2.232,30.293,11.497,7.153,30.286,9.868
Thu Dec 05 12:48:48 2024,710,-14.310,-14.310,3.759,3.759,21.857,92.115,98.614,11.708,41.907,16.739,2.194,30.375,11.560,7.059,30.139,9.869
Thu Dec 05 12:48:48 2024,715,-14.312,-14.312,3.768,3.768,22.079,92.272,98.526,11.748,41.979,16.781,2.162,30.445,11.614,6.981,30.015,9.870
Thu Dec 05 12:48:48 2024,720,-14.352,-14.352,3.898,3.898,22.275,92.462,98.554,11.767,42.048,16.857,2.161,30.417,11.629,6.989,30.014,9.918
Thu Dec 05 12:48:48 2024,725,-14.388,-14.388,4.016,4.016,22.442,92.628,98.584,11.781,42.107,16.924,2.163,30.387,11.639,7.002,30.019,9.961
Thu Dec 05 12:48:48 2024,730,-14.409,-14.409,4.116,4.116,22.718,92.859,98.532,11.853,42.245,16.987,2.189,30.529,11.737,6.973,29.881,9.945
Thu Dec 05 12:48:48 2024,735,-14.426,-14.426,4.211,4.211,23.047,93.121,98.446,11.948,42.418,17.051,2.224,30.739,11.873,6.927,29.686,9.908
Thu Dec 05 12:48:48 2024,740,-14.427,-14.427,4.244,4.244,23.373,93.369,98.370,12.021,42.549,17.126,2.221,30.977,12.023,6.941,29.694,9.963
Thu Dec 05 12:48:48 2024,745,-14.409,-14.409,4.218,4.218,23.726,93.624,98.298,12.076,42.650,17.221,2.178,31.263,12.199,7.017,29.910,10.119
Thu Dec 05 12:48:48 2024,750,-14.401,-14.401,4.226,4.226,23.956,93.812,98.300,12.119,42.731,17.295,2.184,31.441,12.313,7.034,29.961,10.188
Thu Dec 05 12:48:48 2024,755,-14.402,-14.402,4.285,4.285,24.040,93.936,98.408,12.153,42.795,17.348,2.265,31.489,12.354,6.969,29.784,10.142
Thu Dec 05 12:48:48 2024,760,-14.411,-14.411,4.321,4.321,24.076,94.017,98.476,12.172,42.857,17.376,2.325,31.544,12.379,6.912,29.625,10.085
Thu Dec 05 12:48:48 2024,765,-14.436,-14.436,4.272,4.272,24.054,94.030,98.390,12.157,42.932,17.348,2.303,31.688,12.397,6.908,29.600,10.048
Thu Dec 05 12:48:48 2024,770,-14.468,-14.468,4.214,4.214,24.023,94.039,98.286,12.139,43.019,17.314,2.277,31.864,12.421,6.903,29.573,10.005
Thu Dec 05 12:48:48 2024,775,-14.524,-14.524,4.194,4.194,23.762,93.870,98.204,12.132,42.977,17.297,2.320,32.042,12.502,6.941,29.632,10.079
Thu Dec 05 12:48:48 2024,780,-14.579,-14.579,4.185,4.185,23.478,93.678,98.134,12.129,42.911,17.285,2.373,32.203,12.589,6.985,29.703,10.170
Thu Dec 05 12:48:48 2024,785,-14.663,-14.663,4.158,4.158,23.202,93.481,98.190,12.093,42.848,17.268,2.385,32.222,12.587,7.024,29.714,10.153
Thu Dec 05 12:48:48 2024,790,-14.747,-14.747,4.124,4.124,22.973,93.312,98.300,12.045,42.796,17.249,2.373,32.165,12.540,7.056,29.693,10.082
Thu Dec 05 12:48:48 2024,795,-14.826,-14.826,4.093,4.093,22.760,93.154,98.402,12.000,42.748,17.232,2.362,32.111,12.496,7.086,29.674,10.016
Thu Dec 05 12:48:48 2024,800,-14.879,-14.879,4.072,4.072,22.621,93.050,98.468,11.970,42.717,17.221,2.354,32.076,12.467,7.106,29.662,9.973
Thu Dec 05 12:48:48 2024,805,-14.935,-14.935,4.114,4.114,21.934,92.422,98.259,11.964,42.572,17.155,2.370,32.059,12.448,7.204,29.804,10.008
Thu Dec 05 12:48:48 2024,810,-15.031,-15.031,4.180,4.180,20.828,91.398,97.915,11.951,42.334,17.046,2.393,32.030,12.414,7.366,30.036,10.062
Thu Dec 05 12:48:48 2024,815,-15.092,-15.092,4.200,4.200,20.319,90.911,97.780,11.932,42.222,16.994,2.402,32.004,12.386,7.442,30.131,10.067
Thu Dec 05 12:48:48 2024,820,-15.163,-15.163,4.234,4.234,19.468,90.018,97.564,11.862,42.080,16.868,2.460,31.966,12.288,7.533,30.284,10.052
Thu Dec 05 12:48:48 2024,825,-15.240,-15.240,4.274,4.274,18.526,88.977,97.296,11.773,41.927,16.720,2.534,31.924,12.165,7.632,30.459,10.029
Thu Dec 05 12:48:48 2024,830,-15.253,-15.253,4.344,4.344,17.826,88.105,96.931,11.643,41.788,16.630,2.495,31.819,12.016,7.743,30.666,10.002
Thu Dec 05 12:48:48 2024,835,-15.246,-15.246,4.434,4.434,17.104,87.154,96.470,11.481,41.632,16.546,2.414,31.678,11.838,7.874,30.914,9.968
Thu Dec 05 12:48:48 2024,840,-15.258,-15.258,4.439,4.439,16.460,86.172,95.902,11.343,41.508,16.458,2.363,31.616,11.696,7.953,31.077,9.898
Thu Dec 05 12:48:48 2024,845,-15.312,-15.312,4.307,4.307,15.664,84.735,94.945,11.188,41.387,16.326,2.347,31.661,11.556,7.974,31.169,9.742
Thu Dec 05 12:48:48 2024,850,-15.392,-15.392,4.172,4.172,14.848,83.157,93.713,11.038,41.253,16.158,2.332,31.683,11.380,8.000,31.266,9.548
Thu Dec 05 12:48:48 2024,855,-15.541,-15.541,4.064,4.064,13.982,81.333,91.728,10.947,41.095,15.873,2.329,31.587,11.088,8.038,31.357,9.230
Thu Dec 05 12:48:48 2024,860,-15.695,-15.695,3.959,3.959,13.225,79.604,89.730,10.858,40.944,15.601,2.324,31.495,10.809,8.076,31.445,8.924
Thu Dec 05 12:48:48 2024,865,-15.798,-15.798,3.720,3.720,11.848,77.405,87.142,10.804,40.488,15.500,2.364,31.232,10.798,8.044,31.404,8.704
Thu Dec 05 12:48:48 2024,870,-15.894,-15.894,3.461,3.461,10.487,75.182,84.443,10.753,39.985,15.432,2.408,30.944,10.836,7.999,31.340,8.501
Thu Dec 05 12:48:48 2024,875,-16.005,-16.005,3.238,3.238,9.554,73.796,82.991,10.685,39.419,15.502,2.579,30.766,11.137,7.998,31.207,8.576
Thu Dec 05 12:48:48 2024,880,-16.104,-16.104,3.072,3.072,8.969,73.027,82.362,10.620,38.926,15.621,2.778,30.672,11.505,8.015,31.067,8.763
Thu Dec 05 12:48:48 2024,885,-16.172,-16.172,3.104,3.104,8.718,72.333,80.658,10.524,38.479,15.750,3.004,30.542,11.803,8.092,31.050,8.916
Thu Dec 05 12:48:48 2024,890,-16.154,-16.154,3.452,3.452,9.144,72.127,78.046,10.433,38.343,15.831,3.158,30.416,11.828,8.227,31.246,8.936
Thu Dec 05 12:48:48 2024,895,-16.032,-16.032,3.756,3.756,9.534,71.328,74.207,10.305,38.196,15.866,3.211,30.292,11.832,8.267,31.393,8.934
Thu Dec 05 12:48:48 2024,900,-15.411,-15.411,3.976,3.976,9.857,67.807,63.975,9.975,37.954,15.712,2.840,30.103,11.736,7.909,31.385,8.845
Thu Dec 05 12:48:48 2024,905,-14.863,-14.863,4.152,4.152,10.281,64.737,55.146,9.650,37.641,15.515,2.471,29.930,11.630,7.552,31.369,8.758
Thu Dec 05 12:48:48 2024,910,-14.465,-14.465,4.156,4.156,10.162,61.696,48.057,9.212,36.728,14.968,2.006,29.752,11.398,7.139,31.280,8.652
Thu Dec 05 12:48:48 2024,915,-14.071,-14.071,4.112,4.112,9.974,58.461,41.229,8.721,35.579,14.269,1.474,29.571,11.113,6.669,31.172,8.545
Thu Dec 05 12:48:48 2024,920,-13.860,-13.860,4.128,4.128,9.648,55.966,36.684,8.296,34.734,14.011,1.170,29.465,10.993,6.427,31.200,8.652
Thu Dec 05 12:48:48 2024,925,-13.704,-13.704,4.170,4.170,9.254,53.537,32.678,7.859,33.938,13.903,0.934,29.380,10.929,6.254,31.285,8.856
Thu Dec 05 12:48:48 2024,930,-13.552,-13.552,4.213,4.213,8.940,51.373,29.285,7.598,33.358,13.825,0.861,29.176,10.869,6.241,31.420,9.036
Thu Dec 05 12:48:48 2024,935,-13.412,-13.412,4.257,4.257,8.708,49.591,26.559,7.534,33.046,13.796,0.965,28.853,10.817,6.400,31.602,9.181
Thu Dec 05 12:48:48 2024,940,-13.300,-13.300,4.302,4.302,8.455,47.889,24.014,7.476,32.772,13.767,1.101,28.583,10.788,6.584,31.842,9.318
Thu Dec 05 12:48:48 2024,945,-13.271,-13.271,4.337,4.337,8.132,46.543,21.929,7.439,32.624,13.744,1.302,28.480,10.827,6.818,32.212,9.419
Thu Dec 05 12:48:48 2024,950,-13.247,-13.247,4.369,4.369,7.780,45.112,19.788,7.393,32.451,13.708,1.529,28.382,10.877,7.067,32.603,9.527
Thu Dec 05 12:48:48 2024,955,-13.210,-13.210,4.329,4.329,7.489,44.159,18.776,7.296,32.132,13.585,1.698,28.271,10.930,7.139,32.609,9.585
Thu Dec 05 12:48:48 2024,960,-13.173,-13.173,4.290,4.290,7.210,43.230,17.797,7.203,31.821,13.466,1.864,28.166,10.982,7.209,32.617,9.641
Thu Dec 05 12:48:48 2024,965,-13.217,-13.217,4.357,4.357,6.927,42.537,17.030,7.129,31.592,13.297,1.918,28.138,10.971,7.293,32.821,9.717
Thu Dec 05 12:48:48 2024,970,-13.287,-13.287,4.460,4.460,6.645,41.927,16.339,7.061,31.390,13.112,1.935,28.135,10.937,7.381,33.090,9.799
Thu Dec 05 12:48:48 2024,975,-13.302,-13.302,4.458,4.458,6.474,41.430,15.781,7.040,31.256,12.970,1.975,28.110,10.903,7.460,33.189,9.815
Thu Dec 05 12:48:48 2024,980,-13.279,-13.279,4.379,4.379,6.369,40.978,15.278,7.051,31.160,12.848,2.035,28.067,10.864,7.539,33.173,9.785
Thu Dec 05 12:48:48 2024,985,-13.295,-13.295,4.347,4.347,6.250,40.603,14.880,7.051,31.092,12.771,2.075,28.056,10.850,7.590,33.166,9.758
Thu Dec 05 12:48:48 2024,990,-13.397,-13.397,4.416,4.416,6.106,40.408,14.717,7.030,31.083,12.794,2.070,28.114,10.887,7.580,33.180,9.737
Thu Dec 05 12:48:48 2024,995,-13.489,-13.489,4.483,4.483,5.966,40.193,14.538,7.014,31.073,12.800,2.066,28.166,10.911,7.572,33.193,9.716
Thu Dec 05 12:48:49 2024,0,-13.537,-13.537,4.546,4.546,5.837,39.876,14.269,7.017,31.055,12.730,2.069,28.195,10.879,7.581,33.209,9.685
Thu Dec 05 12:48:49 2024,5,-13.580,-13.580,4.609,4.609,5.707,39.534,13.978,7.024,31.035,12.644,2.075,28.220,10.837,7.593,33.225,9.652
Thu Dec 05 12:48:49 2024,10,-13.597,-13.597,4.664,4.664,5.680,39.346,13.800,7.062,31.096,12.638,2.056,28.154,10.781,7.639,33.228,9.630
Thu Dec 05 12:48:49 2024,15,-13.614,-13.614,4.732,4.732,5.664,39.140,13.600,7.116,31.186,12.644,2.030,28.059,10.710,7.700,33.230,9.604
Thu Dec 05 12:48:49 2024,20,-13.615,-13.615,4.782,4.782,5.642,38.945,13.394,7.149,31.204,12.579,2.051,28.069,10.675,7.761,33.257,9.580
Thu Dec 05 12:48:49 2024,25,-13.604,-13.604,4.824,4.824,5.616,38.742,13.164,7.169,31.174,12.456,2.106,28.158,10.665,7.829,33.304,9.555
Thu Dec 05 12:48:49 2024,30,-13.626,-13.626,4.865,4.865,5.578,38.552,12.996,7.182,31.159,12.400,2.158,28.259,10.688,7.894,33.414,9.584
Thu Dec 05 12:48:49 2024,35,-13.690,-13.690,4.899,4.899,5.530,38.414,12.938,7.183,31.165,12.443,2.197,28.357,10.751,7.944,33.588,9.681
Thu Dec 05 12:48:49 2024,40,-13.758,-13.758,4.943,4.943,5.475,38.230,12.849,7.194,31.178,12.487,2.244,28.473,10.822,8.014,33.785,9.787
Thu Dec 05 12:48:49 2024,45,-13.752,-13.752,5.001,5.001,5.441,37.947,12.651,7.273,31.230,12.482,2.295,28.561,10.857,8.136,33.871,9.809
Thu Dec 05 12:48:49 2024,50,-13.750,-13.750,5.052,5.052,5.404,37.671,12.458,7.340,31.270,12.472,2.336,28.642,10.884,8.244,33.946,9.824
Thu Dec 05 12:48:49 2024,55,-13.770,-13.770,5.052,5.052,5.336,37.435,12.285,7.320,31.217,12.418,2.313,28.676,10.867,8.248,33.956,9.787
Thu Dec 05 12:48:49 2024,60,-13.792,-13.792,5.042,5.042,5.271,37.232,12.135,7.286,31.153,12.363,2.281,28.697,10.844,8.233,33.952,9.744
Thu Dec 05 12:48:49 2024,65,-13.845,-13.845,5.051,5.051,5.180,37.042,12.039,7.271,31.139,12.326,2.288,28.770,10.839,8.240,33.975,9.726
Thu Dec 05 12:48:49 2024,70,-13.912,-13.912,5.073,5.073,5.088,36.902,12.005,7.275,31.166,12.310,2.323,28.869,10.849,8.262,34.013,9.731
Thu Dec 05 12:48:49 2024,75,-13.982,-13.982,5.064,5.064,5.018,36.793,11.954,7.290,31.228,12.306,2.347,28.972,10.849,8.310,34.076,9.728
Thu Dec 05 12:48:49 2024,80,-14.042,-14.042,5.017,5.017,4.990,36.745,11.889,7.314,31.324,12.317,2.352,29.059,10.836,8.380,34.160,9.716
Thu Dec 05 12:48:49 2024,85,-14.100,-14.100,4.992,4.992,4.958,36.678,11.824,7.327,31.388,12.308,2.349,29.127,10.819,8.427,34.216,9.706
Thu Dec 05 12:48:49 2024,90,-14.134,-14.134,5.059,5.059,4.918,36.556,11.770,7.291,31.311,12.228,2.318,29.107,10.791,8.368,34.164,9.707
Thu Dec 05 12:48:49 2024,95,-14.163,-14.163,5.119,5.119,4.882,36.448,11.722,7.260,31.244,12.158,2.291,29.090,10.765,8.316,34.117,9.708
Thu Dec 05 12:48:49 2024,100,-14.191,-14.191,5.135,5.135,4.894,36.438,11.677,7.289,31.305,12.171,2.318,29.063,10.748,8.359,34.125,9.717
Thu Dec 05 12:48:49 2024,105,-14.217,-14.217,5.144,5.144,4.913,36.444,11.635,7.328,31.385,12.196,2.354,29.035,10.733,8.415,34.141,9.727
Thu Dec 05 12:48:49 2024,110,-14.266,-14.266,5.225,5.225,4.959,36.488,11.692,7.346,31.383,12.246,2.377,29.042,10.773,8.438,34.148,9.730
Thu Dec 05 12:48:49 2024,115,-14.321,-14.321,5.331,5.331,5.015,36.544,11.786,7.353,31.348,12.301,2.394,29.064,10.834,8.444,34.150,9.732
Thu Dec 05 12:48:49 2024,120,-14.358,-14.358,5.422,5.422,5.054,36.546,11.794,7.353,31.310,12.316,2.425,29.061,10.862,8.468,34.194,9.742
Thu Dec 05 12:48:49 2024,125,-14.366,-14.366,5.493,5.493,5.070,36.470,11.681,7.344,31.271,12.274,2.477,29.024,10.843,8.518,34.297,9.768
Thu Dec 05 12:48:49 2024,130,-14.381,-14.381,5.544,5.544,5.079,36.419,11.613,7.323,31.245,12.263,2.522,29.001,10.847,8.558,34.366,9.795
Thu Dec 05 12:48:49 2024,135,-14.405,-14.405,5.549,5.549,5.071,36.420,11.641,7.280,31.250,12.316,2.545,29.011,10.894,8.574,34.362,9.822
Thu Dec 05 12:48:49 2024,140,-14.429,-14.429,5.554,5.554,5.064,36.421,11.669,7.239,31.255,12.367,2.568,29.019,10.941,8.590,34.358,9.849
Thu Dec 05 12:48:49 2024,145,-14.420,-14.420,5.603,5.603,5.080,36.405,11.687,7.297,31.224,12.407,2.687,28.986,10.982,8.639,34.394,9.911
Thu Dec 05 12:48:49 2024,150,-14.408,-14.408,5.652,5.652,5.098,36.389,11.701,7.358,31.194,12.442,2.804,28.953,11.018,8.684,34.430,9.969
Thu Dec 05 12:48:49 2024,155,-14.398,-14.398,5.660,5.660,5.071,36.303,11.640,7.350,31.195,12.423,2.829,28.918,10.988,8.669,34.461,9.969
Thu Dec 05 12:48:49 2024,160,-14.390,-14.390,5.651,5.651,5.033,36.208,11.563,7.316,31.209,12.390,2.815,28.890,10.940,8.633,34.486,9.948
Thu Dec 05 12:48:49 2024,165,-14.394,-14.394,5.608,5.608,4.982,36.106,11.520,7.276,31.197,12.370,2.848,28.941,10.939,8.623,34.517,9.937
Thu Dec 05 12:48:49 2024,170,-14.407,-14.407,5.550,5.550,4.931,36.021,11.514,7.239,31.170,12.366,2.910,29.042,10.974,8.635,34.546,9.936
Thu Dec 05 12:48:49 2024,175,-14.417,-14.417,5.509,5.509,4.871,35.965,11.509,7.218,31.147,12.354,2.968,29.142,11.005,8.633,34.575,9.941
Thu Dec 05 12:48:49 2024,180,-14.416,-14.416,5.534,5.534,4.816,36.006,11.506,7.241,31.146,12.325,2.993,29.189,11.008,8.599,34.590,9.953
Thu Dec 05 12:48:49 2024,185,-14.420,-14.420,5.561,5.561,4.775,36.046,11.514,7.269,31.148,12.303,3.024,29.217,11.003,8.569,34.598,9.959
Thu Dec 05 12:48:49 2024,190,-14.452,-14.452,5.591,5.591,4.825,36.057,11.573,7.309,31.168,12.334,3.072,29.127,10.958,8.576,34.562,9.924
Thu Dec 05 12:48:49 2024,195,-14.483,-14.483,5.622,5.622,4.883,36.064,11.632,7.347,31.185,12.365,3.120,29.030,10.914,8.586,34.525,9.888
Thu Dec 05 12:48:49 2024,200,-14.487,-14.487,5.658,5.658,4.908,36.069,11.630,7.343,31.138,12.335,3.166,29.004,10.908,8.577,34.534,9.907
Thu Dec 05 12:48:49 2024,205,-14.477,-14.477,5.693,5.693,4.916,36.072,11.596,7.320,31.064,12.276,3.210,29.016,10.923,8.560,34.564,9.951
Thu Dec 05 12:48:49 2024,210,-14.501,-14.501,5.762,5.762,4.942,36.120,11.602,7.307,30.972,12.225,3.285,28.992,10.922,8.543,34.542,9.938
Thu Dec 05 12:48:49 2024,215,-14.562,-14.562,5.875,5.875,4.994,36.220,11.646,7.301,30.844,12.169,3.405,28.934,10.906,8.522,34.466,9.871
Thu Dec 05 12:48:49 2024,220,-14.602,-14.602,5.945,5.945,5.022,36.266,11.687,7.287,30.743,12.140,3.493,28.912,10.915,8.507,34.450,9.870
Thu Dec 05 12:48:49 2024,225,-14.630,-14.630,5.987,5.987,5.026,36.243,11.762,7.243,30.609,12.146,3.590,28.947,10.991,8.494,34.542,10.007
Thu Dec 05 12:48:49 2024,230,-14.657,-14.657,6.029,6.029,5.058,36.260,11.840,7.219,30.509,12.158,3.679,28.975,11.054,8.481,34.612,10.113
Thu Dec 05 12:48:49 2024,235,-14.693,-14.693,6.094,6.094,5.266,36.525,11.989,7.290,30.529,12.216,3.779,28.984,11.093,8.461,34.600,10.106
Thu Dec 05 12:48:49 2024,240,-14.730,-14.730,6.159,6.159,5.472,36.788,12.136,7.359,30.550,12.273,3.877,28.994,11.131,8.442,34.587,10.099
Thu Dec 05 12:48:49 2024,245,-14.788,-14.788,6.251,6.251,5.922,37.463,12.631,7.388,30.439,12.340,3.975,29.029,11.228,8.344,34.407,10.100
Thu Dec 05 12:48:49 2024,250,-14.837,-14.837,6.328,6.328,6.316,38.064,13.080,7.403,30.332,12.393,4.050,29.061,11.314,8.253,34.236,10.102
Thu Dec 05 12:48:49 2024,255,-14.856,-14.856,6.395,6.395,6.899,38.931,14.021,7.457,30.220,12.524,4.099,29.080,11.438,8.127,34.047,10.136
Thu Dec 05 12:48:49 2024,260,-14.852,-14.852,6.455,6.455,7.646,40.030,15.386,7.544,30.107,12.719,4.129,29.088,11.595,7.970,33.841,10.195
Thu Dec 05 12:48:49 2024,265,-14.850,-14.850,6.497,6.497,8.189,40.825,16.379,7.606,30.030,12.858,4.150,29.094,11.706,7.857,33.693,10.239
Thu Dec 05 12:48:49 2024,270,-14.849,-14.849,6.530,6.530,8.614,41.445,17.154,7.653,29.971,12.965,4.167,29.099,11.792,7.770,33.579,10.272
Thu Dec 05 12:48:49 2024,275,-14.811,-14.811,6.504,6.504,9.088,43.123,19.664,7.413,29.523,12.121,3.693,28.830,11.178,7.181,33.091,10.036
Thu Dec 05 12:48:49 2024,280,-14.802,-14.802,6.511,6.511,9.518,44.130,21.126,7.346,29.319,11.851,3.518,28.733,10.987,6.904,32.843,9.963
Thu Dec 05 12:48:49 2024,285,-14.796,-14.796,6.517,6.517,9.939,45.106,22.554,7.281,29.126,11.593,3.350,28.641,10.806,6.637,32.605,9.892
Thu Dec 05 12:48:49 2024,290,-14.732,-14.732,6.370,6.370,10.187,46.619,24.952,7.370,29.074,11.383,3.430,28.559,10.740,6.514,32.224,9.768
Thu Dec 05 12:48:49 2024,295,-14.668,-14.668,6.219,6.219,10.315,47.868,27.015,7.480,29.082,11.250,3.563,28.506,10.728,6.470,31.910,9.664
Thu Dec 05 12:48:49 2024,300,-14.718,-14.718,6.155,6.155,10.475,49.491,29.585,7.736,29.345,11.203,3.712,28.490,10.701,6.584,31.805,9.524
Thu Dec 05 12:48:49 2024,305,-14.812,-14.812,6.148,6.148,10.624,50.968,31.955,8.009,29.676,11.205,3.839,28.495,10.673,6.752,31.826,9.393
Thu Dec 05 12:48:49 2024,310,-14.963,-14.963,6.120,6.120,10.879,52.951,35.261,8.320,30.122,11.259,4.014,28.495,10.633,6.966,31.849,9.236
Thu Dec 05 12:48:49 2024,315,-15.163,-15.163,6.071,6.071,11.248,55.263,39.352,8.633,30.646,11.365,4.220,28.488,10.584,7.207,31.870,9.069
Thu Dec 05 12:48:49 2024,320,-15.393,-15.393,6.008,6.008,11.542,57.430,43.647,8.891,31.079,11.540,4.434,28.526,10.575,7.429,31.888,8.937
Thu Dec 05 12:48:49 2024,325,-15.873,-15.873,5.856,5.856,11.651,60.390,51.165,9.093,31.426,12.108,4.808,28.736,10.719,7.718,31.891,8.865
Thu Dec 05 12:48:49 2024,330,-16.401,-16.401,5.669,5.669,11.636,63.519,59.715,9.270,31.766,12.619,5.164,28.977,10.816,8.006,31.914,8.777
Thu Dec 05 12:48:49 2024,335,-17.088,-17.088,5.288,5.288,10.552,66.764,69.184,9.308,32.097,12.703,5.385,29.320,10.612,8.293,32.036,8.558
Thu Dec 05 12:48:49 2024,340,-17.718,-17.718,4.953,4.953,9.612,69.809,77.535,9.347,32.437,12.719,5.562,29.636,10.383,8.538,32.151,8.324
Thu Dec 05 12:48:49 2024,345,-18.121,-18.121,4.822,4.822,9.011,71.572,81.495,9.456,32.866,12.702,5.666,29.868,10.158,8.680,32.212,8.024
Thu Dec 05 12:48:49 2024,350,-18.305,-18.305,4.880,4.880,8.580,71.954,81.442,9.626,33.372,12.653,5.698,30.024,9.935,8.724,32.221,7.666
Thu Dec 05 12:48:49 2024,355,-18.402,-18.402,5.098,5.098,8.839,72.718,81.885,9.765,34.132,12.584,5.618,30.213,9.586,8.809,32.474,7.464
Thu Dec 05 12:48:49 2024,360,-18.422,-18.422,5.440,5.440,9.651,73.770,82.718,9.864,35.089,12.500,5.447,30.430,9.150,8.921,32.924,7.400
Thu Dec 05 12:48:49 2024,365,-18.372,-18.372,5.778,5.778,10.566,75.298,84.409,9.931,35.961,12.480,5.262,30.558,8.834,8.976,33.277,7.509
Thu Dec 05 12:48:49 2024,370,-18.139,-18.139,6.078,6.078,11.652,78.038,88.298,9.918,36.494,12.644,5.053,30.420,8.846,8.874,33.337,8.074
Thu Dec 05 12:48:49 2024,375,-17.921,-17.921,6.388,6.388,12.880,80.831,91.947,9.949,37.068,12.867,4.836,30.276,8.901,8.768,33.356,8.620
Thu Dec 05 12:48:49 2024,380,-17.738,-17.738,6.722,6.722,14.096,83.422,94.728,10.218,37.781,13.331,4.587,30.118,9.162,8.657,33.180,9.040
Thu Dec 05 12:48:49 2024,385,-17.562,-17.562,7.063,7.063,15.497,86.078,97.224,10.518,38.523,13.846,4.331,29.957,9.457,8.545,32.976,9.444
Thu Dec 05 12:48:49 2024,390,-17.363,-17.363,7.232,7.232,16.650,87.710,98.074,10.824,39.407,14.266,4.194,30.160,9.710,8.367,32.677,9.630
Thu Dec 05 12:48:49 2024,395,-17.147,-17.147,7.372,7.372,17.859,89.219,98.596,11.148,40.375,14.692,4.074,30.457,9.974,8.165,32.339,9.778
Thu Dec 05 12:48:49 2024,400,-16.893,-16.893,7.473,7.473,18.803,90.258,98.917,11.334,41.099,15.090,3.967,30.702,10.207,7.912,31.936,9.848
Thu Dec 05 12:48:49 2024,405,-16.580,-16.580,7.550,7.550,19.616,91.020,99.126,11.426,41.707,15.511,3.860,30.931,10.440,7.591,31.434,9.860
Thu Dec 05 12:48:49 2024,410,-16.327,-16.327,7.612,7.612,20.323,91.680,99.234,11.456,42.092,15.804,3.791,31.246,10.716,7.341,31.084,9.943
Thu Dec 05 12:48:49 2024,415,-16.102,-16.102,7.668,7.668,20.963,92.280,99.309,11.467,42.393,16.046,3.737,31.573,10.991,7.124,30.794,10.043
Thu Dec 05 12:48:49 2024,420,-15.938,-15.938,7.722,7.722,21.494,92.762,99.322,11.460,42.566,16.211,3.694,31.885,11.248,6.958,30.590,10.152
Thu Dec 05 12:48:49 2024,425,-15.941,-15.941,7.834,7.834,21.812,92.971,99.221,11.504,42.570,16.296,3.626,32.028,11.408,6.859,30.474,10.194
Thu Dec 05 12:48:49 2024,430,-15.976,-15.976,7.940,7.940,22.111,93.149,99.110,11.554,42.549,16.366,3.558,32.133,11.540,6.774,30.383,10.228
Thu Dec 05 12:48:49 2024,435,-16.039,-16.039,7.895,7.895,22.437,93.378,99.089,11.583,42.563,16.400,3.535,32.112,11.554,6.733,30.410,10.285
Thu Dec 05 12:48:49 2024,440,-16.116,-16.116,7.808,7.808,22.817,93.650,99.082,11.610,42.586,16.431,3.522,32.058,11.541,6.695,30.469,10.353
Thu Dec 05 12:48:49 2024,445,-16.176,-16.176,7.724,7.724,23.077,93.808,99.021,11.626,42.630,16.459,3.587,32.037,11.536,6.641,30.462,10.360
Thu Dec 05 12:48:49 2024,450,-16.226,-16.226,7.644,7.644,23.272,93.906,98.933,11.636,42.683,16.484,3.690,32.032,11.532,6.578,30.423,10.336
Thu Dec 05 12:48:49 2024,455,-16.245,-16.245,7.612,7.612,23.478,94.020,98.829,11.627,42.721,16.518,3.771,32.065,11.568,6.526,30.388,10.340
Thu Dec 05 12:48:49 2024,460,-16.214,-16.214,7.657,7.657,23.707,94.161,98.694,11.588,42.734,16.568,3.824,32.154,11.666,6.489,30.353,10.388
Thu Dec 05 12:48:49 2024,465,-16.198,-16.198,7.682,7.682,23.918,94.283,98.597,11.562,42.757,16.620,3.858,32.224,11.738,6.452,30.316,10.411
Thu Dec 05 12:48:49 2024,470,-16.236,-16.236,7.634,7.634,24.145,94.377,98.621,11.590,42.833,16.702,3.824,32.241,11.728,6.394,30.243,10.330
Thu Dec 05 12:48:49 2024,475,-16.267,-16.267,7.595,7.595,24.329,94.453,98.639,11.612,42.894,16.768,3.797,32.255,11.721,6.348,30.186,10.264
Thu Dec 05 12:48:49 2024,480,-16.242,-16.242,7.611,7.611,24.265,94.321,98.544,11.616,42.796,16.719,3.844,32.290,11.705,6.300,30.164,10.180
Thu Dec 05 12:48:49 2024,485,-16.212,-16.212,7.636,7.636,24.164,94.178,98.448,11.615,42.692,16.657,3.896,32.321,11.691,6.266,30.157,10.114
Thu Dec 05 12:48:49 2024,490,-16.219,-16.219,7.685,7.685,24.204,94.256,98.455,11.625,42.692,16.622,3.912,32.384,11.697,6.251,30.183,10.102
Thu Dec 05 12:48:49 2024,495,-16.247,-16.247,7.749,7.749,24.327,94.465,98.520,11.642,42.754,16.601,3.909,32.469,11.713,6.247,30.228,10.120
Thu Dec 05 12:48:49 2024,500,-16.272,-16.272,7.794,7.794,24.370,94.534,98.560,11.660,42.787,16.611,3.911,32.491,11.722,6.246,30.233,10.119
Thu Dec 05 12:48:49 2024,505,-16.305,-16.305,7.840,7.840,24.340,94.474,98.592,11.686,42.804,16.662,3.918,32.451,11.727,6.247,30.194,10.095
Thu Dec 05 12:48:49 2024,510,-16.320,-16.320,7.866,7.866,24.340,94.454,98.625,11.700,42.828,16.690,3.919,32.440,11.732,6.248,30.180,10.077
Thu Dec 05 12:48:49 2024,515,-16.291,-16.291,7.847,7.847,24.406,94.526,98.660,11.682,42.870,16.666,3.903,32.492,11.738,6.250,30.226,10.074
Thu Dec 05 12:48:49 2024,520,-16.255,-16.255,7.826,7.826,24.473,94.599,98.690,11.663,42.922,16.643,3.881,32.560,11.753,6.250,30.276,10.074
Thu Dec 05 12:48:49 2024,525,-16.187,-16.187,7.814,7.814,24.393,94.526,98.595,11.667,42.992,16.695,3.834,32.692,11.866,6.209,30.264,10.128
Thu Dec 05 12:48:49 2024,530,-16.131,-16.131,7.807,7.807,24.312,94.450,98.506,11.674,43.049,16.744,3.796,32.802,11.965,6.172,30.246,10.176
Thu Dec 05 12:48:49 2024,535,-16.073,-16.073,7.768,7.768,24.340,94.464,98.560,11.674,43.096,16.791,3.774,32.893,12.071,6.105,30.150,10.198
Thu Dec 05 12:48:49 2024,540,-16.032,-16.032,7.724,7.724,24.418,94.523,98.676,11.673,43.122,16.823,3.769,32.944,12.149,6.041,30.041,10.199
Thu Dec 05 12:48:49 2024,545,-15.964,-15.964,7.655,7.655,24.416,94.523,98.662,11.643,43.140,16.858,3.762,33.019,12.223,5.999,29.973,10.219
Thu Dec 05 12:48:49 2024,550,-15.854,-15.854,7.546,7.546,24.310,94.452,98.484,11.574,43.148,16.902,3.753,33.133,12.305,5.975,29.948,10.264
Thu Dec 05 12:48:49 2024,555,-15.782,-15.782,7.476,7.476,24.210,94.388,98.380,11.543,43.160,16.934,3.763,33.251,12.383,5.971,29.931,10.299
Thu Dec 05 12:48:49 2024,560,-15.766,-15.766,7.469,7.469,24.064,94.309,98.414,11.596,43.186,16.954,3.830,33.454,12.503,6.014,29.928,10.327
Thu Dec 05 12:48:49 2024,565,-15.752,-15.752,7.462,7.462,23.944,94.239,98.431,11.631,43.205,16.970,3.874,33.599,12.591,6.048,29.934,10.352
Thu Dec 05 12:48:49 2024,570,-15.695,-15.695,7.433,7.433,23.668,94.025,98.385,11.635,43.228,17.024,3.860,33.745,12.696,6.107,30.041,10.439
Thu Dec 05 12:48:49 2024,575,-15.641,-15.641,7.407,7.407,23.424,93.830,98.336,11.631,43.246,17.072,3.840,33.860,12.782,6.160,30.144,10.520
Thu Dec 05 12:48:49 2024,580,-15.588,-15.588,7.408,7.408,23.034,93.529,98.280,11.626,43.210,17.073,3.860,33.954,12.826,6.258,30.232,10.564
Thu Dec 05 12:48:49 2024,585,-15.534,-15.534,7.418,7.418,22.608,93.196,98.218,11.619,43.162,17.060,3.894,34.043,12.858,6.368,30.318,10.599
Thu Dec 05 12:48:49 2024,590,-15.509,-15.509,7.472,7.472,22.133,92.768,98.134,11.568,43.094,17.037,3.877,34.168,12.884,6.457,30.477,10.628
Thu Dec 05 12:48:49 2024,595,-15.508,-15.508,7.541,7.541,21.755,92.393,98.058,11.503,43.034,17.013,3.835,34.282,12.901,6.509,30.637,10.645
Thu Dec 05 12:48:49 2024,600,-15.520,-15.520,7.645,7.645,21.305,91.952,97.973,11.428,42.961,17.005,3.801,34.385,12.934,6.589,30.815,10.685
Thu Dec 05 12:48:49 2024,605,-15.560,-15.560,7.815,7.815,20.751,91.424,97.881,11.341,42.867,17.032,3.794,34.448,13.003,6.719,31.008,10.770
Thu Dec 05 12:48:49 2024,610,-15.598,-15.598,7.950,7.950,20.241,90.904,97.768,11.274,42.794,17.045,3.790,34.501,13.039,6.846,31.187,10.825
Thu Dec 05 12:48:49 2024,615,-15.643,-15.643,7.981,7.981,19.643,90.168,97.522,11.266,42.788,16.990,3.803,34.523,12.932,7.029,31.381,10.760
Thu Dec 05 12:48:49 2024,620,-15.696,-15.696,7.995,7.995,19.076,89.436,97.256,11.256,42.776,16.929,3.816,34.538,12.812,7.206,31.574,10.687
Thu Dec 05 12:48:49 2024,625,-15.796,-15.796,7.993,7.993,18.552,88.740,96.994,11.151,42.628,16.868,3.798,34.526,12.704,7.321,31.796,10.660
Thu Dec 05 12:48:49 2024,630,-15.930,-15.930,7.986,7.986,17.954,87.924,96.667,11.003,42.419,16.794,3.769,34.507,12.578,7.444,32.070,10.639
Thu Dec 05 12:48:49 2024,635,-16.095,-16.095,7.816,7.816,17.074,86.540,95.761,10.871,42.287,16.620,3.760,34.588,12.401,7.472,32.150,10.436
Thu Dec 05 12:48:49 2024,640,-16.237,-16.237,7.609,7.609,16.307,85.227,94.761,10.778,42.223,16.443,3.764,34.696,12.241,7.450,32.122,10.195
Thu Dec 05 12:48:49 2024,645,-16.453,-16.453,7.366,7.366,15.312,83.486,93.214,10.738,42.140,16.269,3.798,34.736,12.040,7.507,32.174,9.926
Thu Dec 05 12:48:49 2024,650,-16.754,-16.754,7.117,7.117,14.149,81.402,91.040,10.800,42.041,16.147,3.879,34.643,11.813,7.696,32.357,9.671
Thu Dec 05 12:48:49 2024,655,-17.085,-17.085,6.811,6.811,12.866,79.058,88.398,10.847,41.871,16.012,3.963,34.556,11.602,7.878,32.531,9.406
Thu Dec 05 12:48:49 2024,660,-17.252,-17.252,6.418,6.418,11.343,76.966,85.808,10.751,41.366,15.904,4.003,34.596,11.684,7.821,32.472,9.349
Thu Dec 05 12:48:49 2024,665,-17.404,-17.404,6.064,6.064,10.088,75.106,83.412,10.660,40.908,15.809,4.039,34.632,11.758,7.770,32.419,9.298
Thu Dec 05 12:48:49 2024,670,-17.542,-17.542,5.921,5.921,9.854,74.699,83.028,10.666,40.566,15.852,4.205,34.508,11.962,7.808,32.298,9.412
Thu Dec 05 12:48:49 2024,675,-17.709,-17.709,5.764,5.764,9.661,74.338,82.754,10.681,40.156,15.919,4.422,34.342,12.229,7.861,32.143,9.569
Thu Dec 05 12:48:49 2024,680,-17.460,-17.460,5.928,5.928,9.984,72.962,78.545,10.612,39.848,16.143,4.418,33.922,12.331,7.893,32.209,9.686
Thu Dec 05 12:48:49 2024,685,-17.043,-17.043,6.223,6.223,10.732,71.216,72.435,10.513,39.548,16.444,4.345,33.375,12.393,7.917,32.361,9.801
Thu Dec 05 12:48:49 2024,690,-16.381,-16.381,6.558,6.558,11.074,67.867,63.073,10.204,39.088,16.382,3.888,32.916,12.256,7.624,32.344,9.732
Thu Dec 05 12:48:49 2024,695,-15.607,-15.607,6.865,6.865,10.968,63.629,52.662,9.737,38.552,15.943,3.113,32.655,11.931,7.056,32.162,9.485
Thu Dec 05 12:48:49 2024,700,-14.929,-14.929,7.102,7.102,10.873,59.968,44.439,9.290,37.964,15.499,2.422,32.432,11.619,6.551,32.037,9.311
Thu Dec 05 12:48:49 2024,705,-14.506,-14.506,7.086,7.086,10.257,57.112,39.080,8.879,37.174,15.032,1.999,32.261,11.335,6.262,32.080,9.377
Thu Dec 05 12:48:49 2024,710,-14.137,-14.137,7.070,7.070,9.776,54.626,34.701,8.523,36.477,14.609,1.629,32.119,11.087,6.005,32.123,9.440
Thu Dec 05 12:48:49 2024,715,-14.023,-14.023,7.078,7.078,9.404,52.536,31.339,8.172,35.656,14.436,1.540,32.069,11.047,5.953,32.085,9.515
Thu Dec 05 12:48:49 2024,720,-13.929,-13.929,7.090,7.090,9.026,50.225,27.828,7.777,34.702,14.263,1.476,32.024,11.030,5.921,32.030,9.604
Thu Dec 05 12:48:49 2024,725,-13.792,-13.792,7.060,7.060,8.678,48.460,25.017,7.708,34.384,14.151,1.606,31.943,11.001,6.095,32.167,9.577
Thu Dec 05 12:48:49 2024,730,-13.659,-13.659,7.025,7.025,8.375,46.980,22.650,7.712,34.228,14.064,1.766,31.864,10.971,6.297,32.332,9.528
Thu Dec 05 12:48:49 2024,735,-13.562,-13.562,6.984,6.984,7.974,45.444,20.400,7.691,33.977,13.871,1.933,31.737,10.908,6.481,32.509,9.490
Thu Dec 05 12:48:49 2024,740,-13.541,-13.541,6.941,6.941,7.483,44.117,18.694,7.630,33.617,13.548,2.076,31.555,10.802,6.597,32.664,9.481
Thu Dec 05 12:48:49 2024,745,-13.533,-13.533,6.919,6.919,7.062,43.029,17.337,7.577,33.327,13.264,2.199,31.477,10.729,6.703,32.814,9.458
Thu Dec 05 12:48:49 2024,750,-13.567,-13.567,6.937,6.937,6.563,42.007,16.176,7.512,33.046,12.910,2.336,31.633,10.706,6.833,33.033,9.383
Thu Dec 05 12:48:49 2024,755,-13.600,-13.600,6.955,6.955,6.068,40.991,15.027,7.447,32.767,12.558,2.475,31.790,10.682,6.965,33.253,9.308
Thu Dec 05 12:48:49 2024,760,-13.654,-13.654,6.995,6.995,5.529,39.887,14.032,7.344,32.517,12.233,2.546,31.883,10.642,7.040,33.416,9.290
Thu Dec 05 12:48:49 2024,765,-13.701,-13.701,7.031,7.031,5.066,38.934,13.183,7.254,32.301,11.955,2.606,31.962,10.606,7.104,33.555,9.275
Thu Dec 05 12:48:49 2024,770,-13.774,-13.774,7.050,7.050,4.767,38.302,12.717,7.242,32.228,11.828,2.712,32.043,10.576,7.215,33.711,9.278
Thu Dec 05 12:48:49 2024,775,-13.866,-13.866,7.065,7.065,4.470,37.666,12.293,7.252,32.186,11.729,2.849,32.140,10.543,7.360,33.897,9.288
Thu Dec 05 12:48:49 2024,780,-13.948,-13.948,7.139,7.139,4.260,37.176,11.928,7.288,32.199,11.634,2.995,32.225,10.496,7.481,34.003,9.238
Thu Dec 05 12:48:49 2024,785,-14.023,-14.023,7.251,7.251,4.108,36.782,11.602,7.343,32.248,11.543,3.146,32.303,10.440,7.585,34.057,9.149
Thu Dec 05 12:48:49 2024,790,-14.127,-14.127,7.370,7.370,3.901,36.304,11.235,7.390,32.331,11.458,3.264,32.383,10.377,7.676,34.157,9.067
Thu Dec 05 12:48:49 2024,795,-14.232,-14.232,7.465,7.465,3.693,35.865,10.918,7.420,32.428,11.401,3.322,32.445,10.323,7.733,34.275,9.012
Thu Dec 05 12:48:49 2024,800,-14.376,-14.376,7.568,7.568,3.438,35.335,10.563,7.453,32.544,11.340,3.385,32.532,10.266,7.798,34.426,8.951
Thu Dec 05 12:48:49 2024,805,-14.555,-14.555,7.626,7.626,3.244,34.884,10.355,7.501,32.587,11.287,3.527,32.700,10.255,7.884,34.536,8.877
Thu Dec 05 12:48:49 2024,810,-14.734,-14.734,7.679,7.679,3.064,34.459,10.166,7.557,32.644,11.245,3.670,32.863,10.243,7.980,34.637,8.799
Thu Dec 05 12:48:49 2024,815,-14.910,-14.910,7.717,7.717,2.931,34.100,10.017,7.661,32.820,11.259,3.812,32.985,10.206,8.138,34.714,8.692
Thu Dec 05 12:48:49 2024,820,-15.081,-15.081,7.750,7.750,2.816,33.774,9.883,7.776,33.023,11.289,3.949,33.090,10.164,8.308,34.784,8.580
Thu Dec 05 12:48:49 2024,825,-15.240,-15.240,7.781,7.781,2.676,33.448,9.758,7.851,33.146,11.274,4.071,33.179,10.116,8.439,34.876,8.488
Thu Dec 05 12:48:49 2024,830,-15.386,-15.386,7.810,7.810,2.504,33.117,9.639,7.880,33.170,11.203,4.175,33.248,10.058,8.528,35.001,8.418
Thu Dec 05 12:48:49 2024,835,-15.513,-15.513,7.839,7.839,2.356,32.860,9.551,7.902,33.207,11.155,4.278,33.335,10.018,8.617,35.118,8.366
Thu Dec 05 12:48:49 2024,840,-15.622,-15.622,7.873,7.873,2.233,32.688,9.499,7.916,33.266,11.134,4.386,33.453,9.999,8.712,35.232,8.338
Thu Dec 05 12:48:49 2024,845,-15.730,-15.730,7.904,7.904,2.101,32.490,9.433,7.931,33.326,11.113,4.497,33.559,9.979,8.808,35.338,8.309
Thu Dec 05 12:48:49 2024,850,-15.758,-15.758,7.897,7.897,1.996,32.252,9.322,7.936,33.352,11.102,4.544,33.522,9.967,8.844,35.329,8.285
Thu Dec 05 12:48:49 2024,855,-15.774,-15.774,7.886,7.886,1.902,32.025,9.211,7.940,33.373,11.094,4.581,33.469,9.956,8.870,35.306,8.264
Thu Dec 05 12:48:49 2024,860,-15.760,-15.760,7.891,7.891,1.789,31.717,9.128,7.911,33.336,11.121,4.509,33.240,9.911,8.862,35.227,8.248
Thu Dec 05 12:48:49 2024,865,-15.741,-15.741,7.901,7.901,1.673,31.394,9.052,7.873,33.286,11.156,4.410,32.969,9.859,8.846,35.135,8.235
Thu Dec 05 12:48:49 2024,870,-15.787,-15.787,7.918,7.918,1.609,31.211,9.001,7.890,33.347,11.182,4.314,32.769,9.785,8.907,35.080,8.213
Thu Dec 05 12:48:49 2024,875,-15.887,-15.887,7.941,7.941,1.586,31.139,8.969,7.951,33.500,11.202,4.216,32.624,9.694,9.032,35.056,8.186
Thu Dec 05 12:48:49 2024,880,-15.958,-15.958,7.954,7.954,1.543,30.965,8.900,7.994,33.632,11.236,4.108,32.458,9.631,9.128,35.028,8.154
Thu Dec 05 12:48:49 2024,885,-15.994,-15.994,7.949,7.949,1.464,30.607,8.765,8.013,33.748,11.294,3.967,32.240,9.605,9.187,34.992,8.114
Thu Dec 05 12:48:49 2024,890,-16.022,-16.022,7.945,7.945,1.403,30.333,8.662,8.028,33.835,11.338,3.860,32.074,9.584,9.233,34.965,8.082
Thu Dec 05 12:48:49 2024,895,-16.046,-16.046,7.942,7.942,1.352,30.099,8.574,8.040,33.910,11.376,3.768,31.932,9.567,9.272,34.942,8.056
Thu Dec 05 12:48:49 2024,900,-16.056,-16.056,7.940,7.940,1.329,29.993,8.534,8.045,33.945,11.394,3.727,31.867,9.558,9.288,34.931,8.044
Thu Dec 05 12:48:49 2024,905,-16.383,-16.383,8.192,8.192,1.080,29.390,8.342,8.103,34.208,11.532,3.680,31.330,9.300,9.500,34.584,7.740
Thu Dec 05 12:48:49 2024,910,-16.493,-16.493,8.267,8.267,0.981,29.103,8.245,8.126,34.322,11.591,3.624,31.103,9.213,9.581,34.473,7.636
Thu Dec 05 12:48:49 2024,915,-16.620,-16.620,8.311,8.311,0.883,28.818,8.152,8.146,34.408,11.626,3.626,30.920,9.130,9.683,34.368,7.533
Thu Dec 05 12:48:49 2024,920,-16.719,-16.719,8.325,8.325,0.815,28.617,8.087,8.159,34.455,11.639,3.658,30.815,9.073,9.766,34.299,7.459
Thu Dec 05 12:48:49 2024,925,-16.825,-16.825,8.338,8.338,0.730,28.403,7.986,8.200,34.579,11.678,3.686,30.652,8.974,9.846,34.201,7.350
Thu Dec 05 12:48:49 2024,930,-16.898,-16.898,8.344,8.344,0.653,28.260,7.869,8.272,34.779,11.741,3.694,30.464,8.852,9.886,34.097,7.227
Thu Dec 05 12:48:49 2024,935,-16.973,-16.973,8.350,8.350,0.575,28.113,7.749,8.344,34.983,11.806,3.701,30.272,8.726,9.928,33.991,7.101
Thu Dec 05 12:48:49 2024,940,-16.963,-16.963,8.373,8.373,0.429,27.910,7.735,8.307,34.971,11.817,3.647,30.174,8.729,9.924,33.925,7.130
Thu Dec 05 12:48:49 2024,945,-16.964,-16.964,8.392,8.392,0.300,27.712,7.709,8.282,34.986,11.831,3.593,30.054,8.715,9.921,33.840,7.135
Thu Dec 05 12:48:49 2024,950,-16.992,-16.992,8.385,8.385,0.274,27.609,7.668,8.299,35.056,11.837,3.549,29.913,8.652,9.907,33.712,7.063
Thu Dec 05 12:48:49 2024,955,-17.032,-17.032,8.369,8.369,0.277,27.526,7.617,8.330,35.150,11.840,3.504,29.754,8.569,9.888,33.560,6.962
Thu Dec 05 12:48:49 2024,960,-17.029,-17.029,8.368,8.368,0.297,27.532,7.585,8.377,35.225,11.814,3.489,29.572,8.458,9.861,33.411,6.830
Thu Dec 05 12:48:49 2024,965,-16.989,-16.989,8.379,8.379,0.337,27.617,7.565,8.444,35.294,11.760,3.496,29.344,8.307,9.821,33.242,6.652
Thu Dec 05 12:48:49 2024,970,-16.962,-16.962,8.398,8.398,0.376,27.680,7.558,8.500,35.357,11.725,3.488,29.157,8.197,9.746,33.069,6.541
Thu Dec 05 12:48:49 2024,975,-16.952,-16.952,8.423,8.423,0.408,27.717,7.569,8.536,35.399,11.712,3.469,29.047,8.150,9.642,32.920,6.524
Thu Dec 05 12:48:49 2024,980,-16.941,-16.941,8.450,8.450,0.441,27.755,7.581,8.572,35.444,11.698,3.449,28.934,8.102,9.534,32.766,6.505
Thu Dec 05 12:48:49 2024,985,-16.947,-16.947,8.379,8.379,0.510,27.791,7.541,8.653,35.665,11.703,3.428,28.716,7.977,9.551,32.627,6.329
Thu Dec 05 12:48:49 2024,990,-16.956,-16.956,8.335,8.335,0.577,27.810,7.500,8.738,35.894,11.714,3.398,28.492,7.851,9.550,32.451,6.155
Thu Dec 05 12:48:49 2024,995,-16.976,-16.976,8.414,8.414,0.586,27.700,7.455,8.788,36.056,11.763,3.349,28.416,7.802,9.552,32.279,6.063
Thu Dec 05 12:48:50 2024,0,-16.998,-16.998,8.511,8.511,0.589,27.571,7.408,8.835,36.220,11.818,3.296,28.350,7.759,9.555,32.102,5.974
Thu Dec 05 12:48:50 2024,5,-17.036,-17.036,8.575,8.575,0.554,27.452,7.358,8.917,36.538,11.932,3.219,28.259,7.747,9.604,31.978,5.910
Thu Dec 05 12:48:50 2024,10,-17.077,-17.077,8.618,8.618,0.508,27.352,7.315,9.003,36.881,12.055,3.141,28.170,7.750,9.668,31.896,5.866
Thu Dec 05 12:48:50 2024,15,-17.142,-17.142,8.674,8.674,0.487,27.139,7.272,9.136,37.274,12.228,3.072,28.066,7.749,9.704,31.728,5.778
Thu Dec 05 12:48:50 2024,20,-17.221,-17.221,8.736,8.736,0.493,26.847,7.238,9.295,37.648,12.423,3.025,27.964,7.747,9.703,31.505,5.660
Thu Dec 05 12:48:50 2024,25,-17.304,-17.304,8.796,8.796,0.485,26.572,7.194,9.481,38.137,12.666,2.970,27.898,7.741,9.713,31.278,5.507
Thu Dec 05 12:48:50 2024,30,-17.357,-17.357,8.826,8.826,0.453,26.456,7.154,9.631,38.609,12.887,2.928,27.928,7.732,9.738,31.140,5.361
Thu Dec 05 12:48:50 2024,35,-17.410,-17.410,8.855,8.855,0.422,26.340,7.112,9.786,39.088,13.111,2.886,27.959,7.722,9.763,31.007,5.212
Thu Dec 05 12:48:50 2024,40,-17.410,-17.410,8.864,8.864,0.484,26.301,7.014,9.974,39.642,13.281,2.923,28.328,7.764,9.819,30.935,5.060
Thu Dec 05 12:48:50 2024,45,-17.404,-17.404,8.869,8.869,0.547,26.275,6.921,10.145,40.140,13.426,2.963,28.690,7.808,9.870,30.881,4.923
Thu Dec 05 12:48:50 2024,50,-17.371,-17.371,8.843,8.843,0.569,26.166,6.875,10.293,40.469,13.585,2.898,28.932,7.866,9.860,30.733,4.800
Thu Dec 05 12:48:50 2024,55,-17.332,-17.332,8.810,8.810,0.583,26.036,6.836,10.447,40.785,13.756,2.809,29.170,7.931,9.838,30.567,4.672
Thu Dec 05 12:48:50 2024,60,-17.312,-17.312,8.860,8.860,0.620,26.054,6.825,10.555,41.067,13.877,2.778,29.369,7.950,9.820,30.465,4.526
Thu Dec 05 12:48:50 2024,65,-17.298,-17.298,8.983,8.983,0.682,26.179,6.829,10.672,41.424,14.006,2.776,29.610,7.944,9.799,30.369,4.319
Thu Dec 05 12:48:50 2024,70,-17.263,-17.263,9.073,9.073,0.736,26.265,6.840,10.754,41.732,14.156,2.746,29.800,7.968,9.792,30.307,4.206
Thu Dec 05 12:48:50 2024,75,-17.200,-17.200,9.115,9.115,0.774,26.295,6.857,10.786,41.962,14.329,2.681,29.913,8.032,9.804,30.291,4.222
Thu Dec 05 12:48:50 2024,80,-17.133,-17.133,9.152,9.152,0.820,26.337,6.876,10.815,42.191,14.509,2.617,30.031,8.097,9.825,30.284,4.243
Thu Dec 05 12:48:50 2024,85,-17.108,-17.108,9.183,9.183,0.923,26.534,6.894,10.855,42.360,14.588,2.656,30.200,8.086,9.888,30.313,4.139
Thu Dec 05 12:48:50 2024,90,-17.089,-17.089,9.206,9.206,1.001,26.683,6.907,10.885,42.487,14.647,2.686,30.328,8.078,9.936,30.337,4.061
Thu Dec 05 12:48:50 2024,95,-17.073,-17.073,9.250,9.250,1.095,26.868,7.004,10.932,42.572,14.801,2.731,30.341,8.125,10.002,30.350,4.059
Thu Dec 05 12:48:50 2024,100,-17.060,-17.060,9.296,9.296,1.185,27.046,7.120,10.981,42.635,14.970,2.775,30.315,8.185,10.066,30.363,4.081
Thu Dec 05 12:48:50 2024,105,-17.074,17.074,9.323,9.323,1.242,27.220,7.200,11.027,42.778,15.119,2.825,30.357,8.228,10.166,30.417,4.038
Thu Dec 05 12:48:50 2024,110,-17.104,17.104,9.334,9.334,1.270,27.373,7.249,11.066,42.960,15.241,2.875,30.439,8.256,10.280,9.505,3.955
Thu Dec 05 12:48:50 2024,115,-17.113,17.113,9.320,9.320,1.279,27.491,7.276,11.101,43.142,15.362,2.915,30.602,8.313,10.408,9.398,3.915
Thu Dec 05 12:48:50 2024,120,-17.093,17.093,9.267,9.267,1.262,27.586,7.280,11.140,43.369,15.513,2.951,30.924,8.428,10.589,9.227,3.924
Thu Dec 05 12:48:50 2024,125,-17.067,17.067,9.211,9.211,1.235,27.644,7.286,11.168,43.586,15.674,2.976,31.228,8.548,10.758,9.073,3.927
Thu Dec 05 12:48:50 2024,130,-17.013,-17.013,9.149,9.149,1.162,27.505,7.308,11.145,43.737,15.869,2.954,31.410,8.690,10.848,9.024,3.901
Thu Dec 05 12:48:50 2024,135,-16.966,-16.966,9.094,9.094,1.098,27.385,7.327,11.125,43.868,16.038,2.934,31.568,8.813,10.928,8.976,3.879
Thu Dec 05 12:48:50 2024,140,-16.949,-16.949,9.070,9.070,1.083,27.314,7.306,11.163,44.020,16.213,2.956,31.737,8.936,11.104,8.826,3.826
Thu Dec 05 12:48:50 2024,145,-16.943,-16.943,9.060,9.060,1.083,27.273,7.284,11.203,44.133,16.339,2.981,31.860,9.023,11.251,8.695,3.782
Thu Dec 05 12:48:50 2024,150,-16.926,-16.926,9.100,9.100,1.075,27.283,7.306,11.210,44.294,16.500,2.938,32.066,9.150,11.406,8.549,3.768
Thu Dec 05 12:48:50 2024,155,-16.909,-16.909,9.151,9.151,1.064,27.310,7.341,11.201,44.439,16.640,2.878,32.263,9.266,11.532,8.428,3.770
Thu Dec 05 12:48:50 2024,160,-16.915,-16.915,9.209,9.209,1.078,27.344,7.391,11.219,44.631,16.846,2.866,32.445,9.391,11.658,8.312,3.739
Thu Dec 05 12:48:50 2024,165,-16.953,16.953,9.271,9.271,1.124,27.382,7.459,11.274,44.872,17.124,2.924,32.590,9.516,11.772,8.213,3.665
Thu Dec 05 12:48:50 2024,170,-16.996,16.996,9.383,9.383,1.174,27.448,7.522,11.335,45.216,17.450,3.000,32.771,9.656,11.887,8.106,3.615
Thu Dec 05 12:48:50 2024,175,-17.040,17.040,9.599,9.599,1.224,27.572,7.559,11.391,45.754,17.818,3.100,32.999,9.794,11.968,8.024,3.646
Thu Dec 05 12:48:50 2024,180,-17.079,17.079,9.796,9.796,1.269,27.685,7.594,11.442,46.245,18.152,3.191,33.208,9.921,12.043,7.949,3.675
Thu Dec 05 12:48:50 2024,185,-17.069,17.069,10.053,10.053,1.152,27.714,7.644,11.359,46.703,18.593,3.213,33.650,10.135,12.015,7.983,3.659
Thu Dec 05 12:48:50 2024,190,-17.056,17.056,10.276,10.276,1.035,27.731,7.689,11.273,47.089,18.979,3.222,34.049,10.326,11.981,8.019,3.640
Thu Dec 05 12:48:50 2024,195,-17.174,17.174,10.548,10.548,0.962,27.758,7.768,11.268,47.540,19.430,3.188,34.432,10.500,11.976,8.024,3.604
Thu Dec 05 12:48:50 2024,200,-17.333,17.333,10.836,10.836,0.900,27.787,7.857,11.289,48.016,19.907,3.141,34.813,10.671,11.980,8.020,3.562
Thu Dec 05 12:48:50 2024,205,-17.504,17.504,11.139,11.139,0.834,27.808,7.938,11.293,48.366,20.400,3.071,35.322,10.924,12.007,7.992,3.575
Thu Dec 05 12:48:50 2024,210,-17.672,17.672,11.430,11.430,0.771,27.822,8.005,11.283,48.592,20.871,2.988,35.889,11.220,12.049,7.949,3.628
Thu Dec 05 12:48:50 2024,215,-17.825,17.825,11.697,11.697,0.712,27.835,8.067,11.274,48.801,21.307,2.912,36.412,11.495,12.088,7.909,3.677
Thu Dec 05 12:48:50 2024,220,-18.080,18.080,11.879,11.879,0.564,27.799,8.230,11.371,49.223,21.921,2.805,36.914,11.704,12.274,7.724,3.701
Thu Dec 05 12:48:50 2024,225,-18.293,18.293,12.035,12.035,0.449,27.766,8.358,11.446,49.578,22.464,2.714,37.364,11.898,12.421,7.578,3.736
Thu Dec 05 12:48:50 2024,230,-18.433,18.433,12.053,12.053,0.411,27.652,8.409,11.506,49.870,23.031,2.645,37.773,12.083,12.519,7.481,3.878
Thu Dec 05 12:48:50 2024,235,-18.567,18.567,12.060,12.060,0.379,27.534,8.454,11.564,50.154,23.594,2.579,38.170,12.263,12.611,7.389,4.023
Thu Dec 05 12:48:50 2024,240,-18.625,18.625,11.973,11.973,0.398,27.497,8.527,11.674,50.516,24.203,2.557,38.686,12.367,12.723,7.275,4.113
Thu Dec 05 12:48:50 2024,245,-18.650,18.650,11.865,11.865,0.433,27.492,8.602,11.788,50.862,24.760,2.551,39.180,12.430,12.828,7.167,4.173
Thu Dec 05 12:48:50 2024,250,-18.629,18.629,11.761,11.761,0.447,27.452,8.667,11.950,51.269,25.441,2.539,39.587,12.551,12.879,7.111,4.308
Thu Dec 05 12:48:50 2024,255,-18.577,18.577,11.682,11.682,0.443,27.393,8.710,12.113,51.638,26.078,2.525,39.846,12.692,12.879,7.104,4.472
Thu Dec 05 12:48:50 2024,260,-18.498,18.498,11.599,11.599,0.466,27.316,8.762,12.249,52.070,26.844,2.510,40.106,12.870,12.941,7.029,4.700
Thu Dec 05 12:48:50 2024,265,-18.376,18.376,11.525,11.525,0.546,27.214,8.826,12.302,52.560,27.751,2.496,40.326,13.094,13.122,6.821,5.025
Thu Dec 05 12:48:50 2024,270,-18.248,18.248,11.455,11.455,0.627,27.068,8.933,12.368,53.061,28.775,2.483,40.583,13.322,13.294,6.619,5.357
Thu Dec 05 12:48:50 2024,275,-18.122,18.122,11.430,11.430,0.700,26.719,9.243,12.499,53.468,30.108,2.482,40.970,13.506,13.384,6.530,5.616
Thu Dec 05 12:48:50 2024,280,-18.009,-18.009,11.408,11.408,0.769,26.406,9.523,12.623,53.844,31.362,2.478,41.318,13.669,13.467,6.449,5.854
Thu Dec 05 12:48:50 2024,285,-17.947,-17.947,11.458,11.458,0.933,26.385,10.233,12.932,53.359,31.344,2.519,41.659,13.736,13.190,6.756,6.186
Thu Dec 05 12:48:50 2024,290,-17.887,-17.887,11.524,11.524,1.128,26.404,11.094,13.323,52.700,31.101,2.567,42.038,13.799,12.832,7.143,6.585
Thu Dec 05 12:48:50 2024,295,-17.763,-17.763,11.551,11.551,0.921,26.480,11.381,15.004,51.307,29.978,2.106,42.236,13.824,12.382,7.598,7.124
Thu Dec 05 12:48:50 2024,300,-17.554,-17.554,11.561,11.561,0.352,26.655,11.337,18.278,49.348,27.339,1.321,42.412,13.827,11.701,8.274,7.958
Thu Dec 05 12:48:50 2024,305,-17.405,-17.405,11.688,11.688,0.151,26.848,11.338,20.696,48.784,25.259,-1.216,42.630,13.950,11.091,8.884,8.371
Thu Dec 05 12:48:50 2024,310,-17.234,-17.234,12.177,12.177,0.313,27.184,11.458,23.383,49.496,23.464,-1.470,43.078,14.460,10.076,9.912,8.248
Thu Dec 05 12:48:50 2024,315,-17.089,-17.089,12.584,12.584,0.454,27.473,11.550,25.627,50.285,21.924,-1.861,43.480,14.892,9.204,10.792,8.189
Thu Dec 05 12:48:50 2024,320,-17.343,-17.343,12.550,12.550,0.424,28.280,12.007,24.949,51.193,23.094,-2.017,44.608,14.939,8.895,11.067,7.428
Thu Dec 05 12:48:50 2024,325,-17.524,-17.524,12.542,12.542,0.414,28.890,12.358,24.538,52.028,23.951,-2.150,45.460,15.000,8.633,11.281,6.883
Thu Dec 05 12:48:50 2024,330,-17.603,-17.603,12.394,12.394,0.599,29.123,12.638,24.624,53.683,25.567,-2.254,45.912,15.532,8.639,11.278,6.646
Thu Dec 05 12:48:50 2024,335,-17.651,-17.651,12.207,12.207,0.848,29.250,12.899,24.847,55.632,27.547,-2.349,46.245,16.222,8.722,11.213,6.501
Thu Dec 05 12:48:50 2024,340,-17.705,-17.705,12.080,12.080,1.133,29.276,13.218,25.079,57.162,29.514,-2.408,46.334,17.140,8.875,11.094,6.590
Thu Dec 05 12:48:50 2024,345,-17.767,-17.767,11.985,11.985,1.471,29.237,13.608,25.339,58.495,31.644,-2.445,46.253,18.315,9.093,10.903,6.859
Thu Dec 05 12:48:50 2024,350,-17.813,-17.813,11.909,11.909,1.726,29.211,13.913,25.581,59.467,33.260,-2.487,46.203,19.242,9.252,10.745,7.050
Thu Dec 05 12:48:50 2024,355,-17.850,-17.850,11.823,11.823,1.960,29.168,14.223,25.990,60.173,34.607,-2.573,46.194,20.178,9.374,10.602,7.174
Thu Dec 05 12:48:50 2024,360,-17.887,-17.887,11.740,11.740,2.193,29.134,14.529,26.378,60.899,36.012,-2.655,46.183,21.127,9.498,10.434,7.305
Thu Dec 05 12:48:50 2024,365,-17.923,-17.923,11.443,11.443,2.358,29.020,14.706,26.759,61.719,37.331,-2.825,46.374,21.795,9.429,10.458,7.480
Thu Dec 05 12:48:50 2024,370,-17.959,-17.959,11.164,11.164,2.534,28.917,14.903,27.157,62.557,38.758,-2.993,46.552,22.543,9.380,10.449,7.659
Thu Dec 05 12:48:50 2024,375,-17.989,-17.989,11.044,11.044,2.792,29.128,15.269,27.608,63.578,40.284,-3.152,46.942,23.324,9.282,10.456,7.601
Thu Dec 05 12:48:50 2024,380,-18.012,-18.012,10.962,10.962,3.028,29.356,15.612,28.020,64.505,41.683,-3.288,47.314,24.047,9.188,10.450,7.522
Thu Dec 05 12:48:50 2024,385,-17.920,-17.920,10.780,10.780,3.248,29.767,16.005,28.316,65.407,43.138,-3.437,47.843,24.894,9.219,10.375,7.544
Thu Dec 05 12:48:50 2024,390,-17.803,-17.803,10.603,10.603,3.405,30.151,16.321,28.490,66.074,44.259,-3.556,48.307,25.593,9.295,10.293,7.603
Thu Dec 05 12:48:50 2024,395,-17.738,-17.738,10.506,10.506,3.559,30.552,16.684,28.654,66.697,45.303,-3.706,48.826,26.407,9.344,10.225,7.673
Thu Dec 05 12:48:50 2024,400,-17.740,-17.740,10.513,10.513,3.694,30.933,17.065,28.791,67.206,46.149,-3.880,49.359,27.276,9.360,10.177,7.747
Thu Dec 05 12:48:50 2024,405,-17.747,-17.747,10.535,10.535,3.849,31.384,17.498,28.881,67.710,47.104,-4.037,49.934,28.217,9.411,10.108,7.860
Thu Dec 05 12:48:50 2024,410,-17.764,-17.764,10.589,10.589,3.994,31.824,17.877,28.806,67.977,47.907,-4.074,50.362,28.873,9.534,10.016,8.024
Thu Dec 05 12:48:50 2024,415,-17.783,-17.783,10.637,10.637,4.112,32.195,18.191,28.747,68.224,48.619,-4.120,50.744,29.466,9.627,9.943,8.162
Thu Dec 05 12:48:50 2024,420,-17.818,-17.818,10.670,10.670,4.137,32.339,18.271,28.767,68.432,49.090,-4.216,51.007,29.898,9.587,9.952,8.216
