Timestamp,Millis,thumb_tm_aa,thumb_tm_flex,thumb_mcp_aa,thumb_mcp_flex,index_mcp_aa,index_mcp_flex,index_pip,middle_mcp_aa,middle_mcp_flex,middle_pip,ring_mcp_aa,ring_mcp_flex,ring_pip,little_mcp_aa,little_mcp_flex,little_pip
Thu Dec 05 12:51:15 2024,900,-12.094,-12.094,-6.158,6.158,4.882,39.632,33.249,9.674,38.894,30.837,8.178,32.456,29.767,-2.049,32.565,21.994
Thu Dec 05 12:51:15 2024,905,-14.280,-14.280,0.145,6.185,5.159,41.164,36.572,12.000,42.398,32.668,10.244,34.158,30.368,-1.161,30.298,22.196
Thu Dec 05 12:51:15 2024,910,-16.728,-16.728,7.140,7.140,4.710,41.554,37.852,12.584,43.570,32.906,10.740,34.370,30.335,-0.816,29.801,22.050
Thu Dec 05 12:51:15 2024,915,-19.531,-19.531,8.250,8.250,4.190,41.910,39.078,13.093,44.665,33.051,11.180,34.528,30.286,-0.483,29.384,21.885
Thu Dec 05 12:51:15 2024,920,-20.983,-20.983,9.151,9.151,4.092,42.083,38.441,12.565,44.790,31.648,10.957,34.742,29.279,-0.095,28.809,20.536
Thu Dec 05 12:51:15 2024,925,-22.263,-22.263,9.924,9.924,4.004,42.234,37.955,12.145,44.928,30.501,10.784,34.937,28.460,0.274,28.345,19.461
Thu Dec 05 12:51:15 2024,930,-23.699,-23.699,10.760,10.760,4.180,42.389,37.353,11.880,44.849,29.445,10.446,34.914,27.350,0.763,27.814,18.395
Thu Dec 05 12:51:15 2024,935,-24.965,-24.965,11.497,11.497,4.393,42.527,36.828,11.694,44.739,28.574,10.127,34.863,26.352,1.212,27.366,17.494
Thu Dec 05 12:51:15 2024,940,-25.903,-25.903,12.278,12.278,4.376,42.376,35.741,11.439,44.604,27.655,9.841,34.900,25.345,1.454,27.105,16.609
Thu Dec 05 12:51:15 2024,945,-26.499,-26.499,12.971,12.971,4.218,42.077,34.502,11.185,44.483,26.859,9.625,34.996,24.498,1.538,26.989,15.877
Thu Dec 05 12:51:15 2024,950,-26.883,-26.883,13.585,13.585,4.036,41.899,33.408,10.910,44.444,26.141,9.426,35.101,23.701,1.676,27.159,15.300
Thu Dec 05 12:51:15 2024,955,-27.084,-27.084,14.220,14.220,3.794,41.846,32.309,10.564,44.512,25.403,9.219,35.248,22.834,1.916,27.715,14.810
Thu Dec 05 12:51:15 2024,960,-27.289,-27.289,14.856,14.856,3.553,41.800,31.230,10.227,44.594,24.680,9.022,35.412,21.989,2.162,28.266,14.329
Thu Dec 05 12:51:15 2024,965,-27.338,-27.338,15.180,15.180,2.946,41.513,29.386,9.914,44.752,23.654,8.440,35.481,20.612,2.723,29.034,13.093
Thu Dec 05 12:51:15 2024,970,-27.368,-27.368,15.468,15.468,2.487,41.283,27.982,9.658,44.848,22.882,7.980,35.558,19.600,3.112,29.566,12.155
Thu Dec 05 12:51:15 2024,975,-27.207,-27.207,15.666,15.666,1.979,40.846,26.676,9.362,44.736,22.278,7.322,35.543,18.860,3.249,29.670,11.174
Thu Dec 05 12:51:15 2024,980,-27.062,-27.062,15.846,15.846,1.534,40.452,25.507,9.098,44.628,21.749,6.720,35.554,18.212,3.357,29.734,10.294
Thu Dec 05 12:51:15 2024,985,-26.842,-26.842,15.872,15.872,1.539,40.286,24.507,8.934,44.207,21.071,6.054,35.476,17.531,3.715,29.884,9.597
Thu Dec 05 12:51:15 2024,990,-26.603,-26.603,15.874,15.874,1.656,40.168,23.495,8.788,43.689,20.323,5.342,35.401,16.803,4.156,30.074,8.905
Thu Dec 05 12:51:15 2024,995,-26.393,-26.393,16.023,16.023,1.785,39.817,23.002,8.585,42.947,19.818,4.690,35.187,16.235,4.239,29.564,8.366
Thu Dec 05 12:51:16 2024,0,-26.204,-26.204,16.225,16.225,1.920,39.397,22.697,8.368,42.145,19.406,4.070,34.942,15.732,4.199,28.836,7.891
Thu Dec 05 12:51:16 2024,5,-25.963,-25.963,16.289,16.289,2.113,39.029,22.292,8.265,41.483,19.032,3.571,34.626,15.230,4.403,28.331,7.521
Thu Dec 05 12:51:16 2024,10,-25.715,-25.715,16.238,16.238,2.329,38.757,21.865,8.270,41.026,18.739,3.238,34.288,14.800,4.775,28.099,7.286
Thu Dec 05 12:51:16 2024,15,-25.488,-25.488,16.227,16.227,2.484,38.461,21.461,8.194,40.560,18.456,2.904,33.972,14.370,5.120,27.984,7.109
Thu Dec 05 12:51:16 2024,20,-25.315,-25.315,16.325,16.325,2.476,38.090,21.121,7.900,40.058,18.202,2.554,33.704,13.934,5.400,28.083,7.084
Thu Dec 05 12:51:16 2024,25,-25.149,-25.149,16.362,16.362,2.451,37.763,20.779,7.630,39.596,17.974,2.291,33.486,13.574,5.643,28.196,7.074
Thu Dec 05 12:51:16 2024,30,-24.921,-24.921,16.134,16.134,2.337,37.483,20.275,7.357,39.108,17.769,2.313,33.367,13.382,5.829,28.391,7.131
Thu Dec 05 12:51:16 2024,35,-24.690,-24.690,15.894,15.894,2.218,37.201,19.754,7.080,38.607,17.563,2.353,33.252,13.198,6.014,28.596,7.196
Thu Dec 05 12:51:16 2024,40,-24.437,-24.437,15.767,15.767,2.070,36.833,19.268,6.933,38.288,17.230,2.430,33.196,12.924,6.044,28.622,7.071
Thu Dec 05 12:51:16 2024,45,-24.215,-24.215,15.668,15.668,1.936,36.500,18.839,6.811,38.016,16.926,2.502,33.151,12.674,6.060,28.632,6.946
Thu Dec 05 12:51:16 2024,50,-23.814,-23.814,15.398,15.398,1.970,36.183,18.586,6.739,37.686,16.853,2.506,33.009,12.598,6.165,28.702,6.957
Thu Dec 05 12:51:16 2024,55,-23.386,-23.386,15.096,15.096,2.051,35.886,18.396,6.685,37.353,16.850,2.490,32.847,12.577,6.291,28.788,7.007
Thu Dec 05 12:51:16 2024,60,-22.911,-22.911,14.826,14.826,2.203,35.424,18.166,6.694,36.882,16.723,2.354,32.479,12.491,6.308,28.683,7.094
Thu Dec 05 12:51:16 2024,65,-22.487,-22.487,14.606,14.606,2.361,34.964,17.954,6.725,36.426,16.567,2.193,32.086,12.392,6.281,28.522,7.183
Thu Dec 05 12:51:16 2024,70,-21.984,-21.984,14.335,14.335,2.593,34.439,17.677,6.799,35.935,16.312,1.961,31.601,12.213,6.251,28.326,7.327
Thu Dec 05 12:51:16 2024,75,-21.608,-21.608,14.103,14.103,2.825,34.111,17.437,6.900,35.677,16.035,1.749,31.255,11.988,6.260,28.214,7.490
Thu Dec 05 12:51:16 2024,80,-21.260,-21.260,13.889,13.889,3.044,33.813,17.213,6.995,35.442,15.778,1.552,30.934,11.780,6.268,28.112,7.642
Thu Dec 05 12:51:16 2024,85,-20.913,-20.913,13.742,13.742,3.163,33.058,16.964,6.945,34.704,15.572,1.505,30.282,11.747,6.333,27.913,7.987
Thu Dec 05 12:51:16 2024,90,-20.620,-20.620,13.618,13.618,3.272,32.422,16.752,6.908,34.085,15.399,1.464,29.723,11.714,6.389,27.756,8.282
Thu Dec 05 12:51:16 2024,95,-20.516,-20.516,13.476,13.476,3.375,31.951,16.599,6.920,33.631,15.571,1.443,28.746,11.645,6.395,27.453,8.267
Thu Dec 05 12:51:16 2024,100,-20.440,-20.440,13.369,13.369,3.453,31.593,16.486,6.929,33.284,15.703,1.425,27.993,11.590,6.397,27.240,8.257
Thu Dec 05 12:51:16 2024,105,-20.362,-20.362,13.231,13.231,3.351,30.983,16.152,6.736,32.718,15.698,1.392,27.365,11.545,6.209,26.816,8.115
Thu Dec 05 12:51:16 2024,110,-20.312,-20.312,13.130,13.130,3.219,30.491,15.858,6.538,32.267,15.646,1.366,26.996,11.519,6.017,26.470,7.974
Thu Dec 05 12:51:16 2024,115,-20.309,-20.309,13.102,13.102,3.085,30.025,15.578,6.274,31.748,15.478,1.310,26.686,11.481,5.940,26.259,7.938
Thu Dec 05 12:51:16 2024,120,-20.353,-20.353,13.153,13.153,2.973,29.676,15.370,5.998,31.267,15.235,1.234,26.498,11.442,5.990,26.220,8.009
Thu Dec 05 12:51:16 2024,125,-20.356,-20.356,13.194,13.194,2.893,29.481,15.218,5.781,30.874,15.020,1.185,26.418,11.416,6.043,26.225,8.079
Thu Dec 05 12:51:16 2024,130,-20.313,-20.313,13.220,13.220,2.859,29.491,15.152,5.665,30.640,14.870,1.175,26.475,11.411,6.091,26.268,8.136
Thu Dec 05 12:51:16 2024,135,-20.203,-20.203,13.206,13.206,2.866,29.438,14.989,5.575,30.384,14.688,1.186,26.483,11.374,6.148,26.304,8.173
Thu Dec 05 12:51:16 2024,140,-20.019,-20.019,13.110,13.110,2.963,29.277,14.716,5.610,30.255,14.556,1.242,26.372,11.293,6.185,13.696,8.138
Thu Dec 05 12:51:16 2024,145,-19.792,-19.792,12.993,12.993,3.082,29.080,14.377,5.652,30.097,14.392,1.311,26.236,11.192,6.231,13.690,8.094
Thu Dec 05 12:51:16 2024,150,-19.553,-19.553,12.931,12.931,3.265,28.946,14.133,5.725,29.885,14.233,1.413,25.995,11.129,6.270,13.689,8.096
Thu Dec 05 12:51:16 2024,155,-19.310,-19.310,12.870,12.870,3.458,28.816,13.886,5.801,29.669,14.069,1.519,25.746,11.065,6.309,13.676,8.098
Thu Dec 05 12:51:16 2024,160,-19.139,-19.139,12.809,12.809,3.537,28.587,13.554,5.815,29.454,13.876,1.429,25.480,10.943,6.350,13.633,8.167
Thu Dec 05 12:51:16 2024,165,-18.998,-18.998,12.750,12.750,3.576,28.327,13.197,5.809,29.242,13.674,1.272,25.211,10.802,6.390,13.580,8.260
Thu Dec 05 12:51:16 2024,170,-18.871,-18.871,12.734,12.734,3.613,28.110,12.905,5.834,29.024,13.423,1.186,24.884,10.627,6.458,13.520,8.234
Thu Dec 05 12:51:16 2024,175,-18.718,-18.718,12.744,12.744,3.660,27.863,12.576,5.889,28.748,13.076,1.124,24.429,10.382,6.563,13.432,8.122
Thu Dec 05 12:51:16 2024,180,-18.614,-18.614,12.796,12.796,3.710,27.760,12.376,5.912,28.522,12.803,1.092,24.133,10.224,6.610,13.391,8.054
Thu Dec 05 12:51:16 2024,185,-18.545,-18.545,12.884,12.884,3.767,27.764,12.272,5.916,28.331,12.584,1.085,23.958,10.134,6.610,13.388,8.018
Thu Dec 05 12:51:16 2024,190,-18.453,-18.453,12.941,12.941,3.766,27.707,12.117,5.871,28.146,12.362,1.057,23.818,10.028,6.588,13.403,7.990
Thu Dec 05 12:51:16 2024,195,-18.361,-18.361,12.904,12.904,3.649,27.549,11.938,5.751,28.059,12.244,1.001,23.818,9.948,6.530,13.460,7.990
Thu Dec 05 12:51:16 2024,200,-18.261,-18.261,12.856,12.856,3.538,27.412,11.754,5.637,27.972,12.116,0.948,23.803,9.864,6.476,13.512,7.990
Thu Dec 05 12:51:16 2024,205,-18.148,-18.148,12.753,12.753,3.500,27.446,11.606,5.608,27.914,11.982,0.927,23.687,9.775,6.469,13.509,7.991
Thu Dec 05 12:51:16 2024,210,-18.050,-18.050,12.661,12.661,3.470,27.486,11.476,5.586,27.863,11.862,0.911,23.578,9.695,6.464,13.502,7.990
Thu Dec 05 12:51:16 2024,215,-18.069,-18.069,12.634,12.634,3.397,27.480,11.363,5.462,27.728,11.761,0.830,23.573,9.625,6.397,13.564,7.999
Thu Dec 05 12:51:16 2024,220,-18.112,-18.112,12.631,12.631,3.336,27.467,11.288,5.351,27.613,11.694,0.760,23.596,9.577,6.336,13.624,8.008
Thu Dec 05 12:51:16 2024,225,-18.122,-18.122,12.566,12.566,3.275,27.375,11.283,5.285,27.511,11.718,0.720,23.505,9.561,6.287,13.653,7.991
Thu Dec 05 12:51:16 2024,230,-18.115,-18.115,12.468,12.468,3.214,27.241,11.317,5.243,27.416,11.790,0.697,23.353,9.563,6.243,13.659,7.961
Thu Dec 05 12:51:16 2024,235,-18.128,-18.128,12.425,12.425,3.177,27.116,11.314,5.207,27.340,11.805,0.659,23.166,9.514,6.238,13.629,7.962
Thu Dec 05 12:51:16 2024,240,-18.171,-18.171,12.461,12.461,3.171,26.988,11.256,5.177,27.284,11.736,0.595,22.903,9.381,6.291,13.546,8.007
Thu Dec 05 12:51:16 2024,245,-18.177,-18.177,12.450,12.450,3.152,26.847,11.164,5.164,27.251,11.696,0.529,22.708,9.292,6.323,13.493,8.034
Thu Dec 05 12:51:16 2024,250,-18.080,-18.080,12.311,12.311,3.087,26.587,10.923,5.185,27.256,11.705,0.423,22.573,9.260,6.321,13.489,8.027
Thu Dec 05 12:51:16 2024,255,-17.990,-17.990,12.177,12.177,3.023,26.328,10.688,5.206,27.259,11.710,0.316,22.432,9.223,6.321,13.481,8.023
Thu Dec 05 12:51:16 2024,260,-17.980,-17.980,12.144,12.144,3.029,26.261,10.716,5.255,27.255,11.729,0.336,22.356,9.242,6.289,13.454,7.946
Thu Dec 05 12:51:16 2024,265,-17.970,-17.970,12.110,12.110,3.032,26.193,10.738,5.301,27.252,11.747,0.352,22.282,9.259,6.257,13.424,7.874
Thu Dec 05 12:51:16 2024,270,-17.908,-17.908,12.113,12.113,3.017,25.966,10.522,5.426,27.408,11.720,0.246,22.025,9.095,6.379,13.326,7.923
Thu Dec 05 12:51:16 2024,275,-17.854,-17.854,12.119,12.119,3.004,25.773,10.328,5.533,27.547,11.695,0.149,21.806,8.949,6.492,13.240,7.975
Thu Dec 05 12:51:16 2024,280,-17.749,-17.749,11.940,11.940,3.049,25.748,10.250,5.568,27.447,11.592,0.130,21.745,8.934,6.508,13.222,7.990
Thu Dec 05 12:51:16 2024,285,-17.664,-17.664,11.755,11.755,3.102,25.802,10.250,5.559,27.292,11.499,0.149,21.772,8.978,6.477,13.239,7.983
Thu Dec 05 12:51:16 2024,290,-17.577,-17.577,11.561,11.561,3.157,25.859,10.251,5.550,27.133,11.403,0.170,21.801,9.024,6.445,13.256,7.977
Thu Dec 05 12:51:16 2024,295,-17.499,-17.499,11.550,11.550,2.942,25.637,10.118,5.519,27.349,11.632,0.028,21.808,9.037,6.581,13.192,7.991
Thu Dec 05 12:51:16 2024,300,-17.391,-17.391,11.425,11.425,2.873,25.567,10.039,5.499,27.364,11.677,-0.028,21.746,9.030,6.645,13.155,8.053
Thu Dec 05 12:51:16 2024,305,-17.244,-17.244,11.208,11.208,2.900,25.595,9.979,5.489,27.243,11.588,-0.059,21.576,8.982,6.678,13.129,8.190
Thu Dec 05 12:51:16 2024,310,-17.109,-17.109,11.009,11.009,2.925,25.621,9.924,5.480,27.134,11.508,-0.082,21.420,8.938,6.708,13.104,8.316
Thu Dec 05 12:51:16 2024,315,-17.131,-17.131,10.954,10.954,2.947,25.700,10.052,5.458,27.056,11.474,-0.107,21.404,8.925,6.671,13.125,8.315
Thu Dec 05 12:51:16 2024,320,-17.143,-17.143,10.892,10.892,2.969,25.774,10.164,5.437,26.980,11.439,-0.128,21.379,8.910,6.640,13.142,8.322
Thu Dec 05 12:51:16 2024,325,-17.010,-17.010,10.560,10.560,2.906,25.807,10.083,5.517,27.194,11.520,-0.192,21.559,8.925,6.685,13.104,8.217
Thu Dec 05 12:51:16 2024,330,-16.864,-16.864,10.199,10.199,2.834,25.839,9.984,5.607,27.441,11.613,-0.256,21.761,8.943,6.738,13.060,8.100
Thu Dec 05 12:51:16 2024,335,-16.735,-16.735,9.996,9.996,2.784,25.902,9.881,5.640,27.550,11.635,-0.348,21.810,8.917,6.772,13.052,8.065
Thu Dec 05 12:51:16 2024,340,-16.628,-16.628,9.849,9.849,2.746,25.962,9.791,5.658,27.618,11.642,-0.432,21.825,8.887,6.798,13.051,8.049
Thu Dec 05 12:51:16 2024,345,-16.529,-16.529,9.712,9.712,2.709,26.021,9.707,5.675,27.683,11.648,-0.511,21.844,8.858,6.823,13.048,8.035
Thu Dec 05 12:51:16 2024,350,-16.560,-16.560,9.660,9.660,2.673,25.913,9.746,5.614,27.470,11.586,-0.605,21.743,8.833,6.664,13.188,8.096
Thu Dec 05 12:51:16 2024,355,-16.548,-16.548,9.580,9.580,2.637,25.864,9.743,5.581,27.356,11.548,-0.693,21.694,8.808,6.570,13.277,8.131
Thu Dec 05 12:51:16 2024,360,-16.528,-16.528,9.475,9.475,2.619,25.825,9.736,5.532,27.183,11.474,-0.779,21.635,8.773,6.479,13.353,8.131
Thu Dec 05 12:51:16 2024,365,-16.488,-16.488,9.323,9.323,2.666,25.831,9.717,5.447,26.870,11.300,-0.831,21.541,8.718,6.428,13.355,8.017
Thu Dec 05 12:51:16 2024,370,-16.441,-16.441,9.152,9.152,2.697,25.826,9.691,5.370,26.608,11.161,-0.887,21.463,8.672,6.375,13.361,7.915
Thu Dec 05 12:51:16 2024,375,-16.381,-16.381,8.949,8.949,2.656,25.780,9.646,5.345,26.584,11.190,-0.937,21.433,8.678,6.334,13.401,7.887
Thu Dec 05 12:51:16 2024,380,-16.305,-16.305,8.687,8.687,2.602,25.721,9.590,5.314,26.553,11.229,-1.003,21.404,8.686,6.280,13.453,7.851
Thu Dec 05 12:51:16 2024,385,-16.259,-16.259,8.518,8.518,2.434,25.485,9.450,5.242,26.514,11.190,-1.110,21.438,8.594,6.260,13.491,7.782
Thu Dec 05 12:51:16 2024,390,-16.222,-16.222,8.379,8.379,2.260,25.242,9.309,5.170,26.478,11.144,-1.215,21.487,8.494,6.246,13.524,7.714
Thu Dec 05 12:51:16 2024,395,-16.194,-16.194,8.236,8.236,2.142,25.115,9.212,5.135,26.413,11.087,-1.265,21.505,8.460,6.233,13.543,7.659
Thu Dec 05 12:51:16 2024,400,-16.168,-16.168,8.066,8.066,2.036,25.037,9.125,5.117,26.320,11.014,-1.289,21.506,8.461,6.218,13.557,7.601
Thu Dec 05 12:51:16 2024,405,-16.155,-16.155,7.901,7.901,1.919,24.980,9.088,5.111,26.246,10.979,-1.356,21.524,8.441,6.204,13.569,7.581
Thu Dec 05 12:51:16 2024,410,-16.152,-16.152,7.738,7.738,1.794,24.942,9.093,5.116,26.188,10.979,-1.462,21.570,8.404,6.192,13.579,7.594
Thu Dec 05 12:51:16 2024,415,-16.145,-16.145,7.602,7.602,1.686,24.920,9.096,5.118,26.131,10.978,-1.551,21.630,8.407,6.191,13.578,7.600
Thu Dec 05 12:51:16 2024,420,-16.127,-16.127,7.506,7.506,1.600,24.928,9.094,5.116,26.064,10.977,-1.621,21.711,8.509,6.216,13.550,7.589
Thu Dec 05 12:51:16 2024,425,-16.111,-16.111,7.424,7.424,1.530,24.924,9.089,5.109,25.993,10.968,-1.686,21.780,8.590,6.232,13.530,7.587
Thu Dec 05 12:51:16 2024,430,-16.108,-16.108,7.305,7.305,1.461,24.731,9.047,5.027,25.658,10.834,-1.868,21.906,8.599,6.164,13.574,7.710
Thu Dec 05 12:51:16 2024,435,-16.104,-16.104,7.185,7.185,1.393,24.534,8.999,4.947,25.361,10.696,-2.048,22.055,8.600,6.099,13.613,7.819
Thu Dec 05 12:51:16 2024,440,-16.084,-16.084,7.096,7.096,1.349,24.345,8.844,4.888,25.208,10.507,-2.120,22.119,8.467,6.087,13.543,7.658
Thu Dec 05 12:51:16 2024,445,-16.066,-16.066,7.013,7.013,1.308,24.167,8.700,4.834,25.074,10.330,-2.187,22.193,8.341,6.076,13.469,7.507
Thu Dec 05 12:51:16 2024,450,-16.029,-16.029,6.860,6.860,1.287,24.140,8.766,4.804,24.990,10.346,-2.228,22.232,8.460,6.042,13.469,7.655
Thu Dec 05 12:51:16 2024,455,-15.994,-15.994,6.721,6.721,1.281,24.191,8.912,4.798,15.046,10.447,-2.244,22.243,8.659,6.006,13.508,7.900
Thu Dec 05 12:51:16 2024,460,-15.981,-15.981,6.584,6.584,1.274,24.192,9.029,4.759,15.120,10.533,-2.257,22.257,8.815,6.031,13.499,8.093
Thu Dec 05 12:51:16 2024,465,-15.988,-15.988,6.490,6.490,1.268,24.156,9.092,4.710,15.199,10.583,-2.264,22.264,8.892,6.091,13.459,8.192
Thu Dec 05 12:51:16 2024,470,-16.004,-16.004,6.390,6.390,1.264,24.206,9.151,4.658,15.258,10.632,-2.284,22.287,8.952,6.144,13.442,8.260
Thu Dec 05 12:51:16 2024,475,-16.033,-16.033,6.304,6.304,1.261,24.396,9.192,4.611,15.270,10.670,-2.321,22.330,8.966,6.174,13.467,8.262
Thu Dec 05 12:51:16 2024,480,-16.046,-16.046,6.178,6.178,1.269,24.603,9.237,4.567,24.733,10.726,-2.353,22.371,8.978,6.225,13.465,8.270
Thu Dec 05 12:51:16 2024,485,-15.995,-15.995,6.018,6.018,1.303,24.723,9.269,4.562,24.773,10.800,-2.349,22.364,8.973,6.310,13.390,8.293
Thu Dec 05 12:51:16 2024,490,-15.949,-15.949,5.870,5.870,1.335,24.834,9.298,4.557,24.814,10.869,-2.345,22.358,8.968,6.388,13.320,8.314
Thu Dec 05 12:51:16 2024,495,-15.910,-15.910,5.681,5.681,1.268,24.712,9.326,4.498,24.745,11.002,-2.433,22.438,9.039,6.418,13.288,8.325
Thu Dec 05 12:51:16 2024,500,-15.883,-15.883,5.540,5.540,1.207,24.594,9.345,4.448,24.681,11.105,-2.509,22.509,9.099,6.433,13.270,8.332
Thu Dec 05 12:51:16 2024,505,-15.882,-15.882,5.495,5.495,1.266,24.505,9.298,4.491,24.722,11.099,-2.544,22.545,9.030,6.431,13.224,8.182
Thu Dec 05 12:51:16 2024,510,-15.886,-15.886,5.475,5.475,1.350,24.430,9.236,4.553,24.785,11.069,-2.569,22.577,8.936,6.426,13.172,8.004
Thu Dec 05 12:51:16 2024,515,-15.902,-15.902,5.342,5.342,1.356,24.260,9.157,4.559,24.788,11.070,-2.616,22.634,8.907,6.439,13.148,7.932
Thu Dec 05 12:51:16 2024,520,-15.925,-15.925,5.153,5.153,1.308,24.049,9.077,4.524,24.750,11.093,-2.670,22.696,8.929,6.463,13.151,7.943
Thu Dec 05 12:51:16 2024,525,-15.945,-15.945,5.016,5.016,1.300,23.967,9.079,4.501,24.720,11.102,-2.687,22.717,8.943,6.511,13.110,7.922
Thu Dec 05 12:51:16 2024,530,-15.967,-15.967,4.905,4.905,1.340,24.025,9.185,4.488,24.693,11.098,-2.662,22.691,8.952,6.604,13.001,7.853
Thu Dec 05 12:51:16 2024,535,-15.994,-15.994,4.808,4.808,1.369,24.065,9.242,4.468,24.659,11.069,-2.641,22.671,8.937,6.681,12.910,7.779
Thu Dec 05 12:51:16 2024,540,-16.040,-16.040,4.725,4.725,1.376,24.059,9.162,4.422,24.598,10.958,-2.622,22.664,8.846,6.726,12.848,7.671
Thu Dec 05 12:51:16 2024,545,-16.074,-16.074,4.664,4.664,1.380,24.056,9.103,4.388,24.553,10.877,-2.608,22.661,8.778,6.759,12.802,7.590
Thu Dec 05 12:51:16 2024,550,-16.127,-16.127,4.596,4.596,1.431,24.023,9.112,4.375,15.512,10.847,-2.560,17.367,8.769,6.743,12.798,7.578
Thu Dec 05 12:51:16 2024,555,-16.165,-16.165,4.549,4.549,1.469,23.999,9.126,4.369,15.551,10.832,-2.524,17.387,8.769,6.727,12.799,7.576
Thu Dec 05 12:51:16 2024,560,-16.211,-16.211,4.569,4.569,1.468,23.967,9.089,4.359,15.570,10.776,-2.500,17.414,8.717,6.774,12.742,7.516
Thu Dec 05 12:51:16 2024,565,-16.250,-16.250,4.604,4.604,1.455,23.938,9.045,4.349,15.579,10.720,-2.484,17.438,8.661,6.829,12.680,7.450
Thu Dec 05 12:51:16 2024,570,-16.332,-16.332,4.620,4.620,1.409,24.018,9.013,4.335,15.553,10.702,-2.461,17.471,8.572,6.841,12.705,7.338
Thu Dec 05 12:51:16 2024,575,-16.408,-16.408,4.624,4.624,1.364,24.117,8.994,4.325,24.490,10.701,-2.441,17.500,8.494,6.836,12.752,7.239
Thu Dec 05 12:51:16 2024,580,-16.472,-16.472,4.660,4.660,1.330,24.072,8.966,4.302,24.493,10.726,-2.448,19.995,8.478,6.866,12.740,7.200
Thu Dec 05 12:51:16 2024,585,-16.505,-16.505,4.724,4.724,1.315,23.865,8.934,4.272,24.441,10.774,-2.484,17.453,8.540,6.929,12.662,7.244
Thu Dec 05 12:51:16 2024,590,-16.523,-16.523,4.760,4.760,1.320,23.764,8.924,4.271,24.434,10.830,-2.482,22.538,8.610,7.012,12.594,7.310
Thu Dec 05 12:51:16 2024,595,-16.510,-16.510,4.747,4.747,1.357,23.851,8.952,4.322,24.506,10.894,-2.415,22.446,8.689,7.125,12.541,7.408
Thu Dec 05 12:51:16 2024,600,-16.504,-16.504,4.742,4.742,1.404,23.946,8.978,4.379,24.584,10.949,-2.338,22.350,8.762,7.249,12.470,7.484
Thu Dec 05 12:51:16 2024,605,-16.560,-16.560,4.811,4.811,1.472,23.994,8.966,4.415,24.622,10.874,-2.260,22.268,8.706,7.319,12.375,7.302
Thu Dec 05 12:51:16 2024,610,-16.622,-16.622,4.883,4.883,1.545,24.046,8.956,4.452,24.658,10.791,-2.178,22.182,8.645,7.396,12.272,7.110
Thu Dec 05 12:51:16 2024,615,-16.660,-16.660,4.880,4.880,1.574,24.072,8.982,4.420,24.578,10.730,-2.185,22.196,8.620,7.460,12.234,7.123
Thu Dec 05 12:51:16 2024,620,-16.693,-16.693,4.869,4.869,1.597,24.093,9.010,4.380,15.505,10.674,-2.203,22.227,8.600,7.520,12.204,7.157
Thu Dec 05 12:51:16 2024,625,-16.714,-16.714,4.872,4.872,1.562,23.957,8.909,4.364,15.529,10.663,-2.262,17.681,8.513,7.572,12.164,7.107
Thu Dec 05 12:51:16 2024,630,-16.728,-16.728,4.880,4.880,1.510,23.778,8.772,4.360,15.529,10.670,-2.327,17.565,8.412,7.616,12.126,7.031
Thu Dec 05 12:51:16 2024,635,-16.753,-16.753,4.903,4.903,1.480,23.665,8.692,4.353,15.549,10.632,-2.351,17.514,8.357,7.663,12.060,6.926
Thu Dec 05 12:51:16 2024,640,-16.778,-16.778,4.932,4.932,1.482,23.656,8.698,4.347,15.578,10.561,-2.324,17.555,8.366,7.697,11.986,6.831
Thu Dec 05 12:51:16 2024,645,-16.794,-16.794,4.959,4.959,1.505,23.699,8.723,4.360,15.579,10.515,-2.274,17.628,8.391,7.758,11.899,6.760
Thu Dec 05 12:51:16 2024,650,-16.782,-16.782,4.978,4.978,1.584,23.874,8.800,4.424,15.518,10.530,-2.164,17.782,8.459,7.888,11.776,6.746
Thu Dec 05 12:51:16 2024,655,-16.776,-16.776,4.996,4.996,1.647,24.018,8.856,4.466,15.475,10.549,-2.073,22.100,8.519,8.008,11.669,6.746
Thu Dec 05 12:51:16 2024,660,-16.786,-16.786,5.007,5.007,1.636,24.028,8.819,4.421,15.512,10.589,-2.061,22.087,8.535,8.084,11.634,6.800
Thu Dec 05 12:51:16 2024,665,-16.796,-16.796,5.016,5.016,1.625,24.038,8.786,4.380,15.545,10.627,-2.050,22.075,8.550,8.150,11.600,6.847
Thu Dec 05 12:51:16 2024,670,-16.819,-16.819,4.996,4.996,1.574,24.038,8.807,4.367,15.525,10.700,-2.058,22.076,8.529,8.103,11.623,6.733
Thu Dec 05 12:51:16 2024,675,-16.838,-16.838,4.979,4.979,1.533,24.039,8.825,4.356,24.496,10.760,-2.064,22.077,8.512,8.065,11.640,6.641
Thu Dec 05 12:51:16 2024,680,-16.845,-16.845,4.965,4.965,1.535,24.019,8.844,4.394,15.475,10.758,-2.065,22.088,8.510,8.049,11.647,6.713
Thu Dec 05 12:51:16 2024,685,-16.846,-16.846,4.956,4.956,1.548,23.999,8.860,4.435,15.450,10.740,-2.064,22.101,8.514,8.043,11.648,6.811
Thu Dec 05 12:51:16 2024,690,-16.852,-16.852,4.958,4.958,1.552,23.987,8.936,4.433,15.478,10.753,-2.094,22.138,8.548,8.030,11.642,6.834
Thu Dec 05 12:51:16 2024,695,-16.860,-16.860,4.972,4.972,1.548,23.986,9.046,4.396,15.539,10.788,-2.144,22.186,8.599,8.014,11.628,6.793
Thu Dec 05 12:51:16 2024,700,-16.861,-16.861,4.977,4.977,1.553,24.019,9.093,4.365,15.583,10.781,-2.186,22.219,8.636,8.007,11.630,6.774
Thu Dec 05 12:51:16 2024,705,-16.851,-16.851,4.972,4.972,1.569,24.095,9.053,4.344,15.602,10.719,-2.213,22.234,8.649,8.013,11.654,6.786
Thu Dec 05 12:51:16 2024,710,-16.840,-16.840,4.960,4.960,1.586,24.147,9.019,4.331,15.617,10.668,-2.233,22.251,8.643,8.022,11.661,6.785
Thu Dec 05 12:51:16 2024,715,-16.812,-16.812,4.903,4.903,1.626,24.141,8.981,4.336,15.626,10.610,-2.250,22.293,8.538,8.060,11.596,6.720
Thu Dec 05 12:51:16 2024,720,-16.791,-16.791,4.859,4.859,1.656,24.137,8.951,4.340,15.631,10.567,-2.263,17.669,8.459,8.089,11.547,6.671
Thu Dec 05 12:51:16 2024,725,-16.830,-16.830,4.889,4.889,1.665,24.078,8.902,4.300,15.676,10.535,-2.275,17.647,8.424,8.047,11.578,6.646
Thu Dec 05 12:51:16 2024,730,-16.866,-16.866,4.917,4.917,1.670,24.029,8.861,4.265,15.715,10.511,-2.285,17.631,8.399,8.009,11.608,6.629
Thu Dec 05 12:51:16 2024,735,-16.870,-16.870,4.877,4.877,1.626,23.948,8.932,4.166,15.828,10.468,-2.346,17.558,8.434,7.988,11.614,6.696
Thu Dec 05 12:51:16 2024,740,-16.865,-16.865,4.824,4.824,1.576,23.873,9.022,4.067,15.933,10.426,-2.412,17.480,8.480,7.974,11.612,6.776
Thu Dec 05 12:51:16 2024,745,-16.855,-16.855,4.822,4.822,1.585,23.830,9.024,4.107,15.893,10.449,-2.414,17.464,8.456,7.957,11.613,6.735
Thu Dec 05 12:51:16 2024,750,-16.846,-16.846,4.842,4.842,1.616,23.812,8.989,4.194,15.805,10.494,-2.389,17.478,8.410,7.941,11.614,6.656
Thu Dec 05 12:51:16 2024,755,-16.861,-16.861,4.872,4.872,1.620,23.852,9.018,4.260,15.736,10.540,-2.329,17.558,8.426,8.000,11.579,6.652
Thu Dec 05 12:51:16 2024,760,-16.906,-16.906,4.910,4.910,1.587,23.964,9.131,4.279,15.709,10.574,-2.234,17.704,8.526,8.143,11.500,6.755
Thu Dec 05 12:51:16 2024,765,-16.932,-16.932,4.930,4.930,1.567,24.042,9.165,4.286,15.693,10.569,-2.172,22.204,8.562,8.225,11.462,6.798
Thu Dec 05 12:51:16 2024,770,-16.923,-16.923,4.917,4.917,1.571,24.052,9.063,4.272,15.705,10.500,-2.173,22.196,8.486,8.192,11.505,6.736
Thu Dec 05 12:51:16 2024,775,-16.910,-16.910,4.899,4.899,1.576,24.065,8.952,4.257,15.718,10.421,-2.167,22.182,8.407,8.168,11.542,6.672
Thu Dec 05 12:51:16 2024,780,-16.858,-16.858,4.857,4.857,1.586,24.080,8.942,4.263,15.718,10.365,-2.097,22.103,8.444,8.297,11.430,6.714
Thu Dec 05 12:51:16 2024,785,-16.817,-16.817,4.824,4.824,1.593,24.093,8.935,4.267,15.718,10.321,-2.042,22.043,8.473,8.398,11.341,6.747
Thu Dec 05 12:51:16 2024,790,-16.813,-16.813,4.827,4.827,1.632,24.187,8.999,4.341,15.646,10.319,-1.945,21.945,8.464,8.432,11.295,6.708
Thu Dec 05 12:51:16 2024,795,-16.822,-16.822,4.842,4.842,1.678,24.300,9.082,4.429,15.557,10.332,-1.843,21.843,8.442,8.439,11.269,6.649
Thu Dec 05 12:51:16 2024,800,-16.771,-16.771,4.804,4.804,1.639,24.149,8.996,4.442,15.538,10.416,-1.875,21.877,8.444,8.427,11.279,6.671
Thu Dec 05 12:51:16 2024,805,-16.712,-16.712,4.760,4.760,1.586,23.954,8.883,4.430,15.542,10.498,-1.930,21.941,8.451,8.416,11.294,6.711
Thu Dec 05 12:51:16 2024,810,-16.695,-16.695,4.753,4.753,1.573,23.920,8.872,4.409,15.570,10.469,-1.923,21.934,8.443,8.433,11.279,6.727
Thu Dec 05 12:51:16 2024,815,-16.690,-16.690,4.756,4.756,1.572,23.931,8.890,4.382,15.604,10.405,-1.895,21.906,8.432,8.462,11.254,6.736
Thu Dec 05 12:51:16 2024,820,-16.683,-16.683,4.752,4.752,1.590,23.992,8.926,4.379,15.616,10.331,-1.845,21.851,8.432,8.507,11.218,6.753
Thu Dec 05 12:51:16 2024,825,-16.629,-16.629,4.684,4.684,1.612,24.024,8.900,4.450,15.546,10.353,-1.805,21.807,8.485,8.569,11.181,6.812
Thu Dec 05 12:51:16 2024,830,-16.590,-16.590,4.629,4.629,1.639,24.119,8.926,4.528,15.468,10.405,-1.747,21.747,8.557,8.671,11.107,6.883
Thu Dec 05 12:51:16 2024,835,-16.594,-16.594,4.616,4.616,1.674,24.368,9.086,4.609,15.375,10.528,-1.650,21.676,8.672,8.867,10.947,6.975
Thu Dec 05 12:51:16 2024,840,-16.597,-16.597,4.600,4.600,1.711,24.628,9.252,4.697,15.266,10.662,-1.547,21.651,8.794,9.078,10.770,7.075
Thu Dec 05 12:51:16 2024,845,-16.528,-16.528,4.502,4.502,1.704,24.466,9.152,4.725,15.232,10.751,-1.574,21.638,8.769,9.113,10.734,7.098
Thu Dec 05 12:51:16 2024,850,-16.472,-16.472,4.422,4.422,1.699,24.334,9.070,4.747,15.203,10.826,-1.596,21.635,8.748,9.142,10.706,7.116
Thu Dec 05 12:51:16 2024,855,-16.436,-16.436,4.375,4.375,1.731,24.370,9.068,4.740,15.213,10.818,-1.584,21.631,8.775,9.257,10.593,7.102
Thu Dec 05 12:51:16 2024,860,-16.422,-16.422,4.356,4.356,1.769,24.471,9.100,4.722,15.237,10.778,-1.560,21.630,8.814,9.378,10.477,7.077
Thu Dec 05 12:51:16 2024,865,-16.387,-16.387,4.325,4.325,1.873,24.600,9.140,4.786,15.178,10.774,-1.539,21.620,8.823,9.538,10.330,7.111
Thu Dec 05 12:51:16 2024,870,-16.352,-16.352,4.296,4.296,1.983,24.711,9.172,4.878,15.088,10.792,-1.526,21.606,8.812,9.678,10.206,7.168
Thu Dec 05 12:51:16 2024,875,-16.308,-16.308,4.249,4.249,2.049,24.785,9.207,4.951,15.014,10.829,-1.512,21.589,8.825,9.782,10.109,7.222
Thu Dec 05 12:51:16 2024,880,-16.259,-16.259,4.188,4.188,2.029,24.780,9.234,4.974,14.984,10.882,-1.500,21.572,8.872,9.805,10.082,7.252
Thu Dec 05 12:51:16 2024,885,-16.210,-16.210,4.128,4.128,1.999,24.755,9.234,4.982,14.971,10.919,-1.498,21.565,8.902,9.819,10.065,7.278
Thu Dec 05 12:51:16 2024,890,-16.167,-16.167,4.085,4.085,1.932,24.611,9.074,4.894,15.055,10.843,-1.557,21.615,8.836,9.780,10.112,7.268
Thu Dec 05 12:51:16 2024,895,-16.134,-16.134,4.050,4.050,1.876,24.494,8.943,4.821,15.124,10.781,-1.605,21.657,8.782,9.748,10.151,7.260
Thu Dec 05 12:51:16 2024,900,-16.134,-16.134,4.026,4.026,1.854,24.385,8.994,4.741,15.227,10.801,-1.673,21.732,8.891,9.706,10.208,7.417
Thu Dec 05 12:51:16 2024,905,-16.133,-16.133,3.999,3.999,1.842,24.286,9.072,4.668,15.320,10.831,-1.738,21.805,9.018,9.669,10.261,7.589
Thu Dec 05 12:51:16 2024,910,-16.071,-16.071,3.960,3.960,1.895,24.330,9.150,4.691,15.305,10.840,-1.718,21.769,9.047,9.703,10.223,7.629
Thu Dec 05 12:51:16 2024,915,-15.991,-15.991,3.916,3.916,1.970,24.420,9.234,4.744,15.256,10.841,-1.672,21.705,9.048,9.758,10.159,7.628
Thu Dec 05 12:51:16 2024,920,-15.970,-15.970,3.916,3.916,2.004,24.477,9.249,4.769,15.231,10.808,-1.653,21.689,9.018,9.770,10.143,7.576
Thu Dec 05 12:51:16 2024,925,-15.990,-15.990,3.948,3.948,2.010,24.514,9.219,4.776,15.221,10.751,-1.650,21.710,8.963,9.754,10.159,7.483
Thu Dec 05 12:51:16 2024,930,-16.004,-16.004,3.950,3.950,2.011,24.569,9.230,4.780,15.214,10.738,-1.653,21.740,8.950,9.734,10.186,7.470
Thu Dec 05 12:51:16 2024,935,-16.006,-16.006,3.911,3.911,2.007,24.647,9.299,4.780,15.211,10.789,-1.662,21.778,8.994,9.713,10.224,7.569
Thu Dec 05 12:51:16 2024,940,-16.006,-16.006,3.888,3.888,1.996,24.674,9.316,4.767,15.224,10.808,-1.682,21.820,9.023,9.700,10.248,7.625
Thu Dec 05 12:51:16 2024,945,-16.002,-16.002,3.882,3.882,1.964,24.601,9.223,4.709,15.282,10.766,-1.737,21.900,9.039,9.690,10.263,7.622
Thu Dec 05 12:51:16 2024,950,-16.000,-16.000,3.874,3.874,1.944,24.543,9.164,4.676,15.315,10.746,-1.776,21.951,9.053,9.680,10.275,7.617
Thu Dec 05 12:51:16 2024,955,-15.999,-15.999,3.848,3.848,1.971,24.546,9.238,4.738,15.255,10.820,-1.753,21.896,9.068,9.659,10.288,7.622
Thu Dec 05 12:51:16 2024,960,-15.998,-15.998,3.819,3.819,2.008,24.566,9.340,4.821,15.175,10.911,-1.717,21.823,9.081,9.636,10.299,7.627
Thu Dec 05 12:51:16 2024,965,-15.988,-15.988,3.820,3.820,2.017,24.646,9.308,4.846,15.147,10.854,-1.738,21.827,9.024,9.661,10.282,7.616
Thu Dec 05 12:51:16 2024,970,-15.978,-15.978,3.827,3.827,2.021,24.728,9.258,4.859,15.131,10.780,-1.766,21.844,8.961,9.689,10.261,7.602
Thu Dec 05 12:51:16 2024,975,-15.964,-15.964,3.784,3.784,2.003,24.742,9.245,4.811,15.181,10.744,-1.795,21.883,8.956,9.699,10.256,7.617
Thu Dec 05 12:51:16 2024,980,-15.952,-15.952,3.726,3.726,1.980,24.720,9.254,4.742,15.253,10.738,-1.817,21.926,8.983,9.696,10.261,7.642
Thu Dec 05 12:51:16 2024,985,-15.944,-15.944,3.715,3.715,2.000,24.705,9.277,4.739,15.258,10.779,-1.793,21.915,9.055,9.727,10.230,7.706
Thu Dec 05 12:51:16 2024,990,-15.944,-15.944,3.759,3.759,2.063,24.707,9.304,4.810,15.186,10.857,-1.728,21.845,9.151,9.782,10.169,7.786
Thu Dec 05 12:51:16 2024,995,-15.943,-15.943,3.782,3.782,2.115,24.696,9.333,4.857,15.140,10.921,-1.684,21.794,9.235,9.810,10.136,7.853
Thu Dec 05 12:51:17 2024,0,-15.940,-15.940,3.711,3.711,2.102,24.632,9.358,4.795,15.204,10.904,-1.744,21.833,9.237,9.719,10.221,7.841
Thu Dec 05 12:51:17 2024,5,-15.938,-15.938,3.646,3.646,2.090,24.599,9.388,4.746,15.252,10.883,-1.796,21.871,9.235,9.649,10.287,7.837
Thu Dec 05 12:51:17 2024,10,-15.936,-15.936,3.592,3.592,2.079,24.678,9.442,4.735,15.263,10.850,-1.829,21.904,9.215,9.644,10.293,7.862
Thu Dec 05 12:51:17 2024,15,-15.932,-15.932,3.549,3.549,2.073,24.768,9.487,4.734,15.264,10.820,-1.852,21.931,9.193,9.643,10.298,7.881
Thu Dec 05 12:51:17 2024,20,-15.906,-15.906,3.557,3.557,2.118,24.921,9.481,4.786,15.214,10.797,-1.836,21.932,9.143,9.601,10.347,7.831
Thu Dec 05 12:51:17 2024,25,-15.876,-15.876,3.575,3.575,2.173,25.091,9.466,4.847,15.153,10.774,-1.810,21.932,9.087,9.551,10.405,7.768
Thu Dec 05 12:51:17 2024,30,-15.884,-15.884,3.587,3.587,2.188,25.175,9.432,4.894,15.101,10.821,-1.795,21.973,9.120,9.527,10.438,7.800
Thu Dec 05 12:51:17 2024,35,-15.901,-15.901,3.594,3.594,2.188,25.217,9.399,4.928,15.055,10.879,-1.785,22.025,9.174,9.516,10.456,7.855
Thu Dec 05 12:51:17 2024,40,-15.938,-15.938,3.580,3.580,2.179,25.232,9.448,4.936,15.041,10.946,-1.783,22.053,9.223,9.486,10.486,7.873
Thu Dec 05 12:51:17 2024,45,-15.986,-15.986,3.543,3.543,2.161,25.212,9.577,4.914,15.070,11.007,-1.792,22.040,9.254,9.442,10.522,7.848
Thu Dec 05 12:51:17 2024,50,-16.008,-16.008,3.506,3.506,2.144,25.200,9.662,4.899,15.087,11.065,-1.788,22.029,9.297,9.427,10.535,7.866
Thu Dec 05 12:51:17 2024,55,-15.982,-15.982,3.460,3.460,2.129,25.189,9.679,4.890,15.095,11.121,-1.758,22.013,9.360,9.460,10.506,7.961
Thu Dec 05 12:51:17 2024,60,-15.973,-15.973,3.430,3.430,2.119,25.175,9.687,4.885,15.100,11.152,-1.744,22.013,9.406,9.475,10.494,8.028
Thu Dec 05 12:51:17 2024,65,-16.013,-16.013,3.444,3.444,2.124,25.148,9.663,4.889,15.098,11.114,-1.770,22.064,9.408,9.441,10.531,8.019
Thu Dec 05 12:51:17 2024,70,-16.052,-16.052,3.460,3.460,2.130,25.122,9.636,4.891,15.098,11.065,-1.803,22.111,9.397,9.402,10.571,8.005
Thu Dec 05 12:51:17 2024,75,-16.049,-16.049,3.456,3.456,2.148,25.107,9.590,4.868,15.129,10.971,-1.878,22.089,9.310,9.356,10.612,8.011
Thu Dec 05 12:51:17 2024,80,-16.037,-16.037,3.448,3.448,2.167,25.095,9.543,4.841,15.159,10.874,-1.958,22.079,9.213,9.312,10.650,8.021
Thu Dec 05 12:51:17 2024,85,-16.081,-16.081,3.489,3.489,2.202,25.084,9.568,4.861,15.138,10.901,-1.967,22.066,9.234,9.331,10.633,8.111
Thu Dec 05 12:51:17 2024,90,-16.141,-16.141,3.544,3.544,2.242,25.074,9.614,4.895,15.104,10.962,-1.958,22.048,9.288,9.369,10.600,8.225
Thu Dec 05 12:51:17 2024,95,-16.172,-16.172,3.594,3.594,2.244,25.060,9.642,4.865,15.135,10.949,-1.976,22.062,9.293,9.361,10.609,8.244
Thu Dec 05 12:51:17 2024,100,-16.193,-16.193,3.651,3.651,2.225,25.042,9.667,4.797,15.203,10.895,-2.012,22.096,9.273,9.325,10.641,8.215
Thu Dec 05 12:51:17 2024,105,-16.200,-16.200,3.667,3.667,2.237,25.045,9.714,4.781,15.217,10.907,-2.013,22.094,9.295,9.324,10.637,8.212
Thu Dec 05 12:51:17 2024,110,-16.192,-16.192,3.633,3.633,2.290,25.076,9.796,4.832,15.166,11.003,-1.970,22.047,9.370,9.370,10.587,8.243
Thu Dec 05 12:51:17 2024,115,-16.188,-16.188,3.610,3.610,2.316,25.081,9.844,4.866,15.132,11.061,-1.948,22.015,9.409,9.376,10.575,8.260
Thu Dec 05 12:51:17 2024,120,-16.200,-16.200,3.631,3.631,2.254,25.018,9.774,4.836,15.162,10.985,-1.990,22.047,9.330,9.282,10.668,8.228
Thu Dec 05 12:51:17 2024,125,-16.216,-16.216,3.659,3.659,2.194,24.957,9.712,4.803,15.197,10.909,-2.035,22.085,9.253,9.190,10.758,8.192
Thu Dec 05 12:51:17 2024,130,-16.252,-16.252,3.712,3.712,2.193,24.956,9.745,4.763,15.237,10.885,-2.066,22.136,9.238,9.173,10.778,8.144
Thu Dec 05 12:51:17 2024,135,-16.288,-16.288,3.766,3.766,2.204,24.974,9.798,4.726,15.273,10.876,-2.091,22.186,9.240,9.172,10.784,8.098
Thu Dec 05 12:51:17 2024,140,-16.307,-16.307,3.792,3.792,2.216,25.025,9.826,4.707,15.291,10.889,-2.107,22.195,9.241,9.123,10.823,8.071
Thu Dec 05 12:51:17 2024,145,-16.323,-16.323,3.813,3.813,2.229,25.086,9.850,4.689,15.307,10.905,-2.122,22.197,9.241,9.064,10.873,8.046
Thu Dec 05 12:51:17 2024,150,-16.304,-16.304,3.772,3.772,2.245,25.107,9.831,4.753,15.245,10.904,-2.108,22.179,9.207,9.095,10.850,8.022
Thu Dec 05 12:51:17 2024,155,-16.273,-16.273,3.715,3.715,2.260,25.109,9.799,4.839,15.161,10.897,-2.085,22.156,9.165,9.157,10.803,8.003
Thu Dec 05 12:51:17 2024,160,-16.275,-16.275,3.729,3.729,2.279,25.119,9.787,4.861,15.139,10.887,-2.066,22.135,9.142,9.167,10.793,7.979
Thu Dec 05 12:51:17 2024,165,-16.305,-16.305,3.806,3.806,2.301,25.136,9.796,4.827,15.173,10.877,-2.053,22.116,9.137,9.134,10.817,7.952
Thu Dec 05 12:51:17 2024,170,-16.328,-16.328,3.872,3.872,2.319,25.144,9.814,4.801,15.199,10.867,-2.049,22.102,9.139,9.116,10.830,7.955
Thu Dec 05 12:51:17 2024,175,-16.322,-16.322,3.892,3.892,2.322,25.119,9.856,4.807,15.192,10.858,-2.076,22.109,9.160,9.150,10.807,8.039
Thu Dec 05 12:51:17 2024,180,-16.318,-16.318,3.900,3.900,2.330,25.100,9.873,4.808,15.188,10.846,-2.100,22.120,9.164,9.167,10.795,8.079
Thu Dec 05 12:51:17 2024,185,-16.320,-16.320,3.872,3.872,2.369,25.079,9.802,4.797,15.197,10.806,-2.135,22.146,9.098,9.126,10.824,7.971
Thu Dec 05 12:51:17 2024,190,-16.322,-16.322,3.840,3.840,2.409,25.059,9.724,4.784,15.205,10.765,-2.170,22.175,9.026,9.080,10.854,7.852
Thu Dec 05 12:51:17 2024,195,-16.328,-16.328,3.851,3.851,2.432,25.072,9.740,4.772,15.214,10.764,-2.198,22.202,9.054,9.057,10.877,7.815
Thu Dec 05 12:51:17 2024,200,-16.337,-16.337,3.864,3.864,2.450,25.086,9.771,4.755,15.227,10.774,-2.229,22.233,9.098,9.037,10.901,7.788
Thu Dec 05 12:51:17 2024,205,-16.359,-16.359,3.852,3.852,2.401,25.055,9.803,4.727,15.265,10.846,-2.258,22.270,9.158,9.050,10.900,7.834
Thu Dec 05 12:51:17 2024,210,-16.390,-16.390,3.826,3.826,2.314,25.000,9.841,4.690,15.310,10.957,-2.289,22.325,9.232,9.082,10.885,7.920
Thu Dec 05 12:51:17 2024,215,-16.414,-16.414,3.853,3.853,2.286,24.955,9.824,4.677,15.323,11.003,-2.317,22.360,9.246,9.082,10.890,7.943
Thu Dec 05 12:51:17 2024,220,-16.435,-16.435,3.938,3.938,2.309,24.908,9.750,4.686,15.314,10.998,-2.346,22.379,9.208,9.051,10.917,7.909
Thu Dec 05 12:51:17 2024,225,-16.444,-16.444,3.973,3.973,2.347,24.887,9.703,4.715,15.285,11.016,-2.357,22.385,9.197,9.041,10.924,7.910
Thu Dec 05 12:51:17 2024,230,-16.432,-16.432,3.929,3.929,2.396,24.909,9.712,4.764,15.234,11.060,-2.338,22.370,9.227,9.064,10.900,7.958
Thu Dec 05 12:51:17 2024,235,-16.414,-16.414,3.882,3.882,2.435,24.922,9.732,4.801,15.194,11.095,-2.324,22.355,9.245,9.080,10.883,7.994
Thu Dec 05 12:51:17 2024,240,-16.380,-16.380,3.832,3.832,2.424,24.898,9.789,4.784,15.213,11.089,-2.331,22.346,9.208,9.068,10.894,7.975
Thu Dec 05 12:51:17 2024,245,-16.338,-16.338,3.770,3.770,2.413,24.870,9.862,4.765,15.233,11.084,-2.336,22.339,9.161,9.053,10.906,7.949
Thu Dec 05 12:51:17 2024,250,-16.338,-16.338,3.788,3.788,2.462,24.915,9.866,4.818,15.178,11.124,-2.257,22.259,9.122,9.078,10.880,7.926
Thu Dec 05 12:51:17 2024,255,-16.339,-16.339,3.804,3.804,2.508,24.955,9.869,4.866,15.125,11.160,-2.186,22.186,9.087,9.100,10.856,7.904
Thu Dec 05 12:51:17 2024,260,-16.346,-16.346,3.846,3.846,2.526,24.910,9.809,4.863,15.123,11.169,-2.217,22.217,9.035,9.046,10.909,7.810
Thu Dec 05 12:51:17 2024,265,-16.353,-16.353,3.888,3.888,2.532,24.845,9.740,4.844,15.138,11.168,-2.277,22.281,8.988,8.976,10.978,7.712
Thu Dec 05 12:51:17 2024,270,-16.350,-16.350,3.895,3.895,2.530,24.804,9.685,4.827,15.153,11.210,-2.330,22.334,9.036,8.943,11.017,7.716
Thu Dec 05 12:51:17 2024,275,-16.341,-16.341,3.882,3.882,2.524,24.777,9.642,4.813,15.168,11.277,-2.379,22.380,9.137,8.933,11.035,7.780
Thu Dec 05 12:51:17 2024,280,-16.336,-16.336,3.861,3.861,2.512,24.730,9.616,4.808,15.174,11.326,-2.409,22.408,9.218,8.932,11.044,7.854
Thu Dec 05 12:51:17 2024,285,-16.338,-16.338,3.817,3.817,2.483,24.625,9.614,4.819,15.166,11.356,-2.411,22.410,9.280,8.946,11.035,7.974
Thu Dec 05 12:51:17 2024,290,-16.345,-16.345,3.809,3.809,2.473,24.581,9.621,4.830,15.155,11.370,-2.397,22.397,9.302,8.945,11.038,8.018
Thu Dec 05 12:51:17 2024,295,-16.373,-16.373,3.904,3.904,2.510,24.686,9.652,4.848,15.132,11.342,-2.334,22.334,9.218,8.898,11.074,7.868
Thu Dec 05 12:51:17 2024,300,-16.392,-16.392,3.970,3.970,2.535,24.761,9.675,4.864,15.111,11.324,-2.287,22.288,9.156,8.865,11.099,7.759
Thu Dec 05 12:51:17 2024,305,-16.373,-16.373,3.941,3.941,2.509,24.747,9.672,4.911,15.062,11.353,-2.283,22.288,9.123,8.874,11.091,7.761
Thu Dec 05 12:51:17 2024,310,-16.351,-16.351,3.900,3.900,2.477,24.719,9.665,4.955,15.017,11.384,-2.288,22.296,9.104,8.890,11.080,7.783
Thu Dec 05 12:51:17 2024,315,-16.354,-16.354,3.940,3.940,2.491,24.732,9.679,4.961,15.003,11.369,-2.252,22.254,9.093,8.938,11.031,7.704
Thu Dec 05 12:51:17 2024,320,-16.363,-16.363,3.999,3.999,2.516,24.756,9.698,4.957,14.998,11.343,-2.207,22.207,9.084,8.993,10.974,7.601
Thu Dec 05 12:51:17 2024,325,-16.361,-16.361,3.964,3.964,2.490,24.753,9.635,4.960,14.974,11.354,-2.220,22.226,9.085,8.988,10.982,7.562
Thu Dec 05 12:51:17 2024,330,-16.352,-16.352,3.882,3.882,2.440,24.735,9.536,4.964,14.940,11.384,-2.264,22.278,9.093,8.950,11.026,7.563
Thu Dec 05 12:51:17 2024,335,-16.361,-16.361,3.866,3.866,2.409,24.669,9.484,4.964,14.929,11.429,-2.309,22.321,9.137,8.931,11.047,7.655
Thu Dec 05 12:51:17 2024,340,-16.387,-16.387,3.916,3.916,2.400,24.560,9.480,4.960,14.944,11.484,-2.350,22.355,9.214,8.933,11.046,7.829
Thu Dec 05 12:51:17 2024,345,-16.399,-16.399,3.945,3.945,2.431,24.541,9.485,4.981,14.934,11.498,-2.360,22.360,9.238,8.946,11.031,7.916
Thu Dec 05 12:51:17 2024,350,-16.381,-16.381,3.930,3.930,2.527,24.695,9.506,5.042,14.878,11.427,-2.308,22.307,9.156,8.976,10.993,7.813
Thu Dec 05 12:51:17 2024,355,-16.363,-16.363,3.914,3.914,2.624,24.852,9.526,5.103,14.822,11.355,-2.255,22.256,9.074,9.007,10.953,7.709
Thu Dec 05 12:51:17 2024,360,-16.393,-16.393,3.915,3.915,2.610,24.873,9.588,5.105,14.819,11.350,-2.220,22.223,9.041,9.039,10.916,7.666
Thu Dec 05 12:51:17 2024,365,-16.446,-16.446,3.923,3.923,2.540,24.828,9.666,5.077,14.841,11.377,-2.195,22.199,9.032,9.071,10.882,7.652
Thu Dec 05 12:51:17 2024,370,-16.466,-16.466,3.940,3.940,2.499,24.782,9.639,5.063,14.842,11.379,-2.187,22.192,8.990,9.073,10.877,7.606
Thu Dec 05 12:51:17 2024,375,-16.461,-16.461,3.965,3.965,2.478,24.731,9.517,5.062,14.822,11.360,-2.192,22.203,8.916,9.050,10.897,7.526
Thu Dec 05 12:51:17 2024,380,-16.460,-16.460,3.989,3.989,2.467,24.718,9.423,5.056,14.807,11.338,-2.201,22.211,8.871,9.025,10.923,7.457
Thu Dec 05 12:51:17 2024,385,-16.468,-16.468,4.008,4.008,2.478,24.786,9.388,5.040,21.040,11.309,-2.218,22.220,8.891,8.996,10.962,7.413
Thu Dec 05 12:51:17 2024,390,-16.482,-16.482,4.027,4.027,2.475,24.820,9.355,5.024,25.193,11.295,-2.232,22.238,8.926,8.975,10.992,7.389
Thu Dec 05 12:51:17 2024,395,-16.510,-16.510,4.039,4.039,2.422,24.690,9.342,5.009,25.171,11.346,-2.228,22.236,9.003,8.998,10.973,7.457
Thu Dec 05 12:51:17 2024,400,-16.534,-16.534,4.047,4.047,2.374,24.565,9.325,4.996,20.005,11.386,-2.228,22.235,9.070,9.014,10.962,7.518
Thu Dec 05 12:51:17 2024,405,-16.533,-16.533,4.028,4.028,2.364,24.480,9.274,4.999,14.866,11.336,-2.255,22.257,9.042,8.955,11.014,7.510
Thu Dec 05 12:51:17 2024,410,-16.526,-16.526,4.002,4.002,2.366,24.410,9.217,5.006,14.882,11.264,-2.288,22.288,8.992,8.885,11.075,7.489
Thu Dec 05 12:51:17 2024,415,-16.519,-16.519,3.990,3.990,2.396,24.449,9.202,5.008,14.900,11.223,-2.288,22.291,8.954,8.894,11.062,7.507
Thu Dec 05 12:51:17 2024,420,-16.512,-16.512,3.984,3.984,2.434,24.526,9.205,5.007,14.918,11.197,-2.276,22.285,8.924,8.934,11.022,7.537
Thu Dec 05 12:51:17 2024,425,-16.515,-16.515,3.962,3.962,2.444,24.542,9.230,5.032,14.898,11.237,-2.251,22.274,8.918,8.971,10.980,7.567
Thu Dec 05 12:51:17 2024,430,-16.524,-16.524,3.932,3.932,2.428,24.506,9.268,5.072,14.851,11.322,-2.221,22.262,8.933,9.000,10.942,7.592
Thu Dec 05 12:51:17 2024,435,-16.540,-16.540,3.934,3.934,2.412,24.482,9.295,5.086,14.834,11.374,-2.203,19.998,8.941,9.012,10.918,7.561
Thu Dec 05 12:51:17 2024,440,-16.565,-16.565,3.996,3.996,2.397,24.489,9.296,5.049,14.875,11.352,-2.210,22.251,8.933,8.991,10.921,7.436
Thu Dec 05 12:51:17 2024,445,-16.576,-16.576,4.028,4.028,2.388,24.513,9.319,5.028,14.897,11.354,-2.203,22.232,8.943,8.986,10.913,7.347
Thu Dec 05 12:51:17 2024,450,-16.536,-16.536,3.958,3.958,2.398,24.602,9.425,5.056,14.852,11.442,-2.144,22.157,9.016,9.041,10.869,7.382
Thu Dec 05 12:51:17 2024,455,-16.492,-16.492,3.890,3.890,2.414,24.708,9.528,5.087,14.801,11.526,-2.081,22.084,9.087,9.100,10.820,7.413
Thu Dec 05 12:51:17 2024,460,-16.455,-16.455,3.914,3.914,2.481,24.910,9.474,5.126,14.743,11.467,-2.038,22.038,9.054,9.164,10.761,7.377
Thu Dec 05 12:51:17 2024,465,-16.421,-16.421,3.938,3.938,2.545,25.105,9.422,5.164,14.685,11.410,-1.996,22.002,9.022,9.225,10.704,7.342
Thu Dec 05 12:51:17 2024,470,-16.439,-16.439,3.941,3.941,2.520,25.056,9.388,5.101,14.754,11.402,-2.025,22.028,9.017,9.177,10.750,7.322
Thu Dec 05 12:51:17 2024,475,-16.464,-16.464,3.940,3.940,2.485,24.972,9.363,5.032,14.833,11.403,-2.060,22.061,9.016,9.119,10.805,7.308
Thu Dec 05 12:51:17 2024,480,-16.482,-16.482,3.960,3.960,2.477,24.914,9.405,5.021,14.852,11.438,-2.084,22.085,9.053,9.124,10.797,7.333
Thu Dec 05 12:51:17 2024,485,-16.493,-16.493,4.000,4.000,2.496,24.882,9.514,5.069,14.810,11.504,-2.096,22.101,9.125,9.193,10.728,7.394
Thu Dec 05 12:51:17 2024,490,-16.483,-16.483,3.974,3.974,2.490,24.868,9.567,5.093,14.781,11.537,-2.099,22.109,9.153,9.221,10.701,7.407
Thu Dec 05 12:51:17 2024,495,-16.431,-16.431,3.830,3.830,2.441,24.874,9.564,5.094,14.756,11.537,-2.091,22.107,9.127,9.198,10.723,7.352
Thu Dec 05 12:51:17 2024,500,-16.410,-16.410,3.770,3.770,2.419,24.882,9.550,5.098,25.263,11.534,-2.080,22.100,9.107,9.189,10.734,7.328
Thu Dec 05 12:51:17 2024,505,-16.446,-16.446,3.875,3.875,2.450,24.896,9.504,5.111,25.274,11.524,-2.060,22.076,9.096,9.208,10.720,7.368
Thu Dec 05 12:51:17 2024,510,-16.470,-16.470,3.947,3.947,2.474,24.907,9.478,5.118,20.006,11.519,-2.048,22.061,9.092,9.218,10.713,7.402
Thu Dec 05 12:51:17 2024,515,-16.437,-16.437,3.873,3.873,2.483,24.898,9.544,5.094,14.776,11.539,-2.076,22.085,9.120,9.190,10.739,7.422
Thu Dec 05 12:51:17 2024,520,-16.402,-16.402,3.794,3.794,2.490,24.892,9.614,5.072,14.821,11.562,-2.104,22.110,9.148,9.166,10.762,7.439
Thu Dec 05 12:51:17 2024,525,-16.423,-16.423,3.832,3.832,2.541,24.967,9.689,5.105,14.795,11.607,-2.084,22.086,9.163,9.218,10.704,7.492
Thu Dec 05 12:51:17 2024,530,-16.456,-16.456,3.895,3.895,2.601,25.058,9.761,5.150,14.753,11.656,-2.054,22.054,9.174,9.287,10.626,7.552
Thu Dec 05 12:51:17 2024,535,-16.463,-16.463,3.928,3.928,2.595,25.071,9.805,5.140,14.769,11.618,-2.057,22.057,9.159,9.296,10.622,7.578
Thu Dec 05 12:51:17 2024,540,-16.459,-16.459,3.946,3.946,2.565,25.053,9.833,5.110,14.806,11.551,-2.073,22.074,9.136,9.281,10.645,7.589
Thu Dec 05 12:51:17 2024,545,-16.430,-16.430,3.920,3.920,2.572,25.039,9.815,5.102,14.825,11.488,-2.082,22.083,9.114,9.287,10.644,7.626
Thu Dec 05 12:51:17 2024,550,-16.391,-16.391,3.865,3.865,2.608,25.032,9.766,5.115,14.822,11.450,-2.082,22.082,9.102,9.309,10.622,7.673
Thu Dec 05 12:51:17 2024,555,-16.381,-16.381,3.835,3.835,2.620,25.020,9.730,5.101,14.848,11.393,-2.089,22.089,9.087,9.321,10.611,7.725
Thu Dec 05 12:51:17 2024,560,-16.436,-16.436,3.866,3.866,2.578,24.999,9.739,5.041,14.920,11.325,-2.105,22.106,9.076,9.310,10.627,7.764
Thu Dec 05 12:51:17 2024,565,-16.472,-16.472,3.896,3.896,2.553,24.985,9.754,5.000,14.967,11.292,-2.113,22.117,9.081,9.306,10.636,7.801
Thu Dec 05 12:51:17 2024,570,-16.463,-16.463,3.926,3.926,2.571,24.979,9.790,5.003,14.964,11.343,-2.095,22.104,9.143,9.323,10.618,7.869
Thu Dec 05 12:51:17 2024,575,-16.453,-16.453,3.956,3.956,2.590,24.974,9.826,5.005,14.962,11.393,-2.077,22.091,9.204,9.341,10.601,7.937
Thu Dec 05 12:51:17 2024,580,-16.443,-16.443,3.963,3.963,2.622,25.046,9.862,5.025,14.944,11.348,-2.050,22.070,9.176,9.328,10.612,7.874
Thu Dec 05 12:51:17 2024,585,-16.436,-16.436,3.967,3.967,2.650,25.120,9.894,5.045,14.927,11.295,-2.026,22.051,9.140,9.313,10.625,7.802
Thu Dec 05 12:51:17 2024,590,-16.454,-16.454,3.977,3.977,2.609,25.100,9.935,5.021,14.956,11.319,-2.033,22.067,9.181,9.318,10.627,7.868
Thu Dec 05 12:51:17 2024,595,-16.488,-16.488,3.991,3.991,2.531,25.035,9.982,4.974,15.006,11.381,-2.059,22.102,9.263,9.333,10.622,8.005
Thu Dec 05 12:51:17 2024,600,-16.486,-16.486,3.966,3.966,2.518,24.994,9.992,4.972,15.006,11.405,-2.054,22.112,9.279,9.320,10.637,8.000
Thu Dec 05 12:51:17 2024,605,-16.464,-16.464,3.920,3.920,2.542,24.966,9.982,4.995,14.976,11.407,-2.034,22.110,9.259,9.292,10.661,7.918
Thu Dec 05 12:51:17 2024,610,-16.451,-16.451,3.903,3.903,2.556,24.932,9.959,5.017,14.946,11.431,-2.014,22.101,9.268,9.288,10.664,7.903
Thu Dec 05 12:51:17 2024,615,-16.459,-16.459,3.944,3.944,2.549,24.904,9.926,5.028,14.934,11.478,-2.004,22.079,9.320,9.327,10.631,8.010
Thu Dec 05 12:51:17 2024,620,-16.466,-16.466,3.974,3.974,2.545,24.906,9.918,5.034,14.926,11.523,-1.983,22.055,9.376,9.378,10.586,8.119
Thu Dec 05 12:51:17 2024,625,-16.464,-16.464,3.931,3.931,2.556,25.029,10.016,5.015,14.943,11.520,-1.937,22.043,9.397,9.428,10.537,8.135
Thu Dec 05 12:51:17 2024,630,-16.467,-16.467,3.900,3.900,2.563,25.125,10.095,4.995,14.961,11.515,-1.904,22.042,9.413,9.474,10.494,8.151
Thu Dec 05 12:51:17 2024,635,-16.492,-16.492,3.957,3.957,2.531,25.030,10.036,4.980,14.980,11.498,-1.961,22.081,9.401,9.480,10.496,8.153
Thu Dec 05 12:51:17 2024,640,-16.511,-16.511,4.012,4.012,2.508,24.937,9.973,4.970,14.994,11.481,-2.012,22.112,9.387,9.476,10.503,8.151
Thu Dec 05 12:51:17 2024,645,-16.505,-16.505,4.032,4.032,2.546,24.930,9.949,4.977,14.998,11.438,-1.987,22.062,9.363,9.461,10.513,8.110
Thu Dec 05 12:51:17 2024,650,-16.489,-16.489,4.030,4.030,2.605,24.966,9.951,4.991,14.995,11.394,-1.932,21.988,9.340,9.445,10.522,8.062
Thu Dec 05 12:51:17 2024,655,-16.506,-16.506,4.051,4.051,2.621,24.987,9.907,4.982,15.007,11.321,-1.911,21.962,9.285,9.481,10.488,8.002
Thu Dec 05 12:51:17 2024,660,-16.530,-16.530,4.077,4.077,2.628,25.004,9.854,4.968,15.022,11.243,-1.897,21.946,9.225,9.529,10.445,7.941
Thu Dec 05 12:51:17 2024,665,-16.557,-16.557,4.108,4.108,2.604,24.982,9.822,4.929,15.062,11.215,-1.911,21.959,9.199,9.543,10.434,7.929
Thu Dec 05 12:51:17 2024,670,-16.589,-16.589,4.155,4.155,2.539,24.888,9.822,4.833,15.159,11.263,-1.963,22.008,9.230,9.488,10.490,7.994
Thu Dec 05 12:51:17 2024,675,-16.622,-16.622,4.203,4.203,2.496,24.833,9.817,4.780,15.213,11.284,-1.994,22.037,9.239,9.456,10.521,8.009
Thu Dec 05 12:51:17 2024,680,-16.683,-16.683,4.293,4.293,2.473,24.839,9.790,4.796,15.192,11.253,-1.996,22.037,9.195,9.465,10.505,7.899
Thu Dec 05 12:51:17 2024,685,-16.740,-16.740,4.376,4.376,2.457,24.862,9.760,4.821,15.158,11.228,-1.994,22.036,9.145,9.479,10.484,7.776
Thu Dec 05 12:51:17 2024,690,-16.726,-16.726,4.348,4.348,2.488,24.952,9.749,4.874,15.092,11.251,-1.974,22.032,9.116,9.508,10.458,7.706
Thu Dec 05 12:51:17 2024,695,-16.699,-16.699,4.301,4.301,2.529,25.067,9.738,4.938,15.009,11.284,-1.947,22.031,9.086,9.542,10.428,7.630
Thu Dec 05 12:51:17 2024,700,-16.679,-16.679,4.324,4.324,2.516,25.206,9.803,4.990,14.921,11.405,-1.897,22.051,9.194,9.601,10.379,7.671
Thu Dec 05 12:51:17 2024,705,-16.663,-16.663,4.350,4.350,2.500,25.321,9.864,5.031,14.846,11.512,-1.855,22.083,9.297,9.651,10.336,7.717
Thu Dec 05 12:51:17 2024,710,-16.644,-16.644,4.326,4.326,2.510,25.426,9.913,5.068,14.792,11.612,-1.848,22.102,9.375,9.721,10.271,7.834
Thu Dec 05 12:51:17 2024,715,-16.632,-16.632,4.280,4.280,2.534,25.478,9.934,5.086,14.776,11.664,-1.865,22.096,9.406,9.774,10.222,7.945
Thu Dec 05 12:51:17 2024,720,-16.622,-16.622,4.253,4.253,2.570,25.491,9.905,5.097,14.792,11.629,-1.869,22.037,9.364,9.801,10.194,7.971
Thu Dec 05 12:51:17 2024,725,-16.619,-16.619,4.259,4.259,2.606,25.451,9.827,5.093,14.833,11.506,-1.854,21.951,9.252,9.784,10.207,7.883
Thu Dec 05 12:51:17 2024,730,-16.628,-16.628,4.283,4.283,2.633,25.417,9.770,5.074,14.873,11.422,-1.849,21.906,9.172,9.779,10.207,7.821
Thu Dec 05 12:51:17 2024,735,-16.667,-16.667,4.350,4.350,2.639,25.395,9.764,5.016,14.928,11.436,-1.869,21.925,9.172,9.808,10.181,7.820
Thu Dec 05 12:51:17 2024,740,-16.695,-16.695,4.394,4.394,2.646,25.370,9.760,4.973,14.970,11.446,-1.882,21.932,9.166,9.828,10.161,7.816
Thu Dec 05 12:51:17 2024,745,-16.676,-16.676,4.328,4.328,2.665,25.295,9.772,4.993,14.966,11.444,-1.866,21.878,9.122,9.812,10.169,7.780
Thu Dec 05 12:51:17 2024,750,-16.657,-16.657,4.263,4.263,2.685,25.222,9.784,5.012,14.960,11.441,-1.849,21.849,9.077,9.798,10.174,7.745
Thu Dec 05 12:51:17 2024,755,-16.668,-16.668,4.294,4.294,2.687,25.213,9.687,4.994,14.973,11.396,-1.863,21.863,9.052,9.848,10.125,7.746
Thu Dec 05 12:51:17 2024,760,-16.681,-16.681,4.330,4.330,2.690,25.202,9.576,4.974,14.989,11.345,-1.878,21.880,9.023,9.906,10.069,7.748
Thu Dec 05 12:51:17 2024,765,-16.672,-16.672,4.324,4.324,2.663,25.228,9.600,4.928,15.028,11.386,-1.903,21.904,9.093,9.942,10.036,7.779
Thu Dec 05 12:51:17 2024,770,-16.656,-16.656,4.303,4.303,2.632,25.264,9.672,4.884,15.064,11.454,-1.926,21.943,9.186,9.962,10.022,7.813
Thu Dec 05 12:51:17 2024,775,-16.641,-16.641,4.288,4.288,2.628,25.352,9.743,4.878,15.061,11.496,-1.924,21.962,9.223,9.976,10.007,7.809
Thu Dec 05 12:51:17 2024,780,-16.628,-16.628,4.280,4.280,2.652,25.492,9.812,4.913,15.018,11.512,-1.896,21.944,9.204,9.987,9.994,7.762
Thu Dec 05 12:51:17 2024,785,-16.619,-16.619,4.282,4.282,2.662,25.583,9.870,4.946,14.974,11.552,-1.874,21.946,9.227,9.997,9.985,7.743
Thu Dec 05 12:51:17 2024,790,-16.616,-16.616,4.299,4.299,2.644,25.582,9.902,4.972,14.934,11.631,-1.866,21.984,9.314,10.005,9.983,7.773
Thu Dec 05 12:51:17 2024,795,-16.620,-16.620,4.310,4.310,2.618,25.572,9.926,4.978,14.917,11.676,-1.858,22.022,9.375,10.005,9.986,7.796
Thu Dec 05 12:51:17 2024,800,-16.648,-16.648,4.304,4.304,2.558,25.546,9.937,4.928,14.966,11.636,-1.850,22.036,9.362,9.986,10.006,7.797
Thu Dec 05 12:51:17 2024,805,-16.666,-16.666,4.300,4.300,2.522,25.520,9.933,4.898,14.998,11.596,-1.847,22.045,9.342,9.969,10.023,7.787
Thu Dec 05 12:51:17 2024,810,-16.661,-16.661,4.298,4.298,2.547,25.494,9.894,4.924,14.979,11.571,-1.849,22.052,9.325,9.958,10.033,7.750
Thu Dec 05 12:51:17 2024,815,-16.648,-16.648,4.300,4.300,2.600,25.468,9.835,4.978,14.934,11.552,-1.856,22.058,9.305,9.948,10.042,7.701
Thu Dec 05 12:51:17 2024,820,-16.651,-16.651,4.311,4.311,2.602,25.466,9.826,4.988,14.922,11.568,-1.867,22.065,9.308,9.948,10.043,7.721
Thu Dec 05 12:51:17 2024,825,-16.656,-16.656,4.322,4.322,2.596,25.466,9.828,4.992,14.916,11.593,-1.877,22.072,9.316,9.950,10.042,7.753
Thu Dec 05 12:51:17 2024,830,-16.660,-16.660,4.332,4.332,2.590,25.467,9.831,4.996,14.909,11.617,-1.888,22.078,9.323,9.953,10.041,7.785
Thu Dec 05 12:51:17 2024,835,-16.665,-16.665,4.343,4.343,2.584,25.468,9.833,5.000,14.902,11.641,-1.898,22.084,9.331,9.955,10.039,7.817
Thu Dec 05 12:51:17 2024,840,-16.654,-16.654,4.335,4.335,2.590,25.464,9.850,5.016,14.883,11.673,-1.893,22.085,9.350,9.967,10.028,7.838
Thu Dec 05 12:51:17 2024,845,-16.722,-16.722,4.455,4.455,2.604,25.543,9.855,4.960,14.936,11.595,-1.944,22.116,9.279,9.903,10.094,7.835
Thu Dec 05 12:51:17 2024,850,-16.750,-16.750,4.479,4.479,2.607,25.548,9.862,4.933,14.969,11.572,-1.978,22.139,9.266,9.878,10.120,7.865
Thu Dec 05 12:51:17 2024,855,-16.761,-16.761,4.421,4.421,2.594,25.481,9.865,4.908,15.009,11.577,-2.023,22.169,9.294,9.873,10.126,7.948
Thu Dec 05 12:51:17 2024,860,-16.760,-16.760,4.420,4.420,2.630,25.520,9.872,4.923,15.001,11.558,-1.985,22.124,9.282,9.906,10.093,7.962
Thu Dec 05 12:51:17 2024,865,-16.758,-16.758,4.419,4.419,2.667,25.560,9.879,4.937,14.994,11.539,-1.946,22.079,9.271,9.939,10.060,7.977
Thu Dec 05 12:51:17 2024,870,-16.757,-16.757,4.418,4.418,2.703,25.599,9.886,4.952,14.986,11.520,-1.908,22.034,9.259,9.971,10.027,7.991
Thu Dec 05 12:51:17 2024,875,-16.756,-16.756,4.418,4.418,2.739,25.638,9.893,4.966,14.979,11.501,-1.869,21.989,9.248,10.004,9.994,8.005
Thu Dec 05 12:51:17 2024,880,-16.746,-16.746,4.405,4.405,2.776,25.684,9.915,4.989,14.963,11.480,-1.842,21.956,9.221,10.033,9.966,8.022
Thu Dec 05 12:51:17 2024,885,-16.731,-16.731,4.418,4.418,2.802,25.670,9.969,4.992,14.972,11.454,-1.840,22.002,9.276,10.015,9.984,8.040
Thu Dec 05 12:51:17 2024,890,-16.717,-16.717,4.432,4.432,2.828,25.657,10.023,4.996,14.981,11.429,-1.839,22.048,9.330,9.997,10.002,8.057
Thu Dec 05 12:51:17 2024,895,-16.715,-16.715,4.467,4.467,2.827,25.631,10.083,4.994,14.985,11.471,-1.836,22.114,9.418,10.002,9.997,8.152
Thu Dec 05 12:51:17 2024,900,-16.725,-16.725,4.510,4.510,2.799,25.617,10.144,4.999,14.968,11.595,-1.829,22.169,9.504,10.052,9.948,8.342
Thu Dec 05 12:51:17 2024,905,-16.747,-16.747,4.591,4.591,2.767,25.602,10.182,5.008,14.943,11.679,-1.817,22.253,9.560,10.079,9.920,8.440
Thu Dec 05 12:51:17 2024,910,-16.784,-16.784,4.714,4.714,2.741,25.592,10.163,5.023,14.912,11.658,-1.800,22.361,9.543,10.053,9.946,8.330
Thu Dec 05 12:51:17 2024,915,-16.828,-16.828,4.879,4.879,2.721,25.585,10.152,5.036,14.883,11.642,-1.781,22.480,9.531,10.035,9.965,8.239
Thu Dec 05 12:51:17 2024,920,-16.876,-16.876,5.157,5.157,2.747,25.604,10.187,5.026,14.893,11.658,-1.762,22.529,9.546,10.064,9.935,8.290
Thu Dec 05 12:51:17 2024,925,-16.939,-16.939,5.501,5.501,2.775,25.626,10.240,5.009,14.912,11.656,-1.740,22.577,9.560,10.110,9.884,8.363
Thu Dec 05 12:51:17 2024,930,-16.991,-16.991,5.772,5.772,2.786,25.645,10.303,4.991,14.942,11.608,-1.726,22.579,9.564,10.170,9.821,8.437
Thu Dec 05 12:51:17 2024,935,-17.058,-17.058,6.089,6.089,2.794,25.667,10.392,4.965,14.985,11.524,-1.711,22.560,9.562,10.254,9.731,8.536
Thu Dec 05 12:51:17 2024,940,-17.112,-17.112,6.425,6.425,2.835,25.635,10.443,4.975,14.979,11.521,-1.685,22.513,9.541,10.299,9.689,8.593
Thu Dec 05 12:51:17 2024,945,-17.156,-17.156,6.729,6.729,2.884,25.583,10.472,5.000,14.953,11.552,-1.657,22.459,9.514,10.321,9.673,8.626
Thu Dec 05 12:51:17 2024,950,-17.240,-17.240,6.998,6.998,2.847,25.523,10.556,4.986,14.961,11.616,-1.631,22.503,9.575,10.345,9.645,8.720
Thu Dec 05 12:51:17 2024,955,-17.326,-17.326,7.252,7.252,2.795,25.460,10.645,4.966,14.976,11.680,-1.605,22.568,9.653,10.366,9.620,8.822
Thu Dec 05 12:51:17 2024,960,-17.397,-17.397,7.503,7.503,2.745,25.383,10.718,4.946,14.998,11.732,-1.582,22.640,9.735,10.371,9.610,8.915
Thu Dec 05 12:51:17 2024,965,-17.374,-17.374,7.619,7.619,2.761,25.323,10.690,4.954,15.006,11.711,-1.575,22.640,9.744,10.339,9.650,8.913
Thu Dec 05 12:51:17 2024,970,-17.343,-17.343,7.757,7.757,2.772,25.260,10.642,4.955,15.016,11.695,-1.558,22.642,9.751,10.319,9.674,8.921
Thu Dec 05 12:51:17 2024,975,-17.309,-17.309,7.866,7.866,2.761,25.235,10.556,4.935,15.028,11.714,-1.519,22.652,9.750,10.360,9.628,8.959
Thu Dec 05 12:51:17 2024,980,-17.289,-17.289,7.969,7.969,2.747,25.198,10.487,4.912,15.049,11.709,-1.490,22.654,9.734,10.384,9.601,8.960
Thu Dec 05 12:51:17 2024,985,-17.311,-17.311,8.095,8.095,2.721,25.106,10.453,4.869,15.108,11.613,-1.483,22.623,9.663,10.360,9.631,8.833
Thu Dec 05 12:51:17 2024,990,-17.339,-17.339,8.190,8.190,2.703,25.015,10.429,4.838,15.149,11.538,-1.479,22.572,9.603,10.326,9.670,8.727
Thu Dec 05 12:51:17 2024,995,-17.376,-17.376,8.314,8.314,2.683,24.874,10.375,4.807,15.187,11.484,-1.463,22.463,9.542,10.276,9.723,8.638
Thu Dec 05 12:51:18 2024,0,-17.413,-17.413,8.438,8.438,2.679,24.749,10.303,4.793,15.202,11.474,-1.433,22.342,9.503,10.219,9.781,8.600
Thu Dec 05 12:51:18 2024,5,-17.450,-17.450,8.566,8.566,2.694,24.707,10.246,4.791,15.204,11.448,-1.404,22.302,9.471,10.157,9.842,8.549
Thu Dec 05 12:51:18 2024,10,-17.488,-17.488,8.699,8.699,2.740,24.790,10.214,4.805,15.186,11.396,-1.374,22.384,9.451,10.089,9.910,8.480
Thu Dec 05 12:51:18 2024,15,-17.570,-17.570,8.904,8.904,2.762,24.765,10.192,4.799,15.195,11.350,-1.373,22.384,9.425,10.002,9.997,8.455
Thu Dec 05 12:51:18 2024,20,-17.692,-17.692,9.148,9.148,2.744,24.599,10.190,4.765,15.234,11.323,-1.412,22.271,9.396,9.914,10.085,8.499
Thu Dec 05 12:51:18 2024,25,-17.813,-17.813,9.386,9.386,2.732,24.503,10.226,4.713,15.287,11.311,-1.450,22.265,9.403,9.832,10.166,8.540
Thu Dec 05 12:51:18 2024,30,-17.929,-17.929,9.610,9.610,2.726,24.441,10.277,4.655,15.345,11.307,-1.486,22.302,9.424,9.757,10.240,8.579
Thu Dec 05 12:51:18 2024,35,-18.070,-18.070,9.873,9.873,2.724,24.432,10.366,4.597,15.403,11.308,-1.514,22.392,9.462,9.704,10.291,8.626
Thu Dec 05 12:51:18 2024,40,-18.291,-18.291,10.272,10.272,2.723,24.493,10.515,4.600,15.400,11.294,-1.499,22.445,9.478,9.740,10.248,8.700
Thu Dec 05 12:51:18 2024,45,-18.565,-18.565,10.761,10.761,2.723,24.576,10.701,4.613,15.387,11.275,-1.475,22.501,9.495,9.797,10.181,8.792
Thu Dec 05 12:51:18 2024,50,-18.725,-18.725,11.003,11.003,2.755,24.616,10.823,4.632,15.367,11.345,-1.446,22.536,9.566,9.837,10.129,8.899
Thu Dec 05 12:51:18 2024,55,-18.880,-18.880,11.224,11.224,2.795,24.652,10.945,4.654,15.344,11.436,-1.414,22.573,9.651,9.878,10.076,9.018
Thu Dec 05 12:51:18 2024,60,-19.035,-19.035,11.480,11.480,2.812,24.788,11.063,4.673,15.320,11.467,-1.402,22.561,9.630,9.884,10.065,9.004
Thu Dec 05 12:51:18 2024,65,-19.162,-19.162,11.704,11.704,2.818,24.944,11.157,4.687,15.296,11.465,-1.402,22.530,9.568,9.875,10.076,8.936
Thu Dec 05 12:51:18 2024,70,-19.281,-19.281,11.985,11.985,2.827,25.052,11.185,4.696,15.277,11.428,-1.398,22.565,9.511,9.883,10.063,8.877
Thu Dec 05 12:51:18 2024,75,-19.345,-19.345,12.229,12.229,2.836,25.064,11.127,4.695,15.272,11.365,-1.392,22.664,9.479,9.908,10.027,8.848
Thu Dec 05 12:51:18 2024,80,-19.413,-19.413,12.463,12.463,2.844,25.075,11.106,4.704,15.256,11.347,-1.388,22.753,9.489,9.938,9.984,8.866
Thu Dec 05 12:51:18 2024,85,-19.474,-19.474,12.633,12.633,2.845,25.084,11.164,4.731,15.218,11.425,-1.394,22.806,9.584,9.972,9.934,8.979
Thu Dec 05 12:51:18 2024,90,-19.531,-19.531,12.869,12.869,2.858,25.096,11.234,4.757,15.184,11.499,-1.393,22.833,9.667,9.998,9.894,9.079
Thu Dec 05 12:51:18 2024,95,-19.594,-19.594,14.094,14.094,3.016,25.152,11.439,4.777,15.189,11.500,-1.324,22.609,9.630,9.968,9.960,9.050
Thu Dec 05 12:51:18 2024,100,-19.640,-19.640,15.270,15.270,3.118,25.161,11.590,4.786,15.192,11.496,-1.280,22.426,9.580,9.924,10.028,9.029
Thu Dec 05 12:51:18 2024,105,-19.658,-19.658,16.851,16.851,3.103,25.029,11.651,4.770,15.208,11.474,-1.294,22.276,9.473,9.821,10.147,9.011
Thu Dec 05 12:51:18 2024,110,-19.662,-19.662,18.474,18.474,3.033,24.842,11.663,4.742,15.228,11.446,-1.334,22.164,9.352,9.701,10.277,9.000
Thu Dec 05 12:51:18 2024,115,-19.607,-19.607,20.076,20.076,3.109,24.692,11.767,4.726,15.258,11.415,-1.370,21.939,9.282,9.751,10.243,9.023
Thu Dec 05 12:51:18 2024,120,-19.555,-19.555,21.308,21.308,3.194,24.602,11.872,4.715,15.278,11.390,-1.394,21.777,9.239,9.826,10.173,9.046
Thu Dec 05 12:51:18 2024,125,-19.554,-19.554,23.366,23.366,3.215,24.544,12.137,4.683,15.311,11.346,-1.377,21.650,9.127,9.905,10.093,9.029
Thu Dec 05 12:51:18 2024,130,-19.652,-19.652,26.264,26.264,3.117,24.561,12.602,4.627,15.348,11.283,-1.289,21.598,8.926,9.965,10.031,8.944
Thu Dec 05 12:51:18 2024,135,-19.678,-19.678,28.796,28.796,2.931,24.380,12.716,4.536,15.424,11.186,-1.303,21.538,8.745,9.930,10.064,8.842
Thu Dec 05 12:51:18 2024,140,-19.585,-19.585,30.722,30.722,2.605,23.875,12.259,4.382,15.586,11.035,-1.482,21.534,8.596,9.741,10.253,8.708
Thu Dec 05 12:51:18 2024,145,-19.512,-19.512,32.663,32.663,2.266,23.310,11.860,4.218,15.768,10.901,-1.672,21.676,8.472,9.552,10.441,8.577
Thu Dec 05 12:51:18 2024,150,-19.594,-19.594,32.999,32.999,2.114,22.948,11.915,4.140,15.859,10.921,-1.774,18.140,8.526,9.494,10.493,8.553
Thu Dec 05 12:51:18 2024,155,-19.836,-19.836,33.489,33.489,1.937,22.546,11.980,4.048,15.911,10.946,-1.892,17.832,8.590,9.430,10.550,8.525
Thu Dec 05 12:51:18 2024,160,-19.802,-19.802,33.865,33.865,2.600,22.744,11.958,4.214,15.669,10.954,-1.855,17.626,8.538,9.585,10.382,8.592
Thu Dec 05 12:51:18 2024,165,-19.797,-19.797,34.306,34.306,3.357,16.642,11.927,4.407,15.366,10.965,-1.805,17.369,8.474,9.765,10.186,8.669
Thu Dec 05 12:51:18 2024,170,-20.326,20.326,34.792,34.792,3.725,16.256,11.772,4.609,15.238,10.800,-1.748,17.590,8.269,10.186,9.807,8.493
Thu Dec 05 12:51:18 2024,175,-21.037,21.037,35.190,35.190,3.857,16.106,11.611,4.765,15.173,10.612,-1.701,17.906,8.064,10.588,9.407,8.267
Thu Dec 05 12:51:18 2024,180,-21.758,21.758,36.066,36.066,3.850,16.032,11.563,4.840,15.098,10.609,-1.693,18.001,8.136,10.776,9.187,8.311
Thu Dec 05 12:51:18 2024,185,-22.238,22.238,37.249,37.249,3.684,15.996,11.666,4.801,15.030,10.826,-1.731,17.840,8.518,10.652,9.295,8.669
Thu Dec 05 12:51:18 2024,190,-22.736,22.736,37.537,37.537,3.434,16.030,11.766,4.708,14.972,10.988,-1.732,17.768,8.908,10.566,9.342,8.994
Thu Dec 05 12:51:18 2024,195,-23.156,23.156,36.534,36.534,3.077,16.249,11.862,4.541,14.960,11.067,-1.684,17.837,9.287,10.539,9.295,9.259
Thu Dec 05 12:51:18 2024,200,-23.641,23.641,35.386,35.386,2.694,16.483,11.955,4.352,14.966,11.164,-1.647,17.928,9.677,10.514,9.220,9.516
Thu Dec 05 12:51:18 2024,205,-23.769,23.769,33.386,33.386,2.166,17.030,12.016,3.973,15.471,11.396,-1.714,18.113,10.045,10.559,30.960,9.628
Thu Dec 05 12:51:18 2024,210,-23.998,23.998,31.459,31.459,1.676,17.548,12.074,3.598,15.953,11.600,-1.796,21.833,10.387,10.565,31.112,9.720
Thu Dec 05 12:51:18 2024,215,-24.025,24.025,30.295,30.295,1.499,17.911,12.110,3.310,16.259,11.613,-1.935,21.958,10.501,10.346,30.946,9.656
Thu Dec 05 12:51:18 2024,220,-24.131,24.131,28.941,28.941,1.291,18.326,12.153,2.976,16.613,11.629,-2.096,22.108,10.634,10.092,30.756,9.584
Thu Dec 05 12:51:18 2024,225,-24.171,24.171,27.846,27.846,1.132,18.496,12.177,2.782,16.739,11.659,-2.318,22.320,10.796,9.794,30.510,9.553
Thu Dec 05 12:51:18 2024,230,-24.225,24.225,26.851,26.851,0.990,18.583,12.195,2.634,16.783,11.692,-2.553,22.553,10.963,9.488,30.254,9.537
Thu Dec 05 12:51:18 2024,235,-24.181,24.181,26.096,26.096,0.765,18.627,12.069,2.477,16.907,11.673,-2.749,22.749,10.965,9.295,30.153,9.559
Thu Dec 05 12:51:18 2024,240,-24.105,24.105,25.544,25.544,0.528,18.582,11.894,2.336,17.056,11.635,-2.899,22.900,10.889,9.179,30.143,9.595
Thu Dec 05 12:51:18 2024,245,-24.059,24.059,24.908,24.908,0.278,18.598,11.787,2.230,17.206,11.689,-2.994,22.998,10.857,9.100,30.132,9.586
Thu Dec 05 12:51:18 2024,250,-24.062,24.062,24.279,24.279,0.058,18.675,11.783,2.186,17.330,11.850,-3.003,23.014,10.883,9.081,30.121,9.524
Thu Dec 05 12:51:18 2024,255,-24.149,24.149,23.606,23.606,-0.146,18.673,11.722,2.160,17.422,11.992,-3.029,23.061,10.881,9.053,30.094,9.440
Thu Dec 05 12:51:18 2024,260,-24.360,24.360,23.173,23.173,-0.221,18.570,11.567,2.185,17.407,12.022,-3.079,21.023,10.818,9.019,30.047,9.351
Thu Dec 05 12:51:18 2024,265,-24.556,24.556,22.712,22.712,-0.280,18.480,11.407,2.220,17.377,12.045,-3.110,16.764,10.756,8.997,30.018,9.271
Thu Dec 05 12:51:18 2024,270,-24.520,24.520,22.355,22.355,-0.229,18.520,11.314,2.285,17.289,12.019,-3.018,16.807,10.744,9.050,30.098,9.287
Thu Dec 05 12:51:18 2024,275,-24.472,24.472,22.027,22.027,-0.165,18.578,11.244,2.348,17.196,11.984,-2.911,16.868,10.749,9.107,30.190,9.319
Thu Dec 05 12:51:18 2024,280,-24.545,24.545,21.666,21.666,-0.158,18.622,11.246,2.366,17.113,11.944,-2.849,16.965,10.844,9.087,30.228,9.359
Thu Dec 05 12:51:18 2024,285,-24.636,24.636,21.369,21.369,-0.165,18.655,11.264,2.371,17.045,11.910,-2.809,17.046,10.942,9.052,30.247,9.394
Thu Dec 05 12:51:18 2024,290,-24.691,24.691,21.026,21.026,-0.157,18.662,11.263,2.342,17.009,11.851,-2.799,17.065,10.951,9.042,30.306,9.451
Thu Dec 05 12:51:18 2024,295,-24.709,24.709,20.762,20.762,-0.144,18.649,11.250,2.300,17.003,11.795,-2.811,17.038,10.901,9.050,30.371,9.504
Thu Dec 05 12:51:18 2024,300,-24.770,24.770,20.487,20.487,-0.109,18.634,11.249,2.274,16.958,11.734,-2.763,17.063,10.861,9.062,30.417,9.531
Thu Dec 05 12:51:18 2024,305,-24.856,24.856,20.301,20.301,-0.066,18.620,11.263,2.277,16.885,11.687,-2.659,17.140,10.849,9.075,30.423,9.514
Thu Dec 05 12:51:18 2024,310,-24.893,24.893,20.175,20.175,-0.044,18.619,11.269,2.294,16.833,11.654,-2.565,17.222,10.835,9.067,30.409,9.498
Thu Dec 05 12:51:18 2024,315,-24.829,24.829,20.179,20.179,-0.077,18.645,11.260,2.337,16.834,11.650,-2.497,17.310,10.820,9.018,30.358,9.486
Thu Dec 05 12:51:18 2024,320,-24.769,24.769,20.188,20.188,-0.105,18.664,11.251,2.374,16.831,11.645,-2.437,17.384,10.808,8.977,30.315,9.476
Thu Dec 05 12:51:18 2024,325,-24.549,24.549,20.805,20.805,-0.061,18.609,11.250,2.530,16.690,11.615,-2.310,17.469,10.770,9.044,30.363,9.455
Thu Dec 05 12:51:18 2024,330,-24.377,24.377,21.675,21.675,0.038,18.569,11.277,2.740,16.516,11.585,-2.167,17.550,10.694,9.186,30.458,9.429
Thu Dec 05 12:51:18 2024,335,-24.205,24.205,22.545,22.545,0.137,18.529,11.304,2.951,16.341,11.554,-2.024,17.632,10.618,9.328,30.553,9.403
Thu Dec 05 12:51:18 2024,340,-24.033,24.033,23.415,23.415,0.235,18.489,11.331,3.162,16.167,11.523,-1.881,17.713,10.542,9.470,30.648,9.377
Thu Dec 05 12:51:18 2024,345,-23.861,23.861,24.285,24.285,0.334,18.448,11.358,3.373,15.992,11.492,-1.737,17.795,10.467,9.611,30.742,9.351
Thu Dec 05 12:51:18 2024,350,-23.689,23.689,25.155,25.155,0.433,18.408,11.385,3.584,15.818,11.461,-1.594,17.876,10.391,9.753,30.837,9.325
Thu Dec 05 12:51:18 2024,355,-23.518,23.518,26.025,26.025,0.531,18.368,11.412,3.795,15.643,11.430,-1.451,17.957,10.315,9.895,30.932,9.299
Thu Dec 05 12:51:18 2024,360,-23.346,23.346,26.895,26.895,0.630,18.328,11.439,4.006,15.469,11.399,-1.308,18.039,10.239,10.037,31.027,9.273
Thu Dec 05 12:51:18 2024,365,-23.174,23.174,27.765,27.765,0.729,18.288,11.466,4.217,15.294,11.368,-1.165,18.120,10.163,10.179,31.122,9.247
Thu Dec 05 12:51:18 2024,370,-23.002,23.002,28.635,28.635,0.828,18.248,11.493,4.428,15.120,11.337,-1.021,18.202,10.087,10.320,31.217,9.220
Thu Dec 05 12:51:18 2024,375,-22.830,22.830,29.505,29.505,0.926,18.208,11.520,4.639,14.946,11.306,-0.878,18.283,10.011,10.462,31.312,9.194
Thu Dec 05 12:51:18 2024,380,-22.658,22.658,30.375,30.375,1.025,18.167,11.547,4.850,14.771,11.275,-0.735,18.365,9.935,10.604,31.406,9.168
Thu Dec 05 12:51:18 2024,385,-22.486,22.486,31.245,31.245,1.124,18.127,11.574,5.060,14.597,11.245,-0.592,18.446,9.859,10.746,31.501,9.142
Thu Dec 05 12:51:18 2024,390,-22.314,22.314,32.115,32.115,1.222,18.087,11.600,5.271,14.422,11.214,-0.449,18.527,9.783,10.888,31.596,9.116
Thu Dec 05 12:51:18 2024,395,-22.143,22.143,32.985,32.985,1.321,18.047,11.627,5.482,14.248,11.183,-0.306,18.609,9.707,11.030,31.691,9.090
Thu Dec 05 12:51:18 2024,400,-21.929,21.929,33.862,33.862,1.454,17.949,11.620,5.696,14.048,11.130,-0.184,18.596,9.602,11.157,31.758,9.070
Thu Dec 05 12:51:18 2024,405,-21.440,21.440,35.096,35.096,1.820,17.496,11.421,6.001,13.634,10.941,-0.134,18.061,9.309,11.247,31.707,9.071
Thu Dec 05 12:51:18 2024,410,-21.198,21.198,36.508,36.508,2.193,17.167,11.385,6.328,13.250,10.818,-0.025,17.592,8.981,11.362,20.000,8.984
Thu Dec 05 12:51:18 2024,415,-21.360,21.360,37.952,37.952,2.511,17.068,11.634,6.634,12.998,10.832,0.147,17.319,8.655,11.494,8.306,8.760
Thu Dec 05 12:51:18 2024,420,-21.435,21.435,39.128,39.128,2.795,16.898,11.916,6.861,12.769,10.880,0.270,17.054,8.433,11.594,8.303,8.624
Thu Dec 05 12:51:18 2024,425,-21.161,21.161,39.089,39.089,2.849,16.735,12.205,6.733,12.701,11.027,0.180,16.943,8.625,11.568,8.379,8.834
Thu Dec 05 12:51:18 2024,430,-20.896,20.896,39.054,39.054,2.908,16.552,12.517,6.593,12.604,11.185,0.084,16.821,8.832,11.541,8.448,9.061
Thu Dec 05 12:51:18 2024,435,-20.095,20.095,37.736,37.736,2.840,16.687,12.328,6.452,12.732,11.025,-0.224,16.709,8.652,11.542,8.443,9.010
Thu Dec 05 12:51:18 2024,440,-19.172,19.172,36.126,36.126,2.743,16.890,12.033,6.297,12.917,10.795,-0.591,16.561,8.389,11.550,8.428,8.906
Thu Dec 05 12:51:18 2024,445,-19.024,19.024,35.350,35.350,2.487,17.276,11.936,6.150,13.166,10.753,-0.837,16.437,8.215,11.355,8.618,8.761
Thu Dec 05 12:51:18 2024,450,-19.492,19.492,34.866,34.866,1.918,18.049,11.941,5.932,13.628,10.856,-1.114,16.288,7.998,10.845,9.122,8.469
Thu Dec 05 12:51:18 2024,455,-19.602,19.602,33.835,33.835,1.397,21.523,12.006,5.734,14.049,10.823,-1.372,16.611,7.853,10.647,9.280,8.189
Thu Dec 05 12:51:18 2024,460,-19.609,19.609,32.342,32.342,0.781,22.205,12.182,5.522,14.427,10.702,-1.624,17.312,7.761,10.645,9.159,7.848
Thu Dec 05 12:51:18 2024,465,-19.625,19.625,30.629,30.629,0.381,22.922,12.067,5.336,14.651,10.636,-1.805,17.793,7.623,10.680,30.991,7.499
Thu Dec 05 12:51:18 2024,470,-19.654,19.654,28.746,28.746,0.206,23.318,11.646,5.174,25.324,10.635,-1.916,17.991,7.438,10.748,31.150,7.147
Thu Dec 05 12:51:18 2024,475,-19.787,19.787,26.607,26.607,0.112,23.736,11.380,5.098,25.462,10.628,-1.924,21.923,7.369,10.915,31.421,6.899
Thu Dec 05 12:51:18 2024,480,-20.090,20.090,23.585,23.585,0.148,24.233,11.377,5.188,25.715,10.601,-1.732,21.878,7.510,11.294,31.934,6.816
Thu Dec 05 12:51:18 2024,485,-20.396,20.396,20.415,20.415,0.193,24.748,11.350,5.280,25.996,10.602,-1.530,22.084,7.670,11.682,32.466,6.752
Thu Dec 05 12:51:18 2024,490,-20.542,20.542,16.814,16.814,0.293,25.118,11.065,5.352,26.178,10.922,-1.332,22.090,7.953,11.903,32.752,6.932
Thu Dec 05 12:51:18 2024,495,-20.666,20.666,13.569,13.569,0.380,25.453,10.805,5.413,26.344,11.207,-1.155,22.131,8.205,12.102,33.012,7.091
Thu Dec 05 12:51:18 2024,500,-20.508,20.508,10.842,10.842,0.381,25.712,10.528,5.358,26.394,11.208,-1.068,22.279,8.243,12.304,33.261,7.044
Thu Dec 05 12:51:18 2024,505,-20.298,20.298,8.241,8.241,0.365,25.954,10.251,5.283,26.425,11.155,-1.000,22.453,8.239,12.503,33.503,6.959
Thu Dec 05 12:51:18 2024,510,-20.064,20.064,6.062,6.062,0.368,26.194,9.997,5.288,26.568,11.232,-0.940,22.627,8.300,12.675,33.738,6.945
Thu Dec 05 12:51:18 2024,515,-19.827,19.827,4.221,4.221,0.379,26.425,9.769,5.342,26.778,11.391,-0.888,22.796,8.399,12.822,33.959,6.976
Thu Dec 05 12:51:18 2024,520,-19.538,19.538,2.817,2.817,0.405,26.545,9.558,5.432,26.988,11.546,-0.892,22.876,8.468,12.926,34.100,7.028
Thu Dec 05 12:51:18 2024,525,-19.214,19.214,1.698,1.698,0.439,26.593,9.359,5.545,27.197,11.698,-0.932,22.895,8.517,12.999,34.185,7.096
Thu Dec 05 12:51:18 2024,530,-18.777,-18.777,-0.507,0.507,0.456,26.584,9.141,5.630,27.368,11.864,-0.991,22.889,8.575,13.028,34.219,7.138
Thu Dec 05 12:51:18 2024,535,-18.216,-18.216,-0.433,-0.433,0.412,26.412,8.976,5.589,27.335,11.984,-1.074,22.815,8.631,12.911,34.082,7.086
Thu Dec 05 12:51:18 2024,540,-17.645,-17.645,-1.248,-1.248,0.374,26.274,8.829,5.558,27.313,12.097,-1.140,22.752,8.686,12.817,33.972,7.047
Thu Dec 05 12:51:18 2024,545,-17.069,-17.069,-1.871,-1.871,0.371,26.345,8.802,5.584,27.350,12.150,-1.106,22.731,8.732,12.870,34.021,7.079
Thu Dec 05 12:51:18 2024,550,-16.521,-16.521,-2.461,-2.461,0.367,26.406,8.775,5.605,27.379,12.197,-1.076,22.709,8.773,12.914,34.061,7.108
Thu Dec 05 12:51:18 2024,555,-15.894,-15.894,-2.664,-2.664,0.306,26.258,8.702,5.503,27.203,12.151,-1.149,22.596,8.760,12.769,33.881,7.080
Thu Dec 05 12:51:18 2024,560,-15.142,-15.142,-2.913,-2.913,0.233,26.078,8.614,5.380,26.989,12.095,-1.237,22.468,8.745,12.592,33.661,7.047
Thu Dec 05 12:51:18 2024,565,-14.405,-14.405,-2.992,-2.992,0.192,25.956,8.578,5.326,26.915,12.104,-1.226,22.349,8.785,12.536,33.590,7.078
Thu Dec 05 12:51:18 2024,570,-13.829,-13.829,-3.007,-3.007,0.168,25.874,8.564,5.302,26.897,12.131,-1.188,22.255,8.834,12.526,33.577,7.121
Thu Dec 05 12:51:18 2024,575,-13.241,-13.241,-3.028,-3.028,0.135,25.718,8.551,5.272,26.825,12.129,-1.156,22.182,8.883,12.516,33.575,7.196
Thu Dec 05 12:51:18 2024,580,-12.718,-12.718,-3.049,-3.049,0.099,25.513,8.539,5.241,26.712,12.100,-1.134,22.137,8.927,12.508,33.583,7.291
Thu Dec 05 12:51:18 2024,585,-12.320,-12.320,-3.085,-3.085,0.079,25.377,8.570,5.219,26.626,12.137,-1.106,22.085,8.993,12.503,33.568,7.363
Thu Dec 05 12:51:18 2024,590,-11.971,-11.971,-3.156,-3.156,-0.074,25.297,8.668,5.204,26.549,12.276,-1.063,22.005,9.112,12.500,33.515,7.425
Thu Dec 05 12:51:18 2024,595,-11.671,-11.671,-3.201,-3.201,-0.082,25.231,8.742,5.204,26.496,12.381,-1.017,21.933,9.204,12.495,33.469,7.474
Thu Dec 05 12:51:18 2024,600,-11.421,-11.421,-3.174,-3.174,-0.071,25.184,8.754,5.254,26.500,12.412,-0.950,21.861,9.239,12.484,33.430,7.493
Thu Dec 05 12:51:18 2024,605,-11.184,-11.184,-3.146,-3.146,0.071,25.145,8.768,5.302,26.506,12.438,-0.883,21.807,9.279,12.480,33.402,7.515
Thu Dec 05 12:51:18 2024,610,-11.029,-11.029,-3.106,-3.106,0.070,25.175,8.782,5.334,26.516,12.420,-0.835,21.888,9.346,12.532,33.458,7.552
Thu Dec 05 12:51:18 2024,615,-10.894,-10.894,-3.068,-3.068,0.069,25.209,8.795,5.363,26.527,12.399,-0.791,21.982,9.415,12.586,33.520,7.590
Thu Dec 05 12:51:18 2024,620,-10.773,-10.773,-3.106,-3.106,0.070,25.155,8.822,5.382,26.523,12.464,-0.730,22.022,9.510,12.560,33.475,7.602
Thu Dec 05 12:51:18 2024,625,-10.674,-10.674,-3.153,-3.153,0.071,25.091,8.849,5.398,26.517,12.536,-0.671,22.052,9.601,12.523,33.418,7.609
Thu Dec 05 12:51:18 2024,630,-10.541,-10.541,-3.171,-3.171,0.112,25.211,8.925,5.482,26.606,12.549,-0.576,22.179,9.655,12.560,33.440,7.578
Thu Dec 05 12:51:18 2024,635,-10.434,-10.434,-3.162,-3.162,0.176,25.414,9.006,5.582,26.726,12.514,-0.490,22.331,9.663,12.634,33.508,7.533
Thu Dec 05 12:51:18 2024,640,-10.360,-10.360,-3.146,-3.146,0.216,25.527,9.092,5.592,26.719,12.489,-0.467,22.453,9.705,12.651,33.527,7.540
Thu Dec 05 12:51:18 2024,645,-10.329,-10.329,-3.120,-3.120,0.226,25.537,9.187,5.499,26.560,12.475,-0.516,22.537,9.789,12.600,33.487,7.612
Thu Dec 05 12:51:18 2024,650,-10.311,-10.311,-3.085,-3.085,0.246,25.539,9.246,5.463,26.483,12.463,-0.525,22.579,9.836,12.562,33.448,7.660
Thu Dec 05 12:51:18 2024,655,-10.289,-10.289,-3.013,-3.013,0.305,25.520,9.231,5.558,26.584,12.451,-0.438,22.528,9.808,12.541,33.401,7.663
Thu Dec 05 12:51:18 2024,660,-10.276,-10.276,-2.954,-2.954,0.337,25.516,9.224,5.629,26.673,12.452,-0.370,22.522,9.799,12.529,33.379,7.675
Thu Dec 05 12:51:18 2024,665,-10.283,-10.283,-2.946,-2.946,0.241,25.581,9.247,5.605,26.736,12.514,-0.376,22.729,9.879,12.563,33.473,7.740
Thu Dec 05 12:51:18 2024,670,-10.292,-10.292,-2.937,-2.937,0.159,25.643,9.268,5.582,26.797,12.571,-0.383,22.920,9.953,12.595,33.561,7.800
Thu Dec 05 12:51:18 2024,675,-10.287,-10.287,-2.859,-2.859,0.180,25.722,9.348,5.584,26.857,12.639,-0.330,23.050,9.992,12.604,33.547,7.789
Thu Dec 05 12:51:18 2024,680,-10.281,-10.281,-2.778,-2.778,0.226,25.788,9.428,5.593,26.904,12.695,-0.273,23.137,10.011,12.604,33.507,7.759
Thu Dec 05 12:51:18 2024,685,-10.274,-10.274,-2.757,-2.757,0.221,25.828,9.425,5.575,26.885,12.661,-0.278,23.253,10.020,12.608,33.507,7.750
Thu Dec 05 12:51:18 2024,690,-10.268,-10.268,-2.761,-2.761,0.197,25.854,9.389,5.548,26.840,12.594,-0.307,23.370,10.024,12.612,33.524,7.751
Thu Dec 05 12:51:18 2024,695,-10.252,-10.252,-2.757,-2.757,0.204,25.904,9.411,5.561,26.863,12.628,-0.266,23.391,10.061,12.665,33.584,7.819
Thu Dec 05 12:51:18 2024,700,-10.224,-10.224,-2.746,-2.746,0.245,25.981,9.493,5.614,26.954,12.763,-0.151,23.324,10.135,12.773,33.692,7.961
Thu Dec 05 12:51:18 2024,705,-10.210,-10.210,-2.715,-2.715,0.257,26.032,9.524,5.629,26.976,12.804,-0.088,23.304,10.167,12.811,33.732,8.027
Thu Dec 05 12:51:18 2024,710,-10.218,-10.218,-2.640,-2.640,0.224,26.048,9.475,5.577,26.878,12.682,-0.100,23.360,10.134,12.734,33.659,7.972
Thu Dec 05 12:51:18 2024,715,-10.224,-10.224,-2.579,-2.579,0.203,26.066,9.440,5.539,26.800,12.585,-0.108,23.399,10.109,12.678,33.609,7.935
Thu Dec 05 12:51:18 2024,720,-10.208,-10.208,-2.568,-2.568,0.250,26.144,9.509,5.577,26.773,12.575,-0.105,23.334,10.116,12.772,33.727,8.040
Thu Dec 05 12:51:18 2024,725,-10.192,-10.192,-2.557,-2.557,0.296,26.218,9.575,5.613,26.751,12.566,-0.101,23.273,10.122,12.861,33.839,8.138
Thu Dec 05 12:51:18 2024,730,-10.154,-10.154,-2.593,-2.593,0.303,26.295,9.560,5.644,26.830,12.570,-0.084,23.322,10.070,12.901,33.894,8.100
Thu Dec 05 12:51:18 2024,735,-10.118,-10.118,-2.626,-2.626,0.310,26.367,9.545,5.673,26.903,12.573,-0.066,23.368,10.023,12.937,33.945,8.065
Thu Dec 05 12:51:18 2024,740,-10.065,-10.065,-2.535,-2.535,0.357,26.510,9.621,5.744,26.994,12.644,0.028,23.451,10.108,13.033,34.052,8.152
Thu Dec 05 12:51:18 2024,745,-10.014,-10.014,-2.406,-2.406,0.414,26.661,9.724,5.823,27.080,12.732,0.104,23.540,10.238,13.140,34.168,8.278
Thu Dec 05 12:51:18 2024,750,-9.960,-9.960,-2.355,-2.355,0.485,26.782,9.793,5.854,27.096,12.780,0.166,23.589,10.297,13.224,34.238,8.335
Thu Dec 05 12:51:18 2024,755,-9.914,-9.914,-2.368,-2.368,0.552,26.863,9.827,5.845,27.061,12.793,0.205,23.603,10.298,13.279,34.264,8.334
Thu Dec 05 12:51:18 2024,760,-9.865,-9.865,-2.362,-2.362,0.615,26.911,9.861,5.862,27.052,12.811,0.227,23.606,10.307,13.300,34.272,8.343
Thu Dec 05 12:51:18 2024,765,-9.809,-9.809,-2.332,-2.332,0.674,26.920,9.895,5.912,27.076,12.834,0.230,23.597,10.326,13.279,34.255,8.364
Thu Dec 05 12:51:18 2024,770,-9.766,-9.766,-2.290,-2.290,0.745,26.957,9.938,5.958,27.104,12.860,0.249,23.614,10.356,13.278,34.258,8.384
Thu Dec 05 12:51:18 2024,775,-9.785,-9.785,-2.233,-2.233,0.807,27.056,9.981,5.968,27.124,12.875,0.305,23.700,10.401,13.338,34.320,8.390
Thu Dec 05 12:51:18 2024,780,-9.802,-9.802,-2.180,-2.180,0.870,27.154,10.025,5.978,27.142,12.896,0.356,23.774,10.440,13.386,34.370,8.397
Thu Dec 05 12:51:18 2024,785,-9.798,-9.798,-2.179,-2.179,0.950,27.236,10.086,5.981,27.139,12.959,0.351,23.712,10.413,13.329,34.293,8.415
Thu Dec 05 12:51:18 2024,790,-9.794,-9.794,-2.182,-2.182,1.019,27.304,10.139,5.983,27.133,13.018,0.340,23.645,10.384,13.269,34.215,8.431
Thu Dec 05 12:51:18 2024,795,-9.812,-9.812,-2.137,-2.137,1.273,27.667,10.268,6.039,27.167,12.988,0.400,23.756,10.352,13.296,34.225,8.313
Thu Dec 05 12:51:18 2024,800,-9.832,-9.832,-2.088,-2.088,1.534,28.050,10.397,6.100,27.205,12.943,0.466,23.890,10.324,13.336,34.251,8.181
Thu Dec 05 12:51:18 2024,805,-9.881,-9.881,-2.025,-2.025,1.827,28.420,10.569,6.086,27.110,12.907,0.452,23.852,10.295,13.283,34.179,8.185
Thu Dec 05 12:51:18 2024,810,-9.946,-9.946,-1.962,-1.962,2.101,28.731,10.749,6.022,26.935,12.883,0.382,23.698,10.270,13.171,34.047,8.285
Thu Dec 05 12:51:18 2024,815,-9.979,-9.979,-1.912,-1.912,2.413,29.109,10.943,6.002,26.837,12.860,0.368,23.554,10.206,13.109,33.950,8.299
Thu Dec 05 12:51:18 2024,820,-9.972,-9.972,-1.887,-1.887,2.665,29.429,11.091,6.026,26.834,12.845,0.409,23.464,10.128,13.109,33.915,8.236
Thu Dec 05 12:51:18 2024,825,-9.965,-9.965,-1.854,-1.854,2.966,29.809,11.262,6.056,26.832,12.830,0.457,23.363,10.045,13.105,33.874,8.177
Thu Dec 05 12:51:18 2024,830,-9.975,-9.975,-1.801,-1.801,3.178,30.032,11.332,6.075,26.844,12.835,0.487,23.340,10.072,13.074,33.845,8.266
Thu Dec 05 12:51:18 2024,835,-9.982,-9.982,-1.753,-1.753,3.385,30.254,11.405,6.095,26.855,12.842,0.517,23.313,10.095,13.049,33.819,8.346
Thu Dec 05 12:51:18 2024,840,-9.948,-9.948,-1.739,-1.739,3.712,30.615,11.578,6.162,26.875,12.899,0.598,23.172,10.068,13.093,33.826,8.330
Thu Dec 05 12:51:18 2024,845,-9.921,-9.921,-1.728,-1.728,3.982,30.914,11.721,6.216,26.893,12.946,0.664,23.059,10.047,13.129,33.832,8.318
Thu Dec 05 12:51:18 2024,850,-9.901,-9.901,-1.719,-1.719,4.198,31.154,11.834,6.259,26.908,12.984,0.717,22.971,10.029,13.158,33.837,8.307
Thu Dec 05 12:51:18 2024,855,-9.921,-9.921,-1.648,-1.648,4.804,31.935,12.527,6.342,26.884,13.006,0.830,22.965,10.065,13.144,33.765,8.322
Thu Dec 05 12:51:18 2024,860,-9.961,-9.961,-1.542,-1.542,5.666,33.064,13.567,6.453,26.848,13.026,0.984,22.993,10.128,13.112,33.653,8.350
Thu Dec 05 12:51:18 2024,865,-9.979,-9.979,1.470,-1.470,6.321,33.911,14.298,6.541,26.849,13.056,1.106,22.983,10.160,13.103,33.586,8.364
Thu Dec 05 12:51:18 2024,870,-10.102,-10.102,1.330,-1.330,7.192,35.252,16.012,6.636,26.861,13.089,1.156,22.899,10.137,13.055,6.550,8.379
Thu Dec 05 12:51:18 2024,875,-10.275,-10.275,1.173,-1.173,8.056,36.686,18.137,6.716,13.120,13.120,1.143,22.777,10.080,12.989,6.703,8.394
Thu Dec 05 12:51:18 2024,880,-10.442,-10.442,1.120,-1.120,8.912,38.519,21.062,6.883,12.977,13.080,1.172,22.798,10.018,12.953,6.799,8.397
Thu Dec 05 12:51:18 2024,885,-10.538,-10.538,1.303,-1.303,9.455,40.644,24.880,7.196,12.615,12.893,1.283,23.128,9.961,12.998,6.753,8.371
Thu Dec 05 12:51:18 2024,890,-10.652,-10.652,1.503,-1.503,10.034,43.372,29.707,7.627,27.883,12.708,1.429,23.409,9.874,13.041,6.717,8.265
Thu Dec 05 12:51:18 2024,895,-10.747,-10.747,1.616,-1.616,10.192,46.312,34.463,8.208,28.547,12.675,1.595,23.249,9.725,13.037,6.754,7.887
Thu Dec 05 12:51:18 2024,900,-10.839,-10.839,1.721,-1.721,10.369,49.139,39.331,8.752,29.173,12.636,1.751,23.118,9.582,13.033,6.787,7.531
Thu Dec 05 12:51:18 2024,905,-10.897,-10.897,1.915,-1.915,10.059,53.169,48.545,9.218,29.719,13.145,2.307,23.117,9.646,13.154,6.743,7.225
Thu Dec 05 12:51:18 2024,910,-10.938,-10.938,2.088,-2.088,9.810,56.583,57.245,9.553,30.113,13.626,2.792,23.259,9.728,13.261,6.686,7.007
Thu Dec 05 12:51:18 2024,915,-10.972,-10.972,2.224,-2.224,9.693,59.235,63.986,9.805,30.409,13.984,3.151,23.433,9.785,13.336,6.637,6.842
Thu Dec 05 12:51:18 2024,920,-11.013,-11.013,-2.368,-2.368,8.227,61.935,71.731,9.200,30.206,13.298,3.082,23.599,9.320,13.174,6.807,6.292
Thu Dec 05 12:51:18 2024,925,-10.999,-10.999,-2.435,-2.435,7.789,62.826,74.732,9.168,30.373,13.276,3.196,23.731,9.242,13.155,6.836,6.154
Thu Dec 05 12:51:18 2024,930,-10.949,-10.949,-2.462,-2.462,7.518,62.580,75.183,9.270,30.633,13.405,3.330,23.852,9.267,13.166,6.831,6.159
Thu Dec 05 12:51:18 2024,935,-10.886,-10.886,-2.479,-2.479,7.571,62.729,75.738,9.441,31.086,13.538,3.419,23.980,9.191,13.187,6.812,6.060
Thu Dec 05 12:51:18 2024,940,-10.814,-10.814,-2.477,-2.477,8.148,63.495,76.373,9.704,31.801,13.655,3.421,24.106,8.966,13.221,6.777,5.803
Thu Dec 05 12:51:18 2024,945,-10.769,-10.769,-2.467,-2.467,8.650,64.240,77.094,9.913,32.408,13.745,3.407,24.210,8.787,13.230,6.766,5.616
Thu Dec 05 12:51:18 2024,950,-10.832,-10.832,-2.370,-2.370,9.369,66.193,79.866,10.040,33.069,13.798,3.223,24.267,8.637,13.054,6.941,5.629
Thu Dec 05 12:51:18 2024,955,-10.903,-10.903,-2.274,-2.274,10.134,68.275,82.839,10.171,33.763,13.862,3.043,24.352,8.497,12.886,7.107,5.653
Thu Dec 05 12:51:18 2024,960,-10.982,-10.982,-2.227,-2.227,10.532,70.568,86.630,10.329,34.273,14.019,2.982,24.405,8.518,12.884,7.105,5.790
Thu Dec 05 12:51:18 2024,965,-11.090,-11.090,-2.171,-2.171,11.191,73.637,91.408,10.533,34.942,14.227,2.904,24.479,8.545,12.880,7.103,5.969
Thu Dec 05 12:51:18 2024,970,-11.172,-11.172,-2.033,-2.033,11.926,76.344,94.246,10.797,35.676,14.459,2.927,24.636,8.645,12.824,7.164,6.069
Thu Dec 05 12:51:18 2024,975,-11.242,-11.242,-1.905,-1.905,12.618,78.510,96.078,11.025,36.294,14.660,2.966,24.781,8.744,12.767,7.226,6.135
Thu Dec 05 12:51:18 2024,980,-11.294,-11.294,-1.752,-1.752,13.393,80.478,97.642,11.185,36.842,14.822,3.028,24.984,8.823,12.685,7.310,6.200
Thu Dec 05 12:51:18 2024,985,-11.326,-11.326,-1.609,-1.609,14.084,81.992,98.773,11.275,37.254,14.933,3.092,25.187,8.877,12.602,7.393,6.254
Thu Dec 05 12:51:18 2024,990,-11.348,-11.348,-1.451,-1.451,14.867,83.423,99.594,11.357,37.641,15.018,3.106,25.372,8.880,12.408,7.590,6.212
Thu Dec 05 12:51:18 2024,995,-11.347,-11.347,-1.325,-1.325,15.470,84.266,99.816,11.404,37.866,15.038,3.052,25.475,8.815,12.133,7.867,6.058
Thu Dec 05 12:51:19 2024,0,-11.342,-11.342,-1.246,-1.246,16.030,85.058,100.024,11.440,38.078,15.085,3.008,25.588,8.794,11.903,8.094,5.954
Thu Dec 05 12:51:19 2024,5,-11.326,-11.326,-1.264,-1.264,16.394,85.622,100.198,11.450,38.229,15.174,2.989,25.699,8.856,11.796,8.200,5.958
Thu Dec 05 12:51:19 2024,10,-11.318,-11.318,-1.259,-1.259,16.804,86.230,100.372,11.461,38.392,15.263,2.964,25.810,8.916,11.672,8.321,5.963
Thu Dec 05 12:51:19 2024,15,-11.378,-11.378,-0.986,-0.986,17.166,86.606,100.424,11.466,38.501,15.236,2.909,25.788,8.878,11.507,8.482,5.981
Thu Dec 05 12:51:19 2024,20,-11.442,-11.442,-0.706,-0.706,17.573,87.022,100.474,11.472,38.622,15.206,2.847,25.765,8.836,11.325,8.657,6.000
Thu Dec 05 12:51:19 2024,25,-11.414,-11.414,-0.735,-0.735,17.894,87.361,100.407,11.528,38.836,15.269,2.830,25.766,8.791,11.213,8.769,5.959
Thu Dec 05 12:51:19 2024,30,-11.366,-11.366,-0.828,-0.828,18.206,87.690,100.313,11.594,39.074,15.351,2.823,25.771,8.743,11.114,8.869,5.905
Thu Dec 05 12:51:19 2024,35,-11.407,-11.407,-0.860,-0.860,18.565,88.055,100.211,11.587,39.246,15.420,2.819,25.803,8.735,11.017,8.967,5.886
Thu Dec 05 12:51:19 2024,40,-11.480,-11.480,-0.868,-0.868,18.938,88.429,100.104,11.551,39.393,15.482,2.817,25.844,8.742,10.922,9.061,5.880
Thu Dec 05 12:51:19 2024,45,-11.557,-11.557,-0.882,-0.882,19.249,88.729,100.037,11.517,39.495,15.513,2.776,25.818,8.703,10.793,9.188,5.829
Thu Dec 05 12:51:19 2024,50,-11.636,-11.636,-0.904,-0.904,19.452,88.912,100.028,11.488,39.532,15.501,2.690,25.710,8.608,10.628,9.344,5.723
Thu Dec 05 12:51:19 2024,55,-11.704,-11.704,-0.922,-0.922,19.626,89.068,100.017,11.464,39.564,15.490,2.617,25.618,8.529,10.489,9.476,5.633
Thu Dec 05 12:51:19 2024,60,-11.812,-11.812,-0.865,-0.865,19.723,89.177,99.824,11.379,39.637,15.552,2.697,25.836,8.589,10.379,9.591,5.690
Thu Dec 05 12:51:19 2024,65,-11.893,-11.893,-0.829,-0.829,19.805,89.265,99.693,11.320,39.689,15.591,2.742,25.971,8.621,10.292,9.681,5.719
Thu Dec 05 12:51:19 2024,70,-11.971,-11.971,-0.790,-0.790,19.920,89.407,99.685,11.334,39.867,15.669,2.764,26.116,8.646,10.240,9.733,5.696
Thu Dec 05 12:51:19 2024,75,-12.051,-12.051,-0.750,-0.750,20.056,89.578,99.728,11.384,40.107,15.768,2.776,26.274,8.670,10.203,9.770,5.650
Thu Dec 05 12:51:19 2024,80,-12.084,-12.084,-0.723,-0.723,20.216,89.686,99.636,11.393,40.212,15.856,2.869,26.418,8.778,10.212,9.764,5.710
Thu Dec 05 12:51:19 2024,85,-12.107,-12.107,-0.702,-0.702,20.352,89.768,99.544,11.397,40.284,15.928,2.952,26.536,8.876,10.223,9.755,5.770
Thu Dec 05 12:51:19 2024,90,-12.180,-12.180,-0.659,-0.659,20.192,89.644,99.368,11.369,40.292,15.933,2.990,26.562,8.906,10.170,9.804,5.777
Thu Dec 05 12:51:19 2024,95,-12.263,-12.263,-0.617,-0.617,19.928,89.448,99.177,11.332,40.268,15.909,3.002,26.544,8.900,10.095,9.868,5.760
Thu Dec 05 12:51:19 2024,100,-12.250,-12.250,-0.676,-0.676,19.759,89.218,99.135,11.314,40.236,15.919,3.016,26.619,8.965,10.066,9.894,5.786
Thu Dec 05 12:51:19 2024,105,-12.175,-12.175,-0.794,-0.794,19.709,89.040,99.207,11.313,40.208,15.949,3.026,26.734,9.057,10.077,9.886,5.833
Thu Dec 05 12:51:19 2024,110,-12.106,-12.106,-0.912,-0.912,19.514,88.802,99.247,11.297,40.181,15.963,3.071,26.895,9.170,10.120,9.849,5.898
Thu Dec 05 12:51:19 2024,115,-12.091,-12.091,-0.937,-0.937,19.050,88.544,99.183,11.248,40.172,15.926,3.183,27.088,9.274,10.222,9.755,5.973
Thu Dec 05 12:51:19 2024,120,-12.066,-12.066,-0.974,-0.974,18.589,88.236,99.100,11.203,40.150,15.893,3.282,27.251,9.369,10.301,9.682,6.037
Thu Dec 05 12:51:19 2024,125,-11.982,-11.982,-1.087,-1.087,18.111,87.626,98.937,11.190,40.044,15.889,3.291,27.213,9.401,10.237,9.745,6.027
Thu Dec 05 12:51:19 2024,130,-11.919,-11.919,-1.172,-1.172,17.762,87.172,98.812,11.180,39.966,15.886,3.298,27.184,9.426,10.189,9.791,6.019
Thu Dec 05 12:51:19 2024,135,-11.907,-11.907,-1.080,-1.080,17.122,86.554,98.660,11.162,39.799,15.765,3.434,27.359,9.475,10.272,9.715,6.042
Thu Dec 05 12:51:19 2024,140,-11.908,-11.908,-0.985,-0.985,16.624,86.081,98.536,11.147,39.664,15.658,3.555,27.521,9.515,10.355,9.636,6.064
Thu Dec 05 12:51:19 2024,145,-11.844,-11.844,-1.081,-1.081,15.995,85.453,98.581,11.101,39.567,15.568,3.688,27.780,9.566,10.517,9.481,6.131
Thu Dec 05 12:51:19 2024,150,-11.764,-11.764,-1.260,-1.260,15.405,84.838,98.691,11.047,39.499,15.498,3.810,28.047,9.615,10.694,9.306,6.210
Thu Dec 05 12:51:19 2024,155,-11.737,-11.737,-1.330,-1.330,14.841,84.116,98.476,10.991,39.419,15.390,3.885,28.263,9.651,10.811,9.185,6.248
Thu Dec 05 12:51:19 2024,160,-11.741,-11.741,-1.336,-1.336,14.106,83.050,97.901,10.912,39.298,15.211,3.950,28.519,9.690,10.924,9.058,6.268
Thu Dec 05 12:51:19 2024,165,-11.706,-11.706,-1.333,-1.333,13.555,82.179,97.391,10.851,39.224,15.089,3.982,28.686,9.682,10.999,8.965,6.245
Thu Dec 05 12:51:19 2024,170,-11.606,-11.606,-1.316,-1.316,12.886,81.007,96.648,10.776,39.160,14.962,3.991,28.843,9.611,11.073,8.865,6.153
Thu Dec 05 12:51:19 2024,175,-11.503,-11.503,-1.337,-1.337,12.173,79.665,95.497,10.755,39.103,14.832,4.027,28.959,9.534,11.148,8.769,6.028
Thu Dec 05 12:51:19 2024,180,-11.353,-11.353,-1.473,-1.473,11.210,77.618,92.998,10.875,39.049,14.673,4.139,28.972,9.427,11.234,8.679,5.792
Thu Dec 05 12:51:19 2024,185,-11.200,-11.200,-1.628,-1.628,10.146,75.181,89.769,11.000,38.925,14.488,4.277,28.964,9.332,11.312,8.597,5.547
Thu Dec 05 12:51:19 2024,190,-11.184,-11.184,-1.642,-1.642,9.374,73.423,87.204,10.956,38.452,14.391,4.394,28.794,9.486,11.199,8.719,5.637
Thu Dec 05 12:51:19 2024,195,-11.167,-11.167,-1.660,-1.660,8.614,71.580,84.458,10.910,37.952,14.291,4.518,28.620,9.650,11.079,8.847,5.733
Thu Dec 05 12:51:19 2024,200,-11.153,-11.153,-1.547,-1.547,8.716,71.696,83.666,10.737,37.348,14.042,4.668,28.417,9.610,10.913,9.023,5.742
Thu Dec 05 12:51:19 2024,205,-11.141,-11.141,-1.418,-1.418,8.942,72.099,83.191,10.555,36.753,13.777,4.817,28.230,9.540,10.745,9.199,5.739
Thu Dec 05 12:51:19 2024,210,-11.078,-11.078,-0.039,-1.263,8.820,69.871,76.617,10.363,36.125,14.074,4.739,27.755,9.648,10.529,9.392,5.852
Thu Dec 05 12:51:19 2024,215,-11.054,-11.054,1.116,-1.116,8.816,66.678,67.233,10.196,35.533,14.639,4.568,27.178,9.842,10.298,9.576,6.014
Thu Dec 05 12:51:19 2024,220,-11.068,-11.068,1.015,-1.015,8.797,63.165,57.443,9.831,34.858,14.843,4.156,26.651,9.898,9.939,9.856,6.138
Thu Dec 05 12:51:19 2024,225,-11.068,-11.068,0.957,-0.957,8.621,58.692,46.517,9.094,33.968,14.469,3.300,26.169,9.726,9.338,29.706,6.218
Thu Dec 05 12:51:19 2024,230,-11.061,-11.061,0.856,-0.856,8.407,55.300,39.370,8.514,33.203,14.149,2.750,25.914,9.618,8.956,29.489,6.379
Thu Dec 05 12:51:19 2024,235,-10.998,-10.998,0.624,-0.624,7.721,52.452,34.746,8.050,32.436,13.844,2.654,25.951,9.613,8.920,29.618,6.781
Thu Dec 05 12:51:19 2024,240,-10.877,-10.877,0.398,-0.398,7.076,49.483,30.125,7.560,31.558,13.484,2.612,25.992,9.601,8.914,29.778,7.167
Thu Dec 05 12:51:19 2024,245,-10.544,-10.544,0.312,-0.312,6.708,47.511,27.028,7.186,30.650,13.103,2.848,26.033,9.561,9.072,29.952,7.267
Thu Dec 05 12:51:19 2024,250,-10.174,-10.174,0.240,-0.240,6.330,45.486,23.949,6.786,29.668,12.684,3.139,26.092,9.517,9.267,30.150,7.341
Thu Dec 05 12:51:19 2024,255,-9.927,-9.927,-0.175,-0.175,5.768,43.609,21.364,6.444,28.991,12.364,3.311,26.195,9.578,9.446,30.450,7.441
Thu Dec 05 12:51:19 2024,260,-9.696,-9.696,-0.140,-0.140,5.168,41.699,18.834,6.101,28.346,12.049,3.470,26.312,9.661,9.627,30.786,7.551
Thu Dec 05 12:51:19 2024,265,-9.415,-9.415,-0.214,-0.214,4.623,40.071,16.927,5.829,27.849,11.840,3.555,26.467,9.768,9.750,31.057,7.599
Thu Dec 05 12:51:19 2024,270,-9.178,-9.178,-0.312,-0.312,4.200,38.865,15.634,5.638,27.508,11.715,3.593,26.609,9.867,9.824,31.252,7.610
Thu Dec 05 12:51:19 2024,275,-9.007,-9.007,-0.320,-0.320,3.749,37.648,14.401,5.450,27.203,11.593,3.623,26.737,9.959,9.890,31.445,7.656
Thu Dec 05 12:51:19 2024,280,-8.918,-8.918,-0.240,-0.240,3.294,36.498,13.309,5.277,26.960,11.480,3.642,26.840,10.036,9.944,31.623,7.739
Thu Dec 05 12:51:19 2024,285,-8.850,-8.850,-0.216,-0.216,2.885,35.472,12.409,5.147,26.772,11.355,3.670,26.934,10.064,10.029,31.812,7.785
Thu Dec 05 12:51:19 2024,290,-8.795,-8.795,-0.219,-0.219,2.494,34.509,11.699,5.078,26.657,11.187,3.722,27.024,10.002,10.191,32.045,7.765
Thu Dec 05 12:51:19 2024,295,-8.761,-8.761,-0.216,0.106,2.088,33.588,11.060,5.008,26.544,11.023,3.764,27.142,9.951,10.337,32.269,7.742
Thu Dec 05 12:51:19 2024,300,-8.761,-8.761,-0.208,0.208,1.635,32.797,10.615,4.927,26.432,10.878,3.774,27.343,9.953,10.421,32.450,7.717
Thu Dec 05 12:51:19 2024,305,-8.765,-8.765,-0.219,0.219,1.228,32.105,10.238,4.858,26.330,10.748,3.786,27.537,9.960,10.492,32.608,7.694
Thu Dec 05 12:51:19 2024,310,-8.723,-8.723,-0.199,0.199,1.048,31.520,9.960,4.916,26.249,10.610,3.946,27.643,9.930,10.620,32.713,7.657
Thu Dec 05 12:51:19 2024,315,-8.682,-8.682,-0.193,0.193,0.840,30.850,9.642,4.981,26.162,10.452,4.130,27.768,9.896,10.766,32.834,7.614
Thu Dec 05 12:51:19 2024,320,-8.715,-8.715,-0.191,0.191,0.573,30.191,9.357,4.952,25.983,10.231,4.215,27.902,9.869,10.728,32.804,7.546
Thu Dec 05 12:51:19 2024,325,-8.768,-8.768,-0.195,0.195,0.316,29.547,9.084,4.895,25.782,9.995,4.273,28.036,9.843,10.638,32.732,7.472
Thu Dec 05 12:51:19 2024,330,-8.820,-8.820,-0.184,0.184,-0.225,28.862,8.746,4.895,25.648,9.716,4.414,28.295,9.776,10.622,32.786,7.357
Thu Dec 05 12:51:19 2024,335,-8.864,-8.864,-0.178,-0.003,-0.348,28.310,8.446,4.934,25.592,9.476,4.582,28.574,9.699,10.664,32.916,7.244
Thu Dec 05 12:51:19 2024,340,-8.928,-8.928,-0.187,-0.187,-0.541,27.696,8.139,4.986,25.548,9.232,4.757,28.848,9.622,10.708,33.034,7.129
Thu Dec 05 12:51:19 2024,345,-9.027,-9.027,-0.182,0.060,-0.767,26.962,7.833,5.064,25.530,8.995,4.936,29.089,9.554,10.746,33.111,7.019
Thu Dec 05 12:51:19 2024,350,-9.105,-9.105,-0.181,0.181,-0.940,26.365,7.589,5.155,25.554,8.810,5.110,29.323,9.501,10.797,33.202,6.929
Thu Dec 05 12:51:19 2024,355,-9.132,-9.132,-0.169,-0.169,-0.975,25.982,7.465,5.303,25.686,8.732,5.307,29.588,9.480,10.893,33.349,6.876
Thu Dec 05 12:51:19 2024,360,-9.168,-9.168,-0.167,-0.167,-1.024,25.598,7.337,5.438,25.807,8.652,5.491,29.840,9.456,10.980,33.487,6.825
Thu Dec 05 12:51:19 2024,365,-9.227,-9.227,-0.156,-0.156,-1.212,25.156,7.165,5.442,25.794,8.534,5.547,29.985,9.406,10.968,33.539,6.789
Thu Dec 05 12:51:19 2024,370,-9.295,-9.295,-0.145,-0.145,-1.439,24.719,6.980,5.412,25.747,8.405,5.568,30.101,9.349,10.930,33.569,6.758
Thu Dec 05 12:51:19 2024,375,-9.346,-9.346,-0.123,-0.069,-1.586,24.498,6.880,5.449,25.798,8.333,5.664,30.303,9.299,10.994,33.689,6.709
Thu Dec 05 12:51:19 2024,380,-9.384,-9.384,-0.101,0.101,-1.681,24.401,6.831,5.516,25.891,8.296,5.787,30.527,9.257,11.100,33.840,6.657
Thu Dec 05 12:51:19 2024,385,-9.407,-9.407,-0.097,0.097,-1.770,24.291,6.798,5.618,26.031,8.302,5.879,30.665,9.215,11.188,33.949,6.632
Thu Dec 05 12:51:19 2024,390,-9.415,-9.415,-0.101,0.101,-1.845,24.184,6.783,5.739,26.194,8.345,5.933,30.708,9.178,11.249,34.006,6.633
Thu Dec 05 12:51:19 2024,395,-9.406,-9.406,-0.099,0.099,-1.933,24.050,6.724,5.872,26.406,8.419,5.978,30.706,9.131,11.296,34.028,6.640
Thu Dec 05 12:51:19 2024,400,-9.366,-9.366,-0.091,-0.030,-2.016,23.906,6.595,5.982,26.640,8.528,5.989,30.611,9.080,11.293,33.968,6.656
Thu Dec 05 12:51:19 2024,405,-9.324,-9.324,-0.101,-0.101,-2.091,23.775,6.466,6.112,26.929,8.658,6.003,30.508,9.019,11.307,33.927,6.666
Thu Dec 05 12:51:19 2024,410,-9.282,-9.282,-0.095,-0.095,-2.087,23.706,6.348,6.378,27.552,8.932,6.034,30.360,8.886,11.442,34.032,6.626
Thu Dec 05 12:51:19 2024,415,-9.247,-9.247,-0.091,-0.091,-2.083,23.650,6.252,6.592,28.079,9.153,6.061,30.240,8.778,11.550,34.119,6.594
Thu Dec 05 12:51:19 2024,420,-9.313,-9.313,-0.077,0.077,-2.142,23.664,6.310,6.749,28.755,9.564,6.014,30.011,8.721,11.631,34.176,6.617
Thu Dec 05 12:51:19 2024,425,-9.394,-9.394,-0.130,0.130,-2.207,23.691,6.392,6.880,29.434,9.971,5.958,29.782,8.679,11.700,34.222,6.650
Thu Dec 05 12:51:19 2024,430,-9.414,-9.414,-0.163,0.163,-2.228,23.687,6.383,7.101,30.349,10.418,5.908,29.505,8.578,11.806,34.245,6.619
Thu Dec 05 12:51:19 2024,435,-9.401,-9.401,-0.178,0.178,-2.226,23.667,6.324,7.375,31.436,10.897,5.861,29.197,8.442,11.934,34.259,6.554
Thu Dec 05 12:51:19 2024,440,-9.443,-9.443,-0.202,0.202,-2.232,23.666,6.323,7.620,32.386,11.292,5.792,28.917,8.306,12.033,34.213,6.466
Thu Dec 05 12:51:19 2024,445,-9.544,-9.544,-0.240,0.240,-2.244,23.683,6.374,7.895,33.402,11.693,5.687,28.601,8.141,12.123,34.106,6.336
Thu Dec 05 12:51:19 2024,450,-9.586,-9.586,-0.277,0.277,-2.270,23.696,6.402,8.178,34.452,12.120,5.538,28.298,8.026,12.220,33.981,6.208
Thu Dec 05 12:51:19 2024,455,-9.541,-9.541,-0.310,0.310,-2.309,23.703,6.398,8.444,35.454,12.553,5.340,28.034,7.989,12.317,33.842,6.095
Thu Dec 05 12:51:19 2024,460,-9.497,-9.497,-0.351,0.351,-2.320,23.697,6.407,8.720,36.428,12.987,5.165,27.825,7.964,12.401,33.705,5.963
Thu Dec 05 12:51:19 2024,465,-9.454,-9.454,-0.418,0.418,-2.240,23.644,6.465,9.042,37.342,13.468,5.059,27.791,7.977,12.439,33.532,5.774
Thu Dec 05 12:51:19 2024,470,-9.403,-9.403,-0.494,0.494,-2.143,23.587,6.535,9.433,38.432,14.037,4.943,27.772,7.996,12.487,33.346,5.545
Thu Dec 05 12:51:19 2024,475,-9.385,-9.385,-0.519,0.519,-2.015,23.607,6.597,9.852,39.413,14.569,5.012,28.100,8.074,12.551,33.196,5.305
Thu Dec 05 12:51:19 2024,480,-9.364,-9.364,-0.550,0.550,-1.881,23.621,6.657,10.263,40.365,15.100,5.078,28.430,8.160,12.614,33.076,5.072
Thu Dec 05 12:51:19 2024,485,-9.304,-9.304,-0.616,0.616,-1.693,23.522,6.669,10.566,41.028,15.648,5.103,28.741,8.306,12.659,7.008,4.934
Thu Dec 05 12:51:19 2024,490,-9.233,-9.233,-0.693,0.693,-1.493,23.396,6.666,10.828,41.592,16.196,5.116,29.042,8.468,12.700,7.068,4.830
Thu Dec 05 12:51:19 2024,495,-9.100,-9.100,-0.761,0.761,-1.148,23.275,6.693,11.121,42.295,17.158,5.107,29.581,8.778,12.712,7.120,4.794
Thu Dec 05 12:51:19 2024,500,-8.948,-8.948,-0.806,0.806,-0.772,23.217,6.738,11.368,42.947,18.238,5.081,30.188,9.135,12.696,7.162,4.823
Thu Dec 05 12:51:19 2024,505,-8.790,-8.790,-0.818,0.818,-0.358,23.198,6.786,11.719,43.812,19.652,5.041,30.908,9.503,12.736,7.134,4.906
Thu Dec 05 12:51:19 2024,510,-8.615,-8.615,-0.773,0.773,0.130,23.228,6.839,12.260,45.069,21.689,4.981,31.822,9.890,12.876,6.986,5.079
Thu Dec 05 12:51:19 2024,515,-8.459,-8.459,-0.745,0.745,0.514,23.237,6.857,12.685,46.288,23.722,4.904,32.624,10.287,13.029,6.813,5.296
Thu Dec 05 12:51:19 2024,520,-8.277,-8.277,-0.747,0.747,0.807,23.031,6.777,12.949,47.891,26.501,4.770,33.428,10.884,13.285,6.498,5.725
Thu Dec 05 12:51:19 2024,525,-8.154,-8.154,-0.791,0.791,1.029,22.782,6.782,13.229,49.225,28.816,4.663,34.228,11.355,13.478,6.269,6.063
Thu Dec 05 12:51:19 2024,530,-8.172,-8.172,-0.958,0.958,1.080,22.246,7.022,13.646,49.964,29.990,4.648,35.144,11.531,13.538,6.252,6.203
Thu Dec 05 12:51:19 2024,535,-8.237,-8.237,-1.197,1.197,1.098,21.620,7.353,14.175,50.670,31.091,4.647,36.214,11.648,13.579,6.275,6.309
Thu Dec 05 12:51:19 2024,540,-8.193,-8.193,-1.273,1.273,0.768,20.933,7.281,14.757,50.126,30.571,4.058,37.322,11.565,13.486,6.435,6.330
Thu Dec 05 12:51:19 2024,545,-8.164,-8.164,-1.324,1.324,0.445,19.552,7.181,15.318,49.538,29.848,3.472,38.335,11.451,13.399,6.568,6.338
Thu Dec 05 12:51:19 2024,550,-8.318,-8.318,-1.590,1.590,-0.058,19.461,7.222,17.454,48.342,27.832,2.494,38.608,11.682,12.878,7.117,6.380
Thu Dec 05 12:51:19 2024,555,-8.543,-8.543,-1.907,1.907,-0.528,19.022,7.327,19.873,47.482,25.424,1.584,38.447,12.055,12.246,7.753,6.432
Thu Dec 05 12:51:19 2024,560,-8.699,-8.699,-2.151,2.151,-0.710,18.840,7.604,21.913,47.383,23.756,0.998,38.641,12.850,11.804,8.176,6.497
Thu Dec 05 12:51:19 2024,565,-8.759,-8.759,0.804,2.292,-0.618,18.967,7.977,23.273,47.683,23.168,-0.336,39.078,13.869,11.596,8.347,6.564
Thu Dec 05 12:51:19 2024,570,-8.886,-8.886,2.395,2.395,-0.506,19.324,8.442,24.264,48.242,23.146,-1.200,39.943,14.986,11.527,8.382,6.444
Thu Dec 05 12:51:19 2024,575,-9.124,-9.124,0.024,2.324,-0.402,20.748,8.880,23.755,49.029,24.635,-1.356,41.386,15.657,11.879,8.064,5.902
Thu Dec 05 12:51:19 2024,580,-9.351,-9.351,-2.248,2.248,-0.297,21.560,9.288,23.270,49.981,26.159,-1.505,42.708,16.284,12.220,7.746,5.415
Thu Dec 05 12:51:19 2024,585,-9.490,-9.490,-2.052,2.052,0.054,21.857,9.584,23.782,52.820,29.283,-1.833,42.795,16.917,12.519,7.380,5.053
Thu Dec 05 12:51:19 2024,590,-9.619,-9.619,-1.895,1.895,0.385,22.144,9.914,24.262,55.488,32.465,-2.198,42.938,17.636,12.785,7.025,4.809
Thu Dec 05 12:51:19 2024,595,-9.740,-9.740,-1.826,1.826,0.824,22.202,10.590,24.699,57.305,35.716,-2.550,43.461,19.238,12.998,6.679,5.132
Thu Dec 05 12:51:19 2024,600,-9.858,-9.858,-1.777,1.777,1.275,22.308,11.308,25.137,58.951,39.093,-2.892,44.131,21.115,13.197,6.325,5.582
Thu Dec 05 12:51:19 2024,605,-9.950,-9.950,-1.700,1.700,1.722,22.555,11.852,25.713,60.777,42.511,-3.193,45.324,23.204,13.373,6.044,5.949
Thu Dec 05 12:51:19 2024,610,-10.044,-10.044,-1.584,1.584,2.275,22.972,12.395,26.563,63.221,46.958,-3.550,47.215,26.203,13.571,5.760,6.350
Thu Dec 05 12:51:19 2024,615,-10.095,-10.095,1.515,1.515,2.819,23.513,12.883,27.090,65.244,50.808,-3.859,49.150,28.996,13.688,5.645,6.714
Thu Dec 05 12:51:19 2024,620,-10.123,-10.123,1.476,1.476,3.320,24.067,13.312,27.412,66.925,54.168,-4.136,50.987,31.590,13.755,5.627,7.039
Thu Dec 05 12:51:19 2024,625,-10.119,-10.119,1.417,1.417,3.898,24.753,13.800,27.596,68.903,58.409,-4.448,53.163,34.899,13.836,5.642,7.454
Thu Dec 05 12:51:19 2024,630,-10.053,-10.053,1.346,1.346,4.365,25.394,14.179,27.360,70.540,62.331,-4.660,55.003,37.874,13.907,5.711,7.853
Thu Dec 05 12:51:19 2024,635,-10.025,-10.025,1.293,1.293,4.737,25.944,14.517,27.124,72.067,65.867,-4.883,56.675,40.694,13.967,5.754,8.208
Thu Dec 05 12:51:19 2024,640,-10.084,-10.084,1.283,1.283,4.905,26.323,14.798,26.859,73.368,68.656,-5.093,58.084,43.003,14.004,5.778,8.451
Thu Dec 05 12:51:19 2024,645,-10.160,-10.160,1.269,1.269,5.116,26.806,15.149,26.548,75.024,72.021,-5.363,59.813,45.990,14.045,5.802,8.756
Thu Dec 05 12:51:19 2024,650,-10.151,-10.151,1.260,1.260,5.292,27.202,15.427,26.389,76.294,74.180,-5.486,61.007,48.232,14.048,5.844,8.972
Thu Dec 05 12:51:19 2024,655,-10.130,-10.130,1.247,1.247,5.506,27.686,15.766,26.224,77.838,76.633,-5.649,62.425,50.995,14.046,5.890,9.233
Thu Dec 05 12:51:19 2024,660,-10.137,-10.137,1.234,1.234,5.638,28.110,16.024,25.908,79.108,78.530,-5.815,63.669,53.314,14.030,5.938,9.447
Thu Dec 05 12:51:19 2024,665,-10.150,-10.150,1.224,1.224,5.732,28.463,16.227,25.608,80.140,79.988,-5.978,64.695,55.212,14.012,5.973,9.621
Thu Dec 05 12:51:19 2024,670,-10.124,-10.124,1.177,1.177,5.815,28.915,16.423,25.377,81.310,81.485,-6.187,65.830,57.246,14.026,5.968,9.623
Thu Dec 05 12:51:19 2024,675,-10.069,-10.069,1.106,1.106,5.876,29.390,16.583,25.251,82.416,82.766,-6.410,66.881,59.090,14.064,5.931,9.474
Thu Dec 05 12:51:19 2024,680,-10.012,-10.012,1.070,1.070,5.944,29.773,16.738,25.182,83.283,83.710,-6.614,67.704,60.510,14.109,5.889,9.453
Thu Dec 05 12:51:19 2024,685,-9.917,-9.917,1.064,1.064,6.058,30.228,16.972,25.152,84.279,84.727,-6.885,68.651,62.080,14.187,5.814,9.607
Thu Dec 05 12:51:19 2024,690,-9.825,-9.825,1.039,1.039,6.157,30.645,17.202,25.138,85.164,85.636,-7.147,69.519,63.434,14.245,5.753,9.741
Thu Dec 05 12:51:19 2024,695,-9.738,-9.738,0.961,0.961,6.215,30.967,17.415,25.136,85.785,86.367,-7.364,70.198,64.269,14.255,5.740,9.801
Thu Dec 05 12:51:19 2024,700,-9.656,-9.656,0.889,0.889,6.290,31.302,17.638,25.136,86.413,87.095,-7.576,70.872,65.142,14.264,5.727,9.854
Thu Dec 05 12:51:19 2024,705,-9.612,-9.612,0.854,0.854,6.488,31.676,17.909,25.104,87.009,87.801,-7.700,71.443,66.228,14.270,5.721,9.861
Thu Dec 05 12:51:19 2024,710,-9.581,-9.581,0.830,0.830,6.670,31.996,18.144,25.078,87.505,88.374,-7.804,71.909,67.158,14.275,5.716,9.861
Thu Dec 05 12:51:19 2024,715,-9.468,-9.468,0.867,0.867,6.774,32.325,18.354,25.202,88.040,88.782,-7.991,72.420,67.653,14.281,5.701,9.993
Thu Dec 05 12:51:19 2024,720,-9.350,-9.350,0.910,0.910,6.862,32.638,18.548,25.341,88.553,89.145,-8.180,72.910,68.066,14.283,5.686,10.133
Thu Dec 05 12:51:19 2024,725,-9.272,-9.272,0.872,0.872,6.951,32.809,18.663,25.264,88.883,89.550,-8.252,73.181,68.560,14.190,5.778,10.093
Thu Dec 05 12:51:19 2024,730,-9.216,-9.216,0.282,0.795,7.041,32.908,18.735,25.077,89.119,89.969,-8.269,73.340,69.097,14.052,5.925,9.963
Thu Dec 05 12:51:19 2024,735,-9.202,-9.202,-0.790,0.790,7.116,32.981,18.752,24.883,89.339,90.344,-8.314,73.542,69.568,13.948,6.030,9.925
Thu Dec 05 12:51:19 2024,740,-9.237,-9.237,0.863,0.863,7.169,33.019,18.705,24.697,89.520,90.641,-8.387,73.776,69.923,13.895,6.079,9.993
Thu Dec 05 12:51:19 2024,745,-9.268,-9.268,0.890,0.890,7.212,33.038,18.666,24.566,89.644,90.852,-8.437,73.942,70.167,13.832,6.136,10.048
Thu Dec 05 12:51:19 2024,750,-9.287,-9.287,-0.818,0.818,7.233,33.015,18.648,24.546,89.642,90.887,-8.433,73.959,70.175,13.756,6.206,10.074
Thu Dec 05 12:51:19 2024,755,-9.318,-9.318,-0.745,0.745,7.249,32.982,18.625,24.517,89.620,90.911,-8.427,73.969,70.155,13.661,6.288,10.117
Thu Dec 05 12:51:19 2024,760,-9.372,-9.372,-0.734,0.734,7.210,32.931,18.609,24.449,89.512,90.846,-8.412,73.930,69.996,13.569,6.361,10.217
Thu Dec 05 12:51:19 2024,765,-9.436,-9.436,-0.722,0.722,7.165,32.872,18.589,24.373,89.387,90.770,-8.395,73.885,69.811,13.461,6.441,10.335
Thu Dec 05 12:51:19 2024,770,-9.422,-9.422,-0.773,0.773,7.186,32.772,18.507,24.042,89.142,90.215,-8.312,73.647,69.279,13.346,6.506,10.595
Thu Dec 05 12:51:19 2024,775,-9.399,-9.399,-0.620,0.838,7.210,32.687,18.423,23.729,88.870,89.610,-6.438,73.378,68.701,13.197,6.598,10.816
Thu Dec 05 12:51:19 2024,780,-9.376,-9.376,0.382,0.929,7.219,32.660,18.356,23.545,88.515,88.938,2.586,73.039,68.009,12.916,6.835,10.846
Thu Dec 05 12:51:19 2024,785,-9.355,-9.355,1.015,1.015,7.225,32.642,18.296,23.393,88.182,88.316,7.957,72.721,67.363,12.644,7.069,10.850
Thu Dec 05 12:51:19 2024,790,-9.272,-9.272,1.131,1.131,7.184,32.572,18.184,23.130,87.478,87.273,7.730,72.090,66.125,12.244,7.417,10.758
Thu Dec 05 12:51:19 2024,795,-9.155,-9.155,1.240,1.240,7.113,32.457,18.050,22.812,86.629,86.110,7.483,71.347,64.683,11.860,32.255,10.642
Thu Dec 05 12:51:19 2024,800,-9.009,-9.009,1.344,1.344,7.044,32.360,17.966,22.439,85.278,84.371,7.134,70.138,62.524,11.391,31.879,10.629
Thu Dec 05 12:51:19 2024,805,-8.878,-8.878,1.384,1.384,7.014,32.346,18.019,22.152,83.625,82.362,6.799,68.623,60.066,10.994,31.602,10.820
Thu Dec 05 12:51:19 2024,810,-8.758,-8.758,1.462,1.462,6.983,32.382,18.137,21.893,81.530,79.668,6.516,66.935,57.012,10.675,31.458,11.119
Thu Dec 05 12:51:19 2024,815,-8.677,-8.677,1.670,1.670,6.949,32.594,18.475,21.699,77.886,74.624,6.157,64.636,52.052,10.631,31.770,11.819
Thu Dec 05 12:51:19 2024,820,-8.604,-8.604,1.866,1.866,6.917,32.792,18.783,21.661,74.625,69.897,5.938,62.546,48.004,10.591,32.111,12.482
Thu Dec 05 12:51:19 2024,825,-8.200,-8.200,2.396,2.396,6.492,31.891,18.106,22.855,69.355,61.578,4.892,58.681,41.398,9.974,31.302,12.116
Thu Dec 05 12:51:19 2024,830,-7.880,-7.880,2.831,2.831,6.125,31.078,17.486,23.879,65.522,55.328,4.099,55.674,36.948,9.443,30.552,11.712
Thu Dec 05 12:51:19 2024,835,-7.702,-7.702,2.896,2.896,5.777,30.792,16.670,21.642,63.012,51.254,3.820,53.328,33.279,9.185,30.426,11.310
Thu Dec 05 12:51:19 2024,840,-7.593,-7.593,2.852,2.852,5.484,30.701,15.918,18.891,61.254,48.387,3.755,51.512,30.418,9.039,30.507,10.968
Thu Dec 05 12:51:19 2024,845,-7.444,-7.444,2.843,2.843,5.478,30.948,15.752,16.254,59.085,45.064,3.794,49.951,28.412,9.058,30.779,11.138
Thu Dec 05 12:51:19 2024,850,-7.280,-7.280,2.870,2.870,5.757,31.480,16.205,14.248,56.907,41.936,3.913,48.900,27.472,9.233,31.181,11.794
Thu Dec 05 12:51:19 2024,855,-7.177,-7.177,3.025,3.025,5.959,31.898,16.018,12.944,54.988,38.532,3.906,47.484,26.263,9.313,31.286,11.959
Thu Dec 05 12:51:19 2024,860,-7.168,-7.168,3.333,3.333,6.020,32.085,14.942,12.674,53.630,35.135,3.705,45.784,24.790,9.246,30.962,11.393
Thu Dec 05 12:51:19 2024,865,-7.142,-7.142,3.632,3.632,6.044,32.298,13.664,12.392,52.024,31.630,3.532,44.158,23.054,9.223,30.732,10.730
Thu Dec 05 12:51:19 2024,870,-7.078,-7.078,3.792,3.792,5.957,32.504,12.316,12.128,50.216,28.474,3.479,43.332,21.194,9.332,30.819,10.040
Thu Dec 05 12:51:19 2024,875,-7.033,-7.033,3.998,3.998,5.856,32.724,10.950,11.804,48.192,25.146,3.434,42.402,19.260,9.436,30.908,9.321
Thu Dec 05 12:51:19 2024,880,-7.123,-7.123,4.312,4.312,5.739,32.852,10.273,11.313,46.051,22.282,3.459,41.457,17.931,9.450,30.952,8.897
Thu Dec 05 12:51:19 2024,885,-7.256,-7.256,4.630,4.630,5.618,32.960,9.730,10.823,43.914,19.613,3.558,40.418,16.656,9.448,30.995,8.517
Thu Dec 05 12:51:19 2024,890,-7.411,-7.411,4.743,4.743,5.536,33.004,9.477,10.597,42.560,18.214,3.903,39.347,15.650,9.455,31.042,8.264
Thu Dec 05 12:51:19 2024,895,-7.587,-7.587,4.767,4.767,5.468,33.021,9.345,10.478,41.502,17.316,4.380,38.232,14.732,9.464,31.094,8.057
Thu Dec 05 12:51:19 2024,900,-7.814,-7.814,4.771,4.771,5.356,33.095,9.284,10.309,40.532,16.594,4.971,37.338,14.022,9.514,31.347,7.992
Thu Dec 05 12:51:19 2024,905,-7.999,-7.999,4.760,4.760,5.252,33.183,9.289,10.166,39.933,16.217,5.442,36.880,13.672,9.573,31.654,8.038
Thu Dec 05 12:51:19 2024,910,-8.241,-2.633,4.756,4.756,5.128,33.216,9.297,9.958,39.215,15.827,5.836,36.403,13.333,9.630,32.003,8.164
Thu Dec 05 12:51:19 2024,915,-8.470,8.470,4.760,4.760,5.023,33.167,9.308,9.738,38.590,15.551,6.002,36.038,13.121,9.666,32.281,8.346
Thu Dec 05 12:51:19 2024,920,-8.690,8.690,4.774,4.774,4.932,33.127,9.324,9.520,37.951,15.296,6.190,35.720,12.936,9.720,32.602,8.536
Thu Dec 05 12:51:19 2024,925,-8.782,8.782,4.806,4.806,4.919,33.127,9.347,9.402,37.567,15.212,6.342,35.636,12.888,9.796,32.872,8.661
Thu Dec 05 12:51:19 2024,930,-8.878,8.878,4.837,4.837,4.901,33.115,9.372,9.249,37.109,15.092,6.496,35.526,12.814,9.857,33.127,8.794
Thu Dec 05 12:51:19 2024,935,-8.908,8.908,4.841,4.841,4.873,33.059,9.379,9.051,36.671,14.907,6.534,35.368,12.665,9.788,33.077,8.849
Thu Dec 05 12:51:19 2024,940,-8.933,8.933,4.845,4.845,4.850,33.013,9.386,8.889,36.311,14.754,6.565,35.240,12.545,9.731,33.037,8.895
Thu Dec 05 12:51:19 2024,945,-8.964,8.964,4.903,4.903,4.758,32.941,9.383,8.722,35.936,14.582,6.614,35.166,12.446,9.704,33.088,8.904
Thu Dec 05 12:51:19 2024,950,-8.987,8.987,4.962,4.962,4.672,32.883,9.378,8.602,35.664,14.453,6.654,35.132,12.384,9.694,33.153,8.900
Thu Dec 05 12:51:19 2024,955,-8.988,8.988,5.016,5.016,4.620,32.853,9.391,8.520,35.368,14.276,6.712,35.139,12.347,9.739,33.255,8.900
Thu Dec 05 12:51:19 2024,960,-8.977,8.977,5.059,5.059,4.592,32.841,9.413,8.468,35.101,14.100,6.771,35.166,12.328,9.804,33.360,8.902
Thu Dec 05 12:51:19 2024,965,-8.972,8.972,5.113,5.113,4.519,32.770,9.403,8.296,34.637,13.889,6.758,35.185,12.337,9.837,33.481,8.970
Thu Dec 05 12:51:19 2024,970,-8.971,8.971,5.169,5.169,4.413,32.654,9.365,8.040,34.056,13.670,6.683,35.195,12.369,9.836,33.601,9.089
Thu Dec 05 12:51:19 2024,975,-9.014,9.014,5.207,5.207,4.344,32.548,9.349,7.839,33.541,13.454,6.642,35.197,12.379,9.842,33.688,9.149
Thu Dec 05 12:51:19 2024,980,-9.149,9.149,5.212,5.212,4.333,32.445,9.374,7.708,33.070,13.212,6.662,35.182,12.350,9.862,33.720,9.106
Thu Dec 05 12:51:19 2024,985,-9.295,9.295,5.231,5.231,4.301,32.324,9.383,7.559,32.580,12.955,6.658,35.156,12.317,9.891,33.753,9.049
Thu Dec 05 12:51:19 2024,990,-9.387,9.387,5.286,5.286,4.215,32.220,9.333,7.444,32.304,12.792,6.578,35.108,12.291,9.935,33.771,8.981
Thu Dec 05 12:51:19 2024,995,-9.520,9.520,5.364,5.364,4.093,32.077,9.266,7.283,31.915,12.563,6.464,35.045,12.254,9.999,33.796,8.886
Thu Dec 05 12:51:20 2024,0,-9.666,9.666,5.429,5.429,3.963,32.097,9.306,7.129,31.623,12.401,6.318,35.089,12.225,10.080,33.853,8.838
Thu Dec 05 12:51:20 2024,5,-9.829,9.829,5.502,5.502,3.820,32.122,9.350,6.959,31.299,12.222,6.156,35.141,12.193,10.171,33.915,8.785
Thu Dec 05 12:51:20 2024,10,-9.907,9.907,5.528,5.528,3.642,32.012,9.285,6.792,31.033,12.073,6.024,35.223,12.171,10.219,33.941,8.701
Thu Dec 05 12:51:20 2024,15,-9.945,9.945,5.535,5.535,3.488,31.881,9.198,6.656,30.833,11.960,5.926,35.299,12.157,10.245,33.951,8.622
Thu Dec 05 12:51:20 2024,20,-10.003,10.003,5.524,5.524,3.351,31.779,9.157,6.529,30.625,11.915,5.848,35.393,12.196,10.302,33.930,8.570
Thu Dec 05 12:51:20 2024,25,-10.066,10.066,5.501,5.501,3.260,31.724,9.164,6.435,30.460,11.938,5.805,35.482,12.271,10.371,33.890,8.550
Thu Dec 05 12:51:20 2024,30,-10.101,10.101,5.476,5.476,3.161,31.659,9.173,6.364,30.353,11.986,5.743,35.562,12.330,10.452,33.846,8.548
Thu Dec 05 12:51:20 2024,35,-10.070,10.070,5.450,5.450,3.049,31.574,9.184,6.348,30.388,12.090,5.641,35.617,12.350,10.554,33.797,8.592
Thu Dec 05 12:51:20 2024,40,-10.046,10.046,5.426,5.426,2.940,31.489,9.193,6.321,30.414,12.188,5.532,35.695,12.381,10.666,33.762,8.623
Thu Dec 05 12:51:20 2024,45,-10.055,10.055,5.418,5.418,2.830,31.388,9.187,6.205,30.395,12.269,5.354,35.932,12.493,10.857,33.797,8.578
Thu Dec 05 12:51:20 2024,50,-10.054,10.054,5.408,5.408,2.743,31.308,9.185,6.108,30.368,12.339,5.205,36.139,12.595,11.020,33.821,8.542
Thu Dec 05 12:51:20 2024,55,-9.967,9.967,5.355,5.355,2.736,31.282,9.213,6.045,30.220,12.401,5.110,36.329,12.754,11.164,33.754,8.542
Thu Dec 05 12:51:20 2024,60,-9.857,9.857,5.289,5.289,2.726,31.251,9.248,5.966,30.033,12.478,4.991,36.571,12.954,11.346,33.683,8.540
Thu Dec 05 12:51:20 2024,65,-9.838,9.838,5.375,5.375,2.632,31.192,9.359,5.886,29.828,12.570,4.968,36.974,13.267,11.528,33.631,8.502
Thu Dec 05 12:51:20 2024,70,-9.839,9.839,5.486,5.486,2.528,31.133,9.477,5.812,29.633,12.659,4.966,37.384,13.583,11.698,33.594,8.456
Thu Dec 05 12:51:20 2024,75,-9.817,9.817,5.565,5.565,2.436,31.124,9.574,5.729,29.421,12.762,4.907,37.949,14.027,11.797,33.562,8.517
Thu Dec 05 12:51:20 2024,80,-9.777,9.777,5.627,5.627,2.346,31.154,9.662,5.634,29.178,12.886,4.794,38.689,14.614,11.849,33.525,8.670
Thu Dec 05 12:51:20 2024,85,-9.785,9.785,5.712,5.712,2.281,31.237,9.746,5.626,29.148,13.072,4.778,39.486,15.284,11.860,33.510,8.785
Thu Dec 05 12:51:20 2024,90,-9.844,9.844,5.822,5.822,2.241,31.373,9.829,5.707,29.338,13.325,4.864,40.354,16.059,11.827,33.516,8.864
Thu Dec 05 12:51:20 2024,95,-9.935,9.935,6.014,6.014,2.214,31.599,9.921,5.870,29.682,13.705,4.962,41.510,17.174,11.753,33.509,8.977
Thu Dec 05 12:51:20 2024,100,-10.036,10.036,6.265,6.265,2.233,31.881,9.982,6.109,30.148,14.125,5.024,42.589,18.345,11.637,33.480,9.094
Thu Dec 05 12:51:20 2024,105,-10.140,10.140,6.482,6.482,2.256,32.162,10.060,6.348,30.596,14.502,5.088,43.677,19.556,11.552,33.476,9.236
Thu Dec 05 12:51:20 2024,110,-10.313,10.313,6.575,6.575,2.314,32.602,10.307,6.703,31.148,14.737,5.180,45.352,21.558,11.636,33.630,9.619
Thu Dec 05 12:51:20 2024,115,-10.486,10.486,6.643,6.643,2.378,33.037,10.565,7.042,31.629,14.866,5.286,47.062,23.686,11.746,33.794,10.029
Thu Dec 05 12:51:20 2024,120,-10.542,10.542,6.788,6.788,2.436,33.260,10.681,6.966,30.967,13.733,5.366,48.165,25.582,11.842,33.760,10.468
Thu Dec 05 12:51:20 2024,125,-10.575,10.575,6.959,6.959,2.494,33.444,10.768,6.784,30.028,12.258,5.464,49.255,27.725,11.934,33.681,10.958
Thu Dec 05 12:51:20 2024,130,-10.599,10.599,6.937,6.937,2.388,33.386,10.676,6.672,29.699,11.062,5.797,50.395,29.426,11.800,33.609,11.338
Thu Dec 05 12:51:20 2024,135,-10.624,10.624,6.805,6.805,2.178,33.188,10.469,6.581,29.640,9.860,6.344,51.786,31.357,11.523,33.535,11.715
Thu Dec 05 12:51:20 2024,140,-10.660,10.660,6.800,6.800,2.038,32.918,10.225,6.458,29.580,9.144,7.032,52.112,32.589,11.180,33.234,11.754
Thu Dec 05 12:51:20 2024,145,-10.720,10.720,6.911,6.911,1.920,32.507,9.882,6.276,29.507,8.651,8.065,51.479,33.247,10.680,32.634,11.491
Thu Dec 05 12:51:20 2024,150,-10.785,10.785,6.993,6.993,1.732,32.156,9.661,6.077,29.527,8.502,9.148,50.078,33.018,10.060,31.965,11.099
Thu Dec 05 12:51:20 2024,155,-10.846,10.846,7.003,7.003,1.464,31.960,9.659,5.882,29.690,8.837,10.069,47.842,31.236,9.356,31.325,10.613
Thu Dec 05 12:51:20 2024,160,-10.912,10.912,7.016,7.016,1.172,31.761,9.685,5.677,29.875,9.209,11.202,45.349,28.566,8.551,30.620,10.105
Thu Dec 05 12:51:20 2024,165,-10.917,10.917,7.062,7.062,1.018,31.855,10.282,5.709,29.811,9.560,14.003,42.787,24.077,7.256,29.843,10.025
Thu Dec 05 12:51:20 2024,170,-10.944,10.944,7.099,7.099,0.852,31.928,10.743,5.727,29.836,9.892,15.982,41.405,20.274,6.198,29.405,9.973
Thu Dec 05 12:51:20 2024,175,-11.113,11.113,7.131,7.131,0.466,31.975,11.056,5.693,30.340,10.547,16.613,39.837,17.186,5.015,29.660,10.011
Thu Dec 05 12:51:20 2024,180,-11.300,11.300,7.156,7.156,-0.461,32.024,11.265,5.646,30.930,11.199,16.689,38.636,15.359,3.988,30.293,10.069
Thu Dec 05 12:51:20 2024,185,-11.549,11.549,7.225,7.225,-0.680,32.225,11.543,5.779,31.530,11.559,17.262,39.297,16.016,3.235,31.356,10.427
Thu Dec 05 12:51:20 2024,190,-11.764,11.764,7.294,7.294,-0.801,32.432,11.783,5.950,31.992,11.725,17.883,40.439,17.196,2.759,32.346,10.843
Thu Dec 05 12:51:20 2024,195,-11.890,11.890,7.412,7.412,-0.850,32.224,11.998,6.282,32.239,11.804,18.402,41.295,18.123,2.110,33.112,11.422
Thu Dec 05 12:51:20 2024,200,-11.880,11.880,7.550,7.550,-0.806,31.620,12.122,6.690,32.189,11.765,18.663,41.581,18.615,1.478,33.390,11.997
Thu Dec 05 12:51:20 2024,205,-11.859,11.859,7.694,7.694,-0.756,31.147,12.316,7.021,32.314,11.925,18.937,41.972,19.430,0.926,33.799,12.656
Thu Dec 05 12:51:20 2024,210,-11.816,11.816,7.871,7.871,-0.676,30.816,12.676,7.277,32.751,12.474,19.281,42.631,20.944,0.516,34.484,13.594
Thu Dec 05 12:51:20 2024,215,-11.797,11.797,8.044,8.044,-0.595,30.507,13.093,7.551,33.314,13.119,19.672,43.421,22.642,-0.824,35.358,14.702
Thu Dec 05 12:51:20 2024,220,-11.883,11.883,8.097,8.097,-0.547,30.455,13.513,7.757,34.087,13.822,20.039,44.281,24.145,-1.367,36.395,15.849
Thu Dec 05 12:51:20 2024,225,-11.951,11.951,8.142,8.142,-0.492,30.408,13.881,7.950,34.808,14.449,20.250,44.937,25.371,-1.899,37.355,16.904
Thu Dec 05 12:51:20 2024,230,-11.914,11.914,8.141,8.141,-0.361,30.376,14.045,8.144,35.463,14.884,19.403,44.319,25.572,-2.252,38.079,17.685
Thu Dec 05 12:51:20 2024,235,-11.850,11.850,8.136,8.136,-0.084,30.356,14.211,8.383,36.243,15.366,18.157,43.341,25.614,-2.631,38.908,18.573
Thu Dec 05 12:51:20 2024,240,-11.758,11.758,8.195,8.195,0.511,30.516,14.416,8.661,36.939,15.670,16.437,42.086,25.378,-2.690,39.576,19.264
Thu Dec 05 12:51:20 2024,245,-11.666,11.666,8.266,8.266,0.867,30.722,14.616,8.930,37.561,15.906,14.709,40.901,25.056,-2.661,40.153,19.855
Thu Dec 05 12:51:20 2024,250,-11.634,11.634,8.270,8.270,1.276,30.892,14.802,9.257,38.170,16.096,12.836,40.062,25.070,-2.652,40.754,20.492
Thu Dec 05 12:51:20 2024,255,-11.659,11.659,8.223,8.223,1.566,30.975,14.916,9.510,38.555,16.184,11.510,39.814,25.328,-2.661,41.164,20.940
Thu Dec 05 12:51:20 2024,260,-11.653,11.653,8.221,8.221,1.917,31.047,14.999,9.802,38.981,16.289,9.828,39.619,25.512,-2.625,41.728,21.582
Thu Dec 05 12:51:20 2024,265,-11.598,11.598,8.295,8.295,2.221,31.068,14.996,10.034,39.295,16.379,8.268,39.534,25.493,-2.534,42.322,22.285
Thu Dec 05 12:51:20 2024,270,-11.552,11.552,8.361,8.361,2.487,31.089,14.992,10.241,39.596,16.467,6.922,39.569,25.431,-2.461,42.880,22.958
Thu Dec 05 12:51:20 2024,275,-11.533,11.533,8.421,8.421,2.659,31.078,14.982,10.402,39.966,16.588,6.135,39.614,25.350,-2.425,43.480,23.735
Thu Dec 05 12:51:20 2024,280,-11.515,11.515,8.470,8.470,2.806,31.063,14.982,10.534,40.300,16.710,5.477,39.701,25.319,-2.418,44.044,24.517
Thu Dec 05 12:51:20 2024,285,-11.496,11.496,8.477,8.477,2.852,31.015,15.022,10.540,40.490,16.848,5.357,39.882,25.572,-2.529,44.492,25.349
Thu Dec 05 12:51:20 2024,290,-11.476,11.476,8.478,8.478,2.882,30.961,15.071,10.525,40.659,16.993,5.328,40.084,25.882,-2.663,44.933,26.222
