Timestamp,Millis,thumb_tm_aa,thumb_tm_flex,thumb_mcp_aa,thumb_mcp_flex,index_mcp_aa,index_mcp_flex,index_pip,middle_mcp_aa,middle_mcp_flex,middle_pip,ring_mcp_aa,ring_mcp_flex,ring_pip,little_mcp_aa,little_mcp_flex,little_pip
Thu Dec 05 12:53:43 2024,55,-22.318,-22.318,8.227,8.227,2.805,17.179,9.110,4.456,15.415,10.717,-3.214,15.980,9.020,15.777,4.208,9.597
Thu Dec 05 12:53:43 2024,60,-22.300,-22.300,8.225,8.225,2.854,17.133,9.102,4.479,15.384,10.714,-3.214,15.929,9.005,15.784,4.200,9.586
Thu Dec 05 12:53:43 2024,65,-22.250,-22.250,8.251,8.251,2.845,17.151,9.080,4.479,15.373,10.731,-3.190,15.939,9.023,15.843,4.141,9.631
Thu Dec 05 12:53:43 2024,70,-22.199,-22.199,8.281,8.281,2.838,17.162,9.059,4.478,15.362,10.745,-3.166,15.954,9.040,15.909,4.078,9.677
Thu Dec 05 12:53:43 2024,75,-22.211,-22.211,8.296,8.296,2.865,17.133,9.095,4.462,15.373,10.689,-3.168,15.996,9.014,15.924,4.063,9.658
Thu Dec 05 12:53:43 2024,80,-22.229,-22.229,8.306,8.306,2.891,17.101,9.131,4.449,15.385,10.636,-3.175,16.032,8.987,15.928,4.058,9.634
Thu Dec 05 12:53:43 2024,85,-22.195,-22.195,8.263,8.263,2.935,17.056,9.139,4.496,15.338,10.659,-3.147,16.013,8.974,15.969,4.019,9.666
Thu Dec 05 12:53:43 2024,90,-22.143,-22.143,8.203,8.203,2.980,17.012,9.134,4.562,15.273,10.711,-3.108,15.970,8.968,16.022,3.969,9.719
Thu Dec 05 12:53:43 2024,95,-22.100,-22.100,8.167,8.167,2.990,17.003,9.139,4.580,15.243,10.726,-3.105,15.923,8.955,15.973,4.016,9.671
Thu Dec 05 12:53:43 2024,100,-22.077,-22.077,8.158,8.158,2.970,17.025,9.151,4.553,15.248,10.707,-3.131,15.886,8.940,15.856,4.125,9.556
Thu Dec 05 12:53:43 2024,105,-22.061,-22.061,8.156,8.156,2.965,17.029,9.174,4.541,15.241,10.677,-3.136,15.875,8.912,15.786,4.191,9.463
Thu Dec 05 12:53:43 2024,110,-22.075,-22.075,8.176,8.176,3.010,16.974,9.221,4.582,15.206,10.629,-3.079,15.946,8.859,15.883,4.099,9.478
Thu Dec 05 12:53:43 2024,115,-22.087,-22.087,8.196,8.196,3.053,16.919,9.267,4.619,15.172,10.598,-3.026,16.014,8.829,15.959,4.026,9.495
Thu Dec 05 12:53:43 2024,120,-22.094,-22.094,8.229,8.229,3.101,16.863,9.332,4.646,15.124,10.656,-2.975,16.088,8.937,15.937,4.046,9.537
Thu Dec 05 12:53:43 2024,125,-22.100,-22.100,8.258,8.258,3.144,16.813,9.388,4.669,15.084,10.706,-2.931,16.154,9.032,15.917,4.063,9.573
Thu Dec 05 12:53:43 2024,130,-22.094,-22.094,8.248,8.248,3.122,16.823,9.354,4.644,15.128,10.684,-2.950,16.179,9.023,15.906,4.075,9.558
Thu Dec 05 12:53:43 2024,135,-22.080,-22.080,8.223,8.223,3.073,16.854,9.282,4.601,15.206,10.633,-2.995,16.190,8.974,15.898,4.082,9.524
Thu Dec 05 12:53:43 2024,140,-22.061,-22.061,8.195,8.195,3.069,16.854,9.209,4.584,15.245,10.630,-3.004,16.214,8.996,15.918,4.067,9.584
Thu Dec 05 12:53:43 2024,145,-22.041,-22.041,8.167,8.167,3.088,16.840,9.140,4.581,15.264,10.651,-2.996,16.245,9.053,15.949,4.039,9.685
Thu Dec 05 12:53:43 2024,150,-22.031,-22.031,8.160,8.160,3.098,16.840,9.082,4.592,15.269,10.696,-2.994,16.256,9.110,15.967,4.022,9.754
Thu Dec 05 12:53:43 2024,155,-22.047,-22.047,8.199,8.199,3.087,16.864,9.086,4.623,15.248,10.757,-3.005,16.225,9.128,15.948,4.036,9.718
Thu Dec 05 12:53:43 2024,160,-22.063,-22.063,8.202,8.202,3.063,16.893,9.111,4.612,15.265,10.805,-3.033,16.206,9.161,15.926,4.057,9.709
Thu Dec 05 12:53:43 2024,165,-22.078,-22.078,8.162,8.162,3.024,16.928,9.163,4.552,15.330,10.832,-3.081,16.205,9.208,15.902,4.082,9.738
Thu Dec 05 12:53:43 2024,170,-22.088,-22.088,8.102,8.102,2.985,16.960,9.219,4.478,15.406,10.850,-3.130,16.208,9.256,15.876,4.108,9.776
Thu Dec 05 12:53:43 2024,175,-22.054,-22.054,8.064,8.064,3.008,16.944,9.189,4.519,15.378,10.875,-3.105,16.187,9.217,15.851,4.131,9.718
Thu Dec 05 12:53:43 2024,180,-22.014,-22.014,8.033,8.033,3.042,16.921,9.146,4.578,15.331,10.899,-3.069,16.161,9.165,15.827,4.152,9.645
Thu Dec 05 12:53:43 2024,185,-22.018,-22.018,8.079,8.079,3.050,16.907,9.136,4.600,15.318,10.905,-3.066,16.175,9.151,15.852,4.133,9.686
Thu Dec 05 12:53:43 2024,190,-22.047,-22.047,8.176,8.176,3.043,16.899,9.144,4.602,15.324,10.899,-3.086,16.214,9.159,15.910,4.085,9.799
Thu Dec 05 12:53:43 2024,195,-22.054,-22.054,8.209,8.209,3.039,16.894,9.156,4.610,15.321,10.902,-3.099,16.226,9.154,15.926,4.071,9.802
Thu Dec 05 12:53:43 2024,200,-22.039,-22.039,8.190,8.190,3.035,16.895,9.174,4.626,15.310,10.914,-3.108,16.217,9.133,15.905,4.088,9.699
Thu Dec 05 12:53:43 2024,205,-22.011,-22.011,8.159,8.159,3.034,16.894,9.172,4.639,15.298,10.909,-3.127,16.194,9.109,15.899,4.093,9.654
Thu Dec 05 12:53:43 2024,210,-21.957,-21.957,8.100,8.100,3.039,16.889,9.138,4.649,15.282,10.877,-3.161,16.143,9.075,15.914,4.078,9.697
Thu Dec 05 12:53:43 2024,215,-21.908,-21.908,8.046,8.046,3.043,16.886,9.103,4.657,15.266,10.844,-3.191,16.094,9.044,15.934,4.061,9.749
Thu Dec 05 12:53:43 2024,220,-21.924,-21.924,8.034,8.034,3.039,16.898,9.106,4.661,15.248,10.839,-3.165,16.060,9.052,15.959,4.035,9.744
Thu Dec 05 12:53:43 2024,225,-21.950,-21.950,8.032,8.032,3.032,16.912,9.113,4.666,15.231,10.838,-3.135,16.034,9.063,15.981,4.011,9.728
Thu Dec 05 12:53:43 2024,230,-21.984,-21.984,8.108,8.108,2.993,16.954,9.109,4.683,15.225,10.798,-3.152,16.080,9.028,15.984,4.006,9.635
Thu Dec 05 12:53:43 2024,235,-22.022,-22.022,8.213,8.213,2.941,17.009,9.100,4.706,15.220,10.743,-3.185,16.148,8.978,15.981,4.007,9.514
Thu Dec 05 12:53:43 2024,240,-22.047,-22.047,8.235,8.235,2.924,17.026,9.108,4.718,15.212,10.732,-3.196,16.163,8.973,16.001,3.988,9.520
Thu Dec 05 12:53:43 2024,245,-22.060,-22.060,8.185,8.185,2.937,17.009,9.131,4.721,15.200,10.759,-3.189,16.134,9.011,16.041,3.949,9.642
Thu Dec 05 12:53:43 2024,250,-22.082,-22.082,8.173,8.173,2.927,17.018,9.133,4.717,15.198,10.795,-3.184,16.113,9.050,16.056,3.936,9.738
Thu Dec 05 12:53:43 2024,255,-22.118,-22.118,8.240,8.240,2.874,17.080,9.093,4.700,15.216,10.845,-3.188,16.114,9.085,16.014,3.978,9.764
Thu Dec 05 12:53:43 2024,260,-22.154,-22.154,8.302,8.302,2.824,17.138,9.060,4.685,15.232,10.886,-3.196,16.110,9.110,15.981,4.012,9.779
Thu Dec 05 12:53:43 2024,265,-22.199,-22.199,8.331,8.331,2.795,17.175,9.096,4.692,15.222,10.853,-3.248,16.070,9.043,16.009,3.981,9.715
Thu Dec 05 12:53:43 2024,270,-22.242,-22.242,8.350,8.350,2.773,17.203,9.141,4.702,15.208,10.808,-3.303,16.026,8.968,16.046,3.940,9.642
Thu Dec 05 12:53:43 2024,275,-22.288,-22.288,8.336,8.336,2.810,17.164,9.203,4.726,15.171,10.810,-3.241,16.059,8.966,16.119,3.865,9.634
Thu Dec 05 12:53:43 2024,280,-22.334,-22.334,8.315,8.315,2.858,17.112,9.267,4.752,15.131,10.819,-3.160,16.102,8.977,16.195,3.785,9.638
Thu Dec 05 12:53:43 2024,285,-22.388,-22.388,8.317,8.317,2.843,17.114,9.322,4.770,15.114,10.796,-3.124,16.144,8.941,16.242,3.738,9.593
Thu Dec 05 12:53:43 2024,290,-22.446,-22.446,8.341,8.341,2.770,17.162,9.364,4.778,15.121,10.742,-3.132,16.182,8.863,16.255,3.726,9.504
Thu Dec 05 12:53:43 2024,295,-22.498,-22.498,8.354,8.354,2.700,17.223,9.378,4.797,15.110,10.726,-3.158,16.148,8.801,16.264,3.718,9.449
Thu Dec 05 12:53:43 2024,300,-22.553,-22.553,8.351,8.351,2.613,17.333,9.341,4.839,15.064,10.780,-3.227,15.963,8.756,16.263,3.718,9.447
Thu Dec 05 12:53:43 2024,305,-22.610,-22.610,8.346,8.346,2.517,17.447,9.314,4.880,15.024,10.840,-3.293,15.796,8.718,16.258,3.722,9.448
Thu Dec 05 12:53:43 2024,310,-22.652,-22.652,8.338,8.338,2.425,17.536,9.390,4.885,15.051,10.910,-3.274,15.909,8.766,16.230,3.755,9.475
Thu Dec 05 12:53:43 2024,315,-22.694,-22.694,8.329,8.329,2.331,17.626,9.467,4.890,15.072,10.980,-3.255,16.020,8.815,16.202,3.788,9.502
Thu Dec 05 12:53:43 2024,320,-22.697,-22.697,8.369,8.369,2.364,17.602,9.434,4.952,15.002,10.997,-3.238,16.000,8.834,16.184,3.806,9.522
Thu Dec 05 12:53:43 2024,325,-22.692,-22.692,8.413,8.413,2.414,17.559,9.386,5.015,14.923,11.001,-3.225,15.956,8.845,16.171,3.820,9.539
Thu Dec 05 12:53:43 2024,330,-22.662,-22.662,8.437,8.437,2.436,17.524,9.409,5.063,14.857,10.940,-3.255,15.943,8.856,16.126,3.867,9.607
Thu Dec 05 12:53:43 2024,335,-22.622,-22.622,8.447,8.447,2.438,17.493,9.470,5.097,14.806,10.848,-3.306,15.946,8.867,16.068,3.927,9.697
Thu Dec 05 12:53:43 2024,340,-22.595,-22.595,8.434,8.434,2.433,17.481,9.493,5.120,14.781,10.829,-3.329,15.938,8.861,16.030,3.965,9.718
Thu Dec 05 12:53:43 2024,345,-22.591,-22.591,8.389,8.389,2.419,17.507,9.453,5.123,14.797,10.919,-3.305,15.914,8.833,16.030,3.965,9.635
Thu Dec 05 12:53:43 2024,350,-22.582,-22.582,8.357,8.357,2.421,17.513,9.439,5.139,14.800,11.020,-3.276,15.900,8.817,16.050,3.945,9.580
Thu Dec 05 12:53:43 2024,355,-22.562,-22.562,8.364,8.364,2.466,17.467,9.495,5.189,14.766,11.130,-3.238,15.916,8.832,16.118,3.876,9.606
Thu Dec 05 12:53:43 2024,360,-22.541,-22.541,8.373,8.373,2.514,17.420,9.553,5.240,14.729,11.244,-3.200,15.932,8.847,16.186,3.805,9.633
Thu Dec 05 12:53:43 2024,365,-22.587,-22.587,8.357,8.357,2.442,17.478,9.547,5.212,14.768,11.324,-3.169,16.008,8.907,16.254,3.740,9.678
Thu Dec 05 12:53:43 2024,370,-22.636,-22.636,8.340,8.340,2.367,22.460,9.536,5.180,14.809,11.392,-3.141,16.081,8.966,16.317,3.681,9.721
Thu Dec 05 12:53:43 2024,375,-22.624,-22.624,8.328,8.328,2.356,22.442,9.528,5.169,14.816,11.370,-3.125,16.118,8.975,16.312,3.686,9.700
Thu Dec 05 12:53:43 2024,380,-22.588,-22.588,8.316,8.316,2.372,17.557,9.522,5.168,14.808,11.311,-3.113,16.140,8.964,16.280,3.718,9.652
Thu Dec 05 12:53:43 2024,385,-22.575,-22.575,8.325,8.325,2.388,17.534,9.524,5.188,14.782,11.250,-3.080,16.196,8.970,16.236,3.763,9.620
Thu Dec 05 12:53:43 2024,390,-22.588,-22.588,8.352,8.352,2.399,22.509,9.532,5.224,14.747,11.202,-3.034,16.272,8.990,16.187,3.811,9.611
Thu Dec 05 12:53:43 2024,395,-22.606,-22.606,8.366,8.366,2.414,22.546,9.546,5.268,14.703,11.168,-3.016,16.288,8.989,16.136,3.861,9.594
Thu Dec 05 12:53:43 2024,400,-22.623,-22.623,8.334,8.334,2.421,22.528,9.566,5.295,14.672,11.201,-3.084,16.138,8.932,16.123,3.874,9.575
Thu Dec 05 12:53:43 2024,405,-22.644,-22.644,8.298,8.298,2.431,17.489,9.592,5.330,14.633,11.241,-3.165,15.955,8.864,16.109,3.887,9.549
Thu Dec 05 12:53:43 2024,410,-22.638,-22.638,8.382,8.382,2.452,22.550,9.620,5.357,14.613,11.238,-3.104,16.089,8.914,16.166,3.828,9.520
Thu Dec 05 12:53:43 2024,415,-22.631,-22.631,8.467,8.467,2.473,22.592,9.648,5.384,14.593,11.235,-3.042,16.224,8.964,16.224,3.768,9.491
Thu Dec 05 12:53:43 2024,420,-22.602,-22.602,8.460,8.460,2.463,22.574,9.625,5.407,14.573,11.255,-3.056,16.173,8.925,16.187,3.804,9.449
Thu Dec 05 12:53:43 2024,425,-22.563,-22.563,8.431,8.431,2.444,22.539,9.585,5.433,14.550,11.283,-3.090,16.070,8.859,16.122,3.868,9.397
Thu Dec 05 12:53:43 2024,430,-22.550,-22.550,8.449,8.449,2.469,22.566,9.579,5.434,14.551,11.304,-3.088,16.059,8.852,16.119,3.871,9.365
Thu Dec 05 12:53:43 2024,435,-22.544,-22.544,8.480,8.480,2.505,22.610,9.583,5.428,14.559,11.322,-3.076,16.076,8.863,16.134,3.854,9.340
Thu Dec 05 12:53:43 2024,440,-22.539,-22.539,8.512,8.512,2.541,22.654,9.587,5.422,14.567,11.339,-3.064,16.093,8.874,16.150,3.837,9.315
Thu Dec 05 12:53:43 2024,445,-22.533,-22.533,8.543,8.543,2.576,22.698,9.591,5.416,14.575,11.356,-3.052,16.111,8.884,16.166,3.820,9.290
Thu Dec 05 12:53:43 2024,450,-22.519,-22.519,8.564,8.564,2.622,22.741,9.583,5.429,14.563,11.368,-3.042,16.096,8.878,16.178,3.805,9.230
Thu Dec 05 12:53:43 2024,455,-22.532,-22.532,8.571,8.571,2.574,22.695,9.610,5.360,14.630,11.306,-3.082,16.114,8.846,16.182,3.802,9.232
Thu Dec 05 12:53:43 2024,460,-22.554,-22.554,8.578,8.578,2.503,22.630,9.648,5.267,14.719,11.229,-3.132,16.150,8.816,16.186,3.802,9.259
Thu Dec 05 12:53:43 2024,465,-22.569,-22.569,8.585,8.585,2.456,22.586,9.674,5.204,14.780,11.175,-3.169,16.168,8.792,16.189,3.800,9.270
Thu Dec 05 12:53:43 2024,470,-22.482,-22.482,8.483,8.483,2.586,17.346,9.628,5.235,14.732,11.261,-3.099,16.064,8.925,16.288,3.705,9.511
Thu Dec 05 12:53:43 2024,475,-22.444,-22.444,8.434,8.434,2.639,17.318,9.614,5.225,14.730,11.287,-3.074,16.013,8.985,16.339,3.656,9.634
Thu Dec 05 12:53:43 2024,480,-22.501,-22.501,8.494,8.494,2.643,17.325,9.630,5.128,14.818,11.272,-3.062,16.021,8.953,16.290,3.698,9.452
Thu Dec 05 12:53:43 2024,485,-22.542,-22.542,8.538,8.538,2.646,17.328,9.642,5.056,14.882,11.260,-3.053,16.028,8.930,16.253,3.727,9.319
Thu Dec 05 12:53:43 2024,490,-22.551,-22.551,8.464,8.464,2.656,17.317,9.612,5.010,14.935,11.190,-3.036,16.068,8.872,16.257,3.722,9.272
Thu Dec 05 12:53:43 2024,495,-22.543,-22.543,8.370,8.370,2.666,17.302,9.564,4.977,14.978,11.122,-3.036,16.090,8.817,16.281,3.702,9.285
Thu Dec 05 12:53:43 2024,500,-22.533,-22.533,8.351,8.351,2.670,17.296,9.488,4.910,15.050,11.102,-3.101,16.011,8.780,16.310,3.678,9.356
Thu Dec 05 12:53:43 2024,505,-22.523,-22.523,8.331,8.331,2.672,17.290,9.414,4.845,15.122,11.081,-3.165,15.934,8.745,16.338,3.655,9.424
Thu Dec 05 12:53:43 2024,510,-22.482,-22.482,8.321,8.321,2.728,17.244,9.392,4.864,15.082,11.033,-3.132,15.948,8.761,16.304,3.686,9.355
Thu Dec 05 12:53:43 2024,515,-22.442,-22.442,8.314,8.314,2.784,17.195,9.380,4.893,15.026,10.987,-3.090,15.973,8.782,16.264,3.720,9.276
Thu Dec 05 12:53:43 2024,520,-22.433,-22.433,8.383,8.383,2.829,17.152,9.408,4.835,15.073,10.960,-3.083,16.027,8.816,16.218,3.761,9.217
Thu Dec 05 12:53:43 2024,525,-22.444,-22.444,8.502,8.502,2.865,17.115,9.463,4.723,15.188,10.946,-3.099,16.096,8.856,16.169,3.807,9.171
Thu Dec 05 12:53:43 2024,530,-22.453,-22.453,8.599,8.599,2.894,17.083,9.508,4.632,15.282,10.934,-3.111,16.151,8.889,16.127,3.844,9.134
Thu Dec 05 12:53:43 2024,535,-22.441,-22.441,8.729,8.729,2.907,17.077,9.470,4.587,15.280,10.856,-3.169,15.961,8.795,16.084,3.886,9.184
Thu Dec 05 12:53:43 2024,540,-22.432,-22.432,8.855,8.855,2.938,17.049,9.441,4.558,15.263,10.786,-3.205,15.817,8.721,16.058,3.911,9.235
Thu Dec 05 12:53:43 2024,545,-22.435,-22.435,8.904,8.904,3.064,16.908,9.455,4.655,15.181,10.766,-3.097,15.984,8.762,16.158,3.818,9.294
Thu Dec 05 12:53:43 2024,550,-22.439,-22.439,8.959,8.959,3.203,16.747,9.469,4.762,15.089,10.745,-2.977,16.167,8.808,16.268,3.715,9.359
Thu Dec 05 12:53:43 2024,555,-22.454,-22.454,9.184,9.184,3.160,16.807,9.496,4.706,15.114,10.746,-3.028,16.127,8.862,16.149,3.828,9.295
Thu Dec 05 12:53:43 2024,560,-22.467,-22.467,9.377,9.377,3.101,16.882,9.518,4.640,15.147,10.750,-3.091,16.064,8.904,16.025,3.943,9.227
Thu Dec 05 12:53:43 2024,565,-22.485,-22.485,9.586,9.586,3.082,16.899,9.518,4.585,15.260,10.871,-3.120,16.107,8.993,16.021,3.956,9.350
Thu Dec 05 12:53:43 2024,570,-22.501,-22.501,9.752,9.752,3.086,16.889,9.509,4.547,15.366,11.013,-3.128,16.181,9.082,16.068,3.921,9.525
Thu Dec 05 12:53:43 2024,575,-22.546,-22.546,9.938,9.938,3.098,16.874,9.520,4.526,15.398,11.043,-3.171,16.165,9.110,16.085,3.910,9.657
Thu Dec 05 12:53:43 2024,580,-22.607,-22.607,10.109,10.109,3.114,16.856,9.545,4.522,15.377,10.982,-3.234,16.084,9.089,16.076,3.920,9.733
Thu Dec 05 12:53:43 2024,585,-22.666,-22.666,10.298,10.298,3.134,16.834,9.583,4.532,15.341,10.937,-3.267,16.034,9.082,16.073,3.924,9.798
Thu Dec 05 12:53:43 2024,590,-22.684,-22.684,10.420,10.420,3.150,16.812,9.634,4.579,15.294,10.970,-3.190,16.106,9.118,16.088,3.907,9.786
Thu Dec 05 12:53:43 2024,595,-22.706,-22.706,10.559,10.559,3.161,16.794,9.675,4.620,15.257,11.004,-3.121,16.186,9.169,16.098,3.895,9.791
Thu Dec 05 12:53:43 2024,600,-22.739,-22.739,10.720,10.720,3.137,16.815,9.651,4.612,15.286,11.028,-3.125,16.265,9.272,16.074,3.922,9.876
Thu Dec 05 12:53:43 2024,605,-22.778,-22.778,10.906,10.906,3.109,16.840,9.624,4.601,15.319,11.055,-3.131,16.349,9.393,16.047,3.953,9.976
Thu Dec 05 12:53:43 2024,610,-22.804,-22.804,11.096,11.096,3.097,16.868,9.556,4.556,15.368,11.016,-3.193,16.233,9.319,16.006,3.993,9.933
Thu Dec 05 12:53:43 2024,615,-22.822,-22.822,11.244,11.244,3.092,16.887,9.494,4.513,15.410,10.969,-3.256,16.086,9.211,15.969,4.026,9.863
Thu Dec 05 12:53:43 2024,620,-22.786,-22.786,11.287,11.287,3.106,16.879,9.475,4.492,15.420,10.937,-3.305,15.994,9.171,15.955,4.041,9.888
Thu Dec 05 12:53:43 2024,625,-22.724,-22.724,11.247,11.247,3.129,16.857,9.491,4.494,15.404,10.926,-3.330,15.968,9.190,15.959,4.040,9.970
Thu Dec 05 12:53:43 2024,630,-22.686,-22.686,11.284,11.284,3.176,16.809,9.530,4.509,15.377,10.926,-3.333,15.961,9.199,15.977,4.023,10.041
Thu Dec 05 12:53:43 2024,635,-22.719,-22.719,11.435,11.435,3.232,16.748,9.581,4.540,15.352,10.947,-3.295,15.994,9.186,16.006,3.992,10.039
Thu Dec 05 12:53:43 2024,640,-22.747,-22.747,11.569,11.569,3.290,16.685,9.635,4.580,15.316,10.978,-3.254,16.033,9.191,16.034,3.962,10.052
Thu Dec 05 12:53:43 2024,645,-22.745,-22.745,11.611,11.611,3.357,16.613,9.702,4.676,15.215,11.066,-3.195,16.101,9.301,16.059,3.936,10.152
Thu Dec 05 12:53:43 2024,650,-22.743,-22.743,11.649,11.649,3.415,16.549,9.760,4.760,15.125,11.143,-3.145,16.162,9.401,16.077,3.916,10.240
Thu Dec 05 12:53:43 2024,655,-22.728,-22.728,11.664,11.664,3.389,16.584,9.732,4.728,15.138,11.098,-3.175,16.150,9.410,16.010,3.982,10.192
Thu Dec 05 12:53:43 2024,660,-22.711,-22.711,11.676,11.676,3.343,16.642,9.682,4.669,15.173,11.024,-3.225,16.121,9.402,15.918,4.073,10.112
Thu Dec 05 12:53:43 2024,665,-22.738,-22.738,11.712,11.712,3.362,16.624,9.698,4.698,15.144,11.027,-3.220,16.120,9.408,15.937,4.052,10.136
Thu Dec 05 12:53:43 2024,670,-22.780,-22.780,11.758,11.758,3.407,16.580,9.741,4.761,15.093,11.063,-3.194,16.131,9.420,16.000,3.989,10.202
Thu Dec 05 12:53:43 2024,675,-22.812,-22.812,11.784,11.784,3.414,16.574,9.756,4.776,15.084,11.098,-3.186,16.123,9.448,16.022,3.968,10.284
Thu Dec 05 12:53:43 2024,680,-22.824,-22.824,11.776,11.776,3.362,16.631,9.726,4.713,15.144,11.132,-3.208,16.086,9.503,15.978,4.016,10.394
Thu Dec 05 12:53:43 2024,685,-22.833,-22.833,11.755,11.755,3.321,16.675,9.702,4.671,15.187,11.159,-3.224,16.054,9.537,15.946,4.050,10.471
Thu Dec 05 12:53:43 2024,690,-22.818,-22.818,11.599,11.599,3.302,16.694,9.700,4.731,15.142,11.163,-3.225,16.013,9.445,15.964,4.033,10.394
Thu Dec 05 12:53:43 2024,695,-22.806,-22.806,11.472,11.472,3.286,16.710,9.698,4.780,15.106,11.165,-3.224,15.981,9.369,15.979,4.017,10.326
Thu Dec 05 12:53:43 2024,700,-22.852,-22.852,11.525,11.525,3.250,16.746,9.681,4.753,15.141,11.142,-3.186,16.069,9.377,16.004,3.992,10.254
Thu Dec 05 12:53:43 2024,705,-22.899,-22.899,11.593,11.593,3.218,16.778,9.665,4.719,15.179,11.121,-3.150,16.158,9.397,16.025,3.970,10.193
Thu Dec 05 12:53:43 2024,710,-22.903,-22.903,11.595,11.595,3.235,16.756,9.701,4.748,15.160,11.115,-3.140,16.190,9.392,16.039,3.957,10.198
Thu Dec 05 12:53:43 2024,715,-22.890,-22.890,11.568,11.568,3.276,16.708,9.763,4.807,15.113,11.115,-3.140,16.203,9.377,16.051,3.947,10.230
Thu Dec 05 12:53:43 2024,720,-22.853,-22.853,11.506,11.506,3.270,16.714,9.736,4.802,15.115,11.085,-3.157,16.196,9.360,16.041,3.958,10.243
Thu Dec 05 12:53:43 2024,725,-22.797,-22.797,11.419,11.419,3.229,16.763,9.641,4.747,15.155,11.031,-3.187,16.171,9.344,16.013,3.987,10.241
Thu Dec 05 12:53:43 2024,730,-22.749,-22.749,11.361,11.361,3.193,16.803,9.579,4.703,15.186,10.996,-3.213,16.158,9.344,15.987,4.014,10.264
Thu Dec 05 12:53:43 2024,735,-22.763,-22.763,11.438,11.438,3.202,16.792,9.670,4.725,15.170,11.046,-3.210,16.193,9.397,15.985,4.016,10.349
Thu Dec 05 12:53:43 2024,740,-22.777,-22.777,11.516,11.516,3.212,16.779,9.763,4.747,15.153,11.097,-3.206,16.227,9.451,15.984,4.018,10.436
Thu Dec 05 12:53:43 2024,745,-22.791,-22.791,11.473,11.473,3.242,16.744,9.778,4.784,15.113,11.078,-3.175,16.218,9.385,16.058,3.943,10.353
Thu Dec 05 12:53:43 2024,750,-22.804,-22.804,11.435,11.435,3.268,16.712,9.791,4.816,15.078,11.062,-3.149,16.209,9.327,16.123,3.878,10.281
Thu Dec 05 12:53:43 2024,755,-22.822,-22.822,11.434,11.434,3.236,16.744,9.776,4.765,15.126,10.999,-3.158,16.204,9.275,16.089,3.911,10.222
Thu Dec 05 12:53:43 2024,760,-22.835,-22.835,11.445,11.445,3.195,16.786,9.757,4.704,15.185,10.942,-3.175,16.201,9.241,16.034,3.964,10.185
Thu Dec 05 12:53:43 2024,765,-22.843,-22.843,11.450,11.450,3.180,16.804,9.741,4.715,15.181,10.947,-3.186,16.175,9.208,16.035,3.963,10.157
Thu Dec 05 12:53:43 2024,770,-22.843,-22.843,11.446,11.446,3.200,16.787,9.731,4.814,15.099,11.028,-3.187,16.123,9.183,16.105,3.893,10.145
Thu Dec 05 12:53:43 2024,775,-22.851,-22.851,11.423,11.423,3.195,16.792,9.736,4.851,15.069,11.044,-3.191,16.098,9.152,16.144,3.853,10.126
Thu Dec 05 12:53:43 2024,780,-22.877,-22.877,11.349,11.349,3.139,16.846,9.772,4.786,15.128,10.937,-3.202,16.117,9.090,16.145,3.852,10.083
Thu Dec 05 12:53:43 2024,785,-22.897,-22.897,11.290,11.290,3.091,16.891,9.795,4.735,15.176,10.850,-3.211,16.130,9.038,16.142,3.855,10.047
Thu Dec 05 12:53:43 2024,790,-22.885,-22.885,11.315,11.315,3.044,16.944,9.709,4.738,15.178,10.832,-3.226,16.103,8.997,16.083,3.916,10.019
Thu Dec 05 12:53:43 2024,795,-22.874,-22.874,11.336,11.336,3.004,16.989,9.634,4.740,15.181,10.817,-3.238,16.079,8.960,16.031,3.969,9.994
Thu Dec 05 12:53:43 2024,800,-22.882,-22.882,11.301,11.301,3.050,16.944,9.626,4.772,15.140,10.787,-3.217,16.073,8.940,16.038,3.961,9.930
Thu Dec 05 12:53:43 2024,805,-22.891,-22.891,11.261,11.261,3.105,16.888,9.636,4.804,15.099,10.761,-3.193,16.071,8.929,16.056,3.940,9.870
Thu Dec 05 12:53:43 2024,810,-22.895,-22.895,11.265,11.265,3.110,16.883,9.679,4.833,15.071,10.777,-3.168,16.092,8.923,16.096,3.900,9.838
Thu Dec 05 12:53:43 2024,815,-22.894,-22.894,11.294,11.294,3.084,16.908,9.733,4.855,15.058,10.815,-3.146,16.124,8.922,16.141,3.856,9.830
Thu Dec 05 12:53:43 2024,820,-22.894,-22.894,11.306,11.306,3.058,16.932,9.738,4.850,15.073,10.820,-3.141,16.149,8.907,16.134,3.862,9.795
Thu Dec 05 12:53:43 2024,825,-22.894,-22.894,11.291,11.291,3.037,16.949,9.668,4.801,15.130,10.774,-3.160,16.159,8.874,16.050,3.946,9.731
Thu Dec 05 12:53:43 2024,830,-22.894,-22.894,11.274,11.274,3.027,16.952,9.612,4.765,15.173,10.730,-3.168,16.171,8.838,15.981,4.015,9.670
Thu Dec 05 12:53:43 2024,835,-22.888,-22.888,11.275,11.275,3.082,16.894,9.690,4.828,15.097,10.753,-3.115,16.179,8.837,16.067,3.928,9.705
Thu Dec 05 12:53:43 2024,840,-22.881,-22.881,11.274,11.274,3.144,16.828,9.780,4.900,15.009,10.779,-3.054,16.187,8.836,16.166,3.830,9.742
Thu Dec 05 12:53:43 2024,845,-22.881,-22.881,11.243,11.243,3.104,16.876,9.764,4.886,15.022,10.789,-3.055,16.188,8.859,16.116,3.878,9.675
Thu Dec 05 12:53:43 2024,850,-22.881,-22.881,11.211,11.211,3.055,16.932,9.735,4.861,15.047,10.796,-3.065,16.189,8.882,16.051,3.940,9.602
Thu Dec 05 12:53:43 2024,855,-22.916,-22.916,11.264,11.264,3.028,16.955,9.715,4.834,15.087,10.784,-3.101,16.164,8.857,16.047,3.947,9.638
Thu Dec 05 12:53:43 2024,860,-22.959,-22.959,11.341,11.341,3.014,16.960,9.702,4.812,15.123,10.767,-3.139,16.133,8.818,16.067,3.929,9.709
Thu Dec 05 12:53:43 2024,865,-22.973,-22.973,11.376,11.376,3.041,16.929,9.709,4.822,15.114,10.773,-3.140,16.122,8.813,16.101,3.897,9.764
Thu Dec 05 12:53:43 2024,870,-22.950,-22.950,11.357,11.357,3.103,16.872,9.735,4.860,15.061,10.801,-3.099,16.136,8.847,16.135,3.863,9.779
Thu Dec 05 12:53:43 2024,875,-22.942,-22.942,11.370,11.370,3.115,16.860,9.735,4.853,15.063,10.796,-3.098,16.140,8.853,16.128,3.869,9.782
Thu Dec 05 12:53:43 2024,880,-22.935,-22.935,11.382,11.382,3.127,16.848,9.735,4.845,15.066,10.791,-3.097,16.144,8.860,16.121,3.876,9.784
Thu Dec 05 12:53:43 2024,885,-22.928,-22.928,11.394,11.394,3.139,16.837,9.736,4.837,15.069,10.785,-3.096,16.147,8.866,16.115,3.882,9.786
Thu Dec 05 12:53:43 2024,890,-22.920,-22.920,11.406,11.406,3.151,16.825,9.736,4.830,15.071,10.780,-3.096,16.151,8.872,16.108,3.888,9.788
Thu Dec 05 12:53:43 2024,895,-22.913,-22.913,11.418,11.418,3.163,16.813,9.736,4.822,15.074,10.775,-3.095,16.155,8.878,16.101,3.894,9.790
Thu Dec 05 12:53:43 2024,900,-22.906,-22.906,11.431,11.431,3.175,16.802,9.736,4.814,15.077,10.770,-3.094,16.159,8.884,16.095,3.900,9.792
Thu Dec 05 12:53:43 2024,905,-22.899,-22.899,11.443,11.443,3.187,16.790,9.737,4.806,15.080,10.764,-3.093,16.163,8.890,16.088,3.906,9.794
Thu Dec 05 12:53:43 2024,910,-22.891,-22.891,11.455,11.455,3.199,16.778,9.737,4.799,15.082,10.759,-3.092,16.167,8.897,16.081,3.913,9.796
Thu Dec 05 12:53:43 2024,915,-22.884,-22.884,11.467,11.467,3.211,16.766,9.737,4.791,15.085,10.754,-3.092,16.171,8.903,16.074,3.919,9.799
Thu Dec 05 12:53:43 2024,920,-22.877,-22.877,11.480,11.480,3.222,16.755,9.737,4.783,15.088,10.749,-3.091,16.175,8.909,16.068,3.925,9.801
Thu Dec 05 12:53:43 2024,925,-22.869,-22.869,11.492,11.492,3.234,16.743,9.737,4.776,15.090,10.744,-3.090,16.179,8.915,16.061,3.931,9.803
Thu Dec 05 12:53:43 2024,930,-22.862,-22.862,11.504,11.504,3.246,16.731,9.738,4.768,15.093,10.738,-3.089,16.183,8.921,16.054,3.937,9.805
Thu Dec 05 12:53:43 2024,935,-22.855,-22.855,11.516,11.516,3.258,16.720,9.738,4.760,15.096,10.733,-3.088,16.186,8.928,16.048,3.944,9.807
Thu Dec 05 12:53:43 2024,940,-22.880,-22.880,11.550,11.550,3.254,16.730,9.718,4.760,15.097,10.726,-3.082,16.167,8.929,16.030,3.957,9.768
Thu Dec 05 12:53:43 2024,945,-22.891,-22.891,11.555,11.555,3.194,16.788,9.790,4.761,15.104,10.792,-3.074,16.232,9.016,16.044,3.945,9.826
Thu Dec 05 12:53:43 2024,950,-22.895,-22.895,11.550,11.550,3.120,16.857,9.893,4.763,15.114,10.880,-3.065,16.322,9.132,16.068,3.924,9.915
Thu Dec 05 12:53:43 2024,955,-22.937,-22.937,11.586,11.586,3.141,16.838,9.892,4.804,15.072,10.869,-3.068,16.297,9.094,16.068,3.926,9.924
Thu Dec 05 12:53:43 2024,960,-22.987,-22.987,11.634,11.634,3.211,16.772,9.830,4.858,15.013,10.805,-3.078,16.212,8.978,16.054,3.939,9.884
Thu Dec 05 12:53:43 2024,965,-23.050,-23.050,11.673,11.673,3.245,16.741,9.809,4.894,14.979,10.789,-3.085,16.162,8.908,16.060,3.934,9.864
Thu Dec 05 12:53:43 2024,970,-23.098,-23.098,11.658,11.658,3.151,16.832,9.916,4.849,15.041,10.919,-3.082,16.254,9.023,16.114,3.882,9.917
Thu Dec 05 12:53:43 2024,975,-23.141,-23.141,11.645,11.645,3.067,16.915,10.006,4.811,15.093,11.030,-3.083,16.323,9.119,16.162,3.834,9.962
Thu Dec 05 12:53:43 2024,980,-23.141,-23.141,11.665,11.665,3.068,16.921,9.933,4.839,15.053,10.948,-3.120,16.209,9.035,16.161,3.833,9.916
Thu Dec 05 12:53:43 2024,985,-23.141,-23.141,11.683,11.683,3.069,16.925,9.865,4.865,15.016,10.872,-3.154,16.101,8.957,16.161,3.831,9.874
Thu Dec 05 12:53:43 2024,990,-23.215,-23.215,11.763,11.763,3.049,16.938,9.886,4.888,15.026,10.882,-3.135,16.190,8.981,16.200,3.798,9.963
Thu Dec 05 12:53:43 2024,995,-23.291,-23.291,11.842,11.842,3.028,16.947,9.916,4.908,15.035,10.902,-3.111,16.291,9.016,16.240,3.761,10.060
Thu Dec 05 12:53:44 2024,0,-23.342,-23.342,11.894,11.894,3.022,16.945,9.942,4.954,15.001,10.930,-3.106,16.316,9.027,16.279,3.723,10.080
Thu Dec 05 12:53:44 2024,5,-23.352,-23.352,11.905,11.905,3.027,16.938,9.954,4.995,14.959,10.949,-3.114,16.284,9.018,16.298,3.703,10.044
Thu Dec 05 12:53:44 2024,10,-23.358,-23.358,11.895,11.895,3.022,16.940,9.964,5.013,14.937,10.923,-3.122,16.273,8.995,16.307,3.694,9.990
Thu Dec 05 12:53:44 2024,15,-23.351,-23.351,11.845,11.845,2.997,16.959,9.967,4.977,14.962,10.812,-3.126,16.309,8.953,16.288,3.712,9.924
Thu Dec 05 12:53:44 2024,20,-23.344,-23.344,11.821,11.821,2.995,16.956,9.945,4.958,14.976,10.735,-3.127,16.339,8.924,16.278,3.722,9.880
Thu Dec 05 12:53:44 2024,25,-23.336,-23.336,11.870,11.870,3.056,16.898,9.854,4.985,14.958,10.744,-3.121,16.360,8.934,16.289,3.712,9.895
Thu Dec 05 12:53:44 2024,30,-23.329,-23.329,11.918,11.918,3.116,16.840,9.764,5.011,14.939,10.753,-3.114,16.380,8.944,16.300,3.702,9.911
Thu Dec 05 12:53:44 2024,35,-23.347,-23.347,11.911,11.911,3.081,16.887,9.826,5.007,14.940,10.835,-3.098,16.345,8.955,16.273,3.728,9.924
Thu Dec 05 12:53:44 2024,40,-23.364,-23.364,11.900,11.900,3.044,16.932,9.890,5.001,14.942,10.907,-3.085,16.309,8.964,16.248,3.752,9.934
Thu Dec 05 12:53:44 2024,45,-23.361,-23.361,11.892,11.892,3.028,16.949,9.924,4.985,14.951,10.890,-3.090,16.293,8.985,16.212,3.788,9.958
Thu Dec 05 12:53:44 2024,50,-23.352,-23.352,11.887,11.887,3.025,16.950,9.937,4.969,14.959,10.840,-3.101,16.289,9.004,16.181,3.819,9.982
Thu Dec 05 12:53:44 2024,55,-23.342,-23.342,11.861,11.861,3.035,16.939,9.924,4.966,14.960,10.823,-3.095,16.310,9.021,16.177,3.823,9.987
Thu Dec 05 12:53:44 2024,60,-23.334,-23.334,11.810,11.810,3.063,16.914,9.878,4.982,14.952,10.856,-3.063,16.360,9.030,16.212,3.788,9.965
Thu Dec 05 12:53:44 2024,65,-23.333,-23.333,11.764,11.764,3.084,16.894,9.842,5.009,14.934,10.891,-3.032,16.401,9.034,16.250,3.749,9.952
Thu Dec 05 12:53:44 2024,70,-23.362,-23.362,11.766,11.766,3.068,16.907,9.863,5.060,14.888,10.916,-3.020,16.379,9.019,16.279,3.721,9.980
Thu Dec 05 12:53:44 2024,75,-23.393,-23.393,11.767,11.767,3.050,16.920,9.887,5.116,14.839,10.943,-3.008,16.354,9.002,16.311,3.690,10.010
Thu Dec 05 12:53:44 2024,80,-23.354,-23.354,11.757,11.757,3.053,16.924,9.861,5.114,14.837,10.927,-3.003,16.388,9.027,16.278,3.722,9.985
Thu Dec 05 12:53:44 2024,85,-23.315,-23.315,11.746,11.746,3.056,16.927,9.834,5.113,14.835,10.911,-2.997,16.421,9.053,16.245,3.754,9.959
Thu Dec 05 12:53:44 2024,90,-23.295,-23.295,11.727,11.727,3.040,16.942,9.878,5.099,14.847,10.923,-3.006,16.403,9.062,16.253,3.747,9.994
Thu Dec 05 12:53:44 2024,95,-23.285,-23.285,11.701,11.701,3.012,16.965,9.966,5.079,14.867,10.953,-3.021,16.356,9.063,16.283,3.717,10.066
Thu Dec 05 12:53:44 2024,100,-23.306,-23.306,11.735,11.735,3.024,16.949,9.950,5.051,14.890,10.902,-3.025,16.334,9.001,16.286,3.713,9.978
Thu Dec 05 12:53:44 2024,105,-23.350,-23.350,11.814,11.814,3.066,16.906,9.858,5.015,14.915,10.791,-3.020,16.331,8.890,16.268,3.726,9.771
Thu Dec 05 12:53:44 2024,110,-23.386,-23.386,11.875,11.875,3.101,16.868,9.808,5.001,14.928,10.728,-3.005,16.352,8.815,16.263,3.725,9.619
Thu Dec 05 12:53:44 2024,115,-23.381,-23.381,11.858,11.858,3.098,16.867,9.889,5.045,14.904,10.813,-2.978,16.418,8.872,16.294,3.698,9.687
Thu Dec 05 12:53:44 2024,120,-23.378,-23.378,11.842,11.842,3.102,16.857,9.967,5.085,14.877,10.889,-2.953,16.470,8.920,16.324,3.670,9.747
Thu Dec 05 12:53:44 2024,125,-23.389,-23.389,11.837,11.837,3.162,16.788,10.003,5.082,14.862,10.867,-2.955,16.412,8.893,16.346,3.645,9.730
Thu Dec 05 12:53:44 2024,130,-23.398,-23.398,11.832,11.832,3.211,16.732,10.032,5.080,14.847,10.850,-2.957,16.364,8.871,16.364,3.625,9.716
Thu Dec 05 12:53:44 2024,135,-23.410,-23.410,11.814,11.814,3.176,16.778,10.000,5.056,14.855,10.838,-2.959,16.329,8.875,16.354,3.633,9.686
Thu Dec 05 12:53:44 2024,140,-23.421,-23.421,11.795,11.795,3.115,16.853,9.951,5.029,14.870,10.829,-2.960,16.306,8.887,16.336,3.651,9.657
Thu Dec 05 12:53:44 2024,145,-23.399,-23.399,11.762,11.762,3.076,16.899,9.921,5.027,14.875,10.829,-2.980,16.295,8.885,16.324,3.664,9.640
Thu Dec 05 12:53:44 2024,150,-23.360,-23.360,11.731,11.731,3.070,16.907,9.917,5.045,14.870,10.835,-3.007,16.297,8.872,16.321,3.668,9.639
Thu Dec 05 12:53:44 2024,155,-23.332,-23.332,11.702,11.702,3.068,16.910,9.917,5.072,14.853,10.846,-3.022,16.296,8.856,16.321,3.670,9.643
Thu Dec 05 12:53:44 2024,160,-23.356,-23.356,11.700,11.700,3.081,16.896,9.931,5.106,14.816,10.865,-2.988,16.288,8.840,16.331,3.662,9.658
Thu Dec 05 12:53:44 2024,165,-23.385,-23.385,11.705,11.705,3.086,16.888,9.950,5.138,14.784,10.884,-2.959,16.285,8.824,16.335,3.658,9.650
Thu Dec 05 12:53:44 2024,170,-23.419,-23.419,11.737,11.737,3.060,16.907,9.980,5.155,14.779,10.889,-2.962,16.304,8.816,16.318,3.671,9.558
Thu Dec 05 12:53:44 2024,175,-23.452,-23.452,11.772,11.772,3.030,16.929,10.010,5.168,14.779,10.893,-2.969,16.327,8.809,16.298,3.687,9.456
Thu Dec 05 12:53:44 2024,180,-23.425,-23.425,11.773,11.773,3.037,16.927,10.006,5.217,14.730,10.893,-2.960,16.321,8.797,16.347,3.640,9.488
Thu Dec 05 12:53:44 2024,185,-23.390,-23.390,11.765,11.765,3.052,16.918,9.996,5.264,14.681,10.892,-2.948,16.308,8.786,16.402,3.588,9.545
Thu Dec 05 12:53:44 2024,190,-23.401,-23.401,11.800,11.800,3.090,16.879,10.013,5.301,14.641,10.894,-2.944,16.310,8.783,16.431,3.559,9.574
Thu Dec 05 12:53:44 2024,195,-23.448,-23.448,11.872,11.872,3.150,16.810,10.054,5.334,14.606,10.900,-2.944,16.322,8.785,16.442,3.546,9.585
Thu Dec 05 12:53:44 2024,200,-23.494,-23.494,11.988,11.988,3.149,16.813,10.058,5.323,14.616,10.918,-2.960,16.306,8.795,16.435,3.552,9.603
Thu Dec 05 12:53:44 2024,205,-23.526,-23.526,12.120,12.120,3.091,16.883,10.023,5.271,14.667,10.942,-2.986,16.268,8.811,16.411,3.576,9.625
Thu Dec 05 12:53:44 2024,210,-23.569,-23.569,12.277,12.277,3.040,16.942,9.986,5.208,14.732,10.951,-3.013,16.240,8.821,16.394,3.594,9.654
Thu Dec 05 12:53:44 2024,215,-23.608,-23.608,12.377,12.377,3.057,16.920,9.979,5.159,14.782,10.904,-3.018,16.270,8.800,16.414,3.578,9.680
Thu Dec 05 12:53:44 2024,220,-23.646,-23.646,12.476,12.476,3.074,16.897,9.971,5.112,14.831,10.857,-3.022,16.298,8.781,16.433,3.560,9.705
Thu Dec 05 12:53:44 2024,225,-23.694,-23.694,12.558,12.558,3.075,16.894,10.054,5.117,14.832,10.916,-3.006,16.346,8.810,16.444,3.547,9.722
Thu Dec 05 12:53:44 2024,230,-23.745,-23.745,12.636,12.636,3.074,16.896,10.156,5.133,14.822,10.998,-2.984,16.398,8.850,16.453,3.536,9.736
Thu Dec 05 12:53:44 2024,235,-23.786,-23.786,12.702,12.702,3.049,16.914,10.133,5.144,14.816,10.981,-3.008,16.365,8.811,16.422,3.568,9.709
Thu Dec 05 12:53:44 2024,240,-23.818,-23.818,12.753,12.753,3.020,16.934,10.066,5.150,14.813,10.929,-3.046,16.305,8.747,16.380,3.612,9.670
Thu Dec 05 12:53:44 2024,245,-23.870,-23.870,12.839,12.839,3.012,16.943,10.085,5.187,14.778,10.947,-3.029,16.316,8.780,16.405,3.590,9.743
Thu Dec 05 12:53:44 2024,250,-23.927,-23.927,12.935,12.935,3.026,16.939,10.179,5.242,14.724,11.025,-2.966,16.393,8.894,16.484,3.513,9.903
Thu Dec 05 12:53:44 2024,255,-23.974,-23.974,13.032,13.032,3.037,16.935,10.256,5.273,14.693,11.085,-2.921,16.456,8.984,16.541,3.457,10.021
Thu Dec 05 12:53:44 2024,260,-23.975,-23.975,13.151,13.151,3.028,16.934,10.256,5.176,14.787,11.049,-2.971,16.462,8.953,16.490,3.505,9.917
Thu Dec 05 12:53:44 2024,265,-23.977,-23.977,13.253,13.253,3.023,16.931,10.255,5.101,14.860,11.017,-3.011,16.462,8.922,16.449,3.544,9.828
Thu Dec 05 12:53:44 2024,270,-23.977,-23.977,13.333,13.333,3.036,16.911,10.253,5.127,14.834,10.974,-3.014,16.433,8.848,16.445,3.549,9.749
Thu Dec 05 12:53:44 2024,275,-23.978,-23.978,13.412,13.412,3.050,16.890,10.251,5.153,14.808,10.933,-3.018,16.404,8.776,16.441,3.553,9.672
Thu Dec 05 12:53:44 2024,280,-23.981,-23.981,13.544,13.544,3.028,16.924,10.256,5.150,14.808,10.966,-3.021,16.388,8.809,16.491,3.507,9.803
Thu Dec 05 12:53:44 2024,285,-23.985,-23.985,13.688,13.688,2.993,16.975,10.264,5.135,14.819,11.028,-3.023,16.378,8.883,16.559,3.442,10.009
Thu Dec 05 12:53:44 2024,290,-23.988,-23.988,13.895,13.895,3.019,16.958,10.307,5.132,14.815,11.075,-3.015,16.389,8.959,16.571,3.430,10.113
Thu Dec 05 12:53:44 2024,295,-23.991,-23.991,14.143,14.143,3.088,16.895,10.374,5.136,14.801,11.110,-3.000,16.413,9.036,16.542,3.458,10.138
Thu Dec 05 12:53:44 2024,300,-24.019,-24.019,14.402,14.402,3.125,16.860,10.412,5.131,14.806,11.133,-2.996,16.421,9.063,16.510,3.489,10.162
Thu Dec 05 12:53:44 2024,305,-24.088,-24.088,14.675,14.675,3.107,16.877,10.402,5.111,14.845,11.133,-3.013,16.398,9.004,16.473,3.527,10.185
Thu Dec 05 12:53:44 2024,310,-24.164,-24.164,14.956,14.956,3.086,16.898,10.405,5.091,14.879,11.142,-3.030,16.376,8.957,16.442,3.559,10.208
Thu Dec 05 12:53:44 2024,315,-24.284,-24.284,15.284,15.284,3.032,16.953,10.507,5.079,14.894,11.209,-3.053,16.364,8.989,16.459,3.542,10.237
Thu Dec 05 12:53:44 2024,320,-24.404,-24.404,15.609,15.609,2.979,17.008,10.608,5.066,14.909,11.275,-3.075,16.351,9.022,16.476,3.525,10.265
Thu Dec 05 12:53:44 2024,325,-24.473,-24.473,16.191,16.191,2.969,17.021,10.609,5.050,14.926,11.299,-3.054,16.402,9.084,16.481,3.521,10.324
Thu Dec 05 12:53:44 2024,330,-24.521,-24.521,16.780,16.780,2.973,17.020,10.583,5.035,14.943,11.309,-3.024,16.464,9.149,16.481,3.521,10.386
Thu Dec 05 12:53:44 2024,335,-24.606,-24.606,17.626,17.626,2.962,17.038,10.681,4.985,14.988,11.361,-3.066,16.416,9.186,16.450,3.552,10.426
Thu Dec 05 12:53:44 2024,340,-24.711,-24.711,18.593,18.593,2.940,17.055,10.854,4.915,15.047,11.439,-3.152,16.298,9.201,16.400,3.601,10.452
Thu Dec 05 12:53:44 2024,345,-24.805,-24.805,19.799,19.799,2.966,17.003,11.099,4.889,15.045,11.537,-3.184,16.186,9.248,16.399,3.598,10.514
Thu Dec 05 12:53:44 2024,350,-24.845,-24.845,20.886,20.886,3.053,16.884,11.354,4.941,14.944,11.625,-3.120,16.121,9.325,16.473,3.515,10.604
Thu Dec 05 12:53:44 2024,355,-24.872,-24.872,22.306,22.306,3.175,16.717,11.649,5.009,14.811,11.718,-3.047,16.037,9.410,16.576,3.395,10.723
Thu Dec 05 12:53:44 2024,360,-24.781,-24.781,23.405,23.405,3.319,16.580,11.733,5.067,14.756,11.700,-3.038,16.035,9.417,16.686,3.277,10.822
Thu Dec 05 12:53:44 2024,365,-24.684,-24.684,24.626,24.626,3.476,16.429,11.824,5.131,14.697,11.681,-3.028,16.032,9.425,16.807,3.148,10.931
Thu Dec 05 12:53:44 2024,370,-24.436,-24.436,26.160,26.160,3.471,16.419,11.874,5.091,14.764,11.602,-3.071,15.974,9.261,16.804,3.148,10.838
Thu Dec 05 12:53:44 2024,375,-24.228,-24.228,27.408,27.408,3.444,16.430,11.908,5.044,14.833,11.530,-3.114,15.920,9.108,16.783,3.166,10.736
Thu Dec 05 12:53:44 2024,380,-23.979,-23.979,28.492,28.492,3.378,16.540,12.086,5.069,14.879,11.633,-3.032,16.123,9.159,16.888,3.080,10.827
Thu Dec 05 12:53:44 2024,385,-23.799,-23.799,29.178,29.178,3.316,16.648,12.278,5.121,14.869,11.785,-2.917,16.379,9.291,17.021,2.964,10.982
Thu Dec 05 12:53:44 2024,390,-23.472,-23.472,29.834,29.834,3.187,16.791,12.346,5.155,14.845,11.996,-2.827,16.507,9.472,17.123,2.875,11.217
Thu Dec 05 12:53:44 2024,395,-23.059,-23.059,30.064,30.064,3.018,16.929,12.158,5.140,14.860,12.189,-2.829,16.341,9.634,17.111,2.891,11.450
Thu Dec 05 12:53:44 2024,400,-22.614,-22.614,30.338,30.338,2.848,17.042,11.956,5.074,14.924,12.364,-2.856,16.086,9.811,17.073,2.926,11.756
Thu Dec 05 12:53:44 2024,405,-22.364,-22.364,30.528,30.528,2.807,17.032,11.868,4.881,15.086,12.326,-2.965,15.758,9.892,16.981,3.012,12.066
Thu Dec 05 12:53:44 2024,410,-22.148,-22.148,30.722,30.722,2.768,17.013,11.783,4.700,15.204,12.289,-3.066,15.440,9.972,16.891,3.092,12.361
Thu Dec 05 12:53:44 2024,415,-22.412,-22.412,31.094,31.094,2.692,17.002,11.901,4.741,15.176,12.500,-2.889,15.570,10.154,16.952,3.034,12.425
Thu Dec 05 12:53:44 2024,420,-22.810,22.810,31.537,31.537,2.607,16.980,12.053,4.815,15.125,12.755,-2.666,15.768,10.358,17.035,2.953,12.457
Thu Dec 05 12:53:44 2024,425,-23.140,23.140,32.110,32.110,2.601,16.738,11.994,4.852,15.060,12.939,-2.680,15.486,10.459,17.053,2.942,12.620
Thu Dec 05 12:53:44 2024,430,-23.482,23.482,32.791,32.791,2.619,16.366,11.868,4.882,14.972,13.117,-2.767,15.029,10.538,17.055,2.946,12.835
Thu Dec 05 12:53:44 2024,435,-23.604,23.604,33.577,33.577,2.774,15.822,11.731,4.969,14.748,13.144,-2.771,14.623,10.610,17.080,2.921,12.992
Thu Dec 05 12:53:44 2024,440,-23.529,23.529,34.406,34.406,3.036,15.184,11.594,5.101,14.379,13.044,-2.705,14.278,10.672,17.129,2.860,13.090
Thu Dec 05 12:53:44 2024,445,-23.673,23.673,35.086,35.086,3.311,14.637,11.531,5.224,14.070,12.922,-2.589,14.120,10.697,17.264,2.705,13.067
Thu Dec 05 12:53:44 2024,450,-24.187,24.187,35.065,35.065,3.469,14.556,11.647,5.258,14.132,12.813,-2.435,14.437,10.636,17.496,2.478,12.809
Thu Dec 05 12:53:44 2024,455,-24.779,24.779,35.174,35.174,3.630,14.459,11.737,5.294,14.210,12.676,-2.262,14.825,10.555,17.769,2.210,12.497
Thu Dec 05 12:53:44 2024,460,-24.646,24.646,36.145,36.145,3.519,14.443,11.424,5.268,14.347,12.541,-2.270,15.108,10.447,17.902,2.086,12.290
Thu Dec 05 12:53:44 2024,465,-24.537,24.537,36.975,36.975,3.428,14.427,11.166,5.247,14.452,12.429,-2.277,15.340,10.359,18.012,1.983,12.118
Thu Dec 05 12:53:44 2024,470,-24.729,24.729,37.968,37.968,3.207,14.214,11.104,5.101,14.328,12.449,-2.386,15.141,10.632,17.938,2.057,12.231
Thu Dec 05 12:53:44 2024,475,-25.107,25.107,38.927,38.927,2.950,13.883,11.166,4.918,13.917,12.537,-2.531,14.726,11.070,17.771,2.222,12.488
Thu Dec 05 12:53:44 2024,480,-25.627,25.627,39.460,39.460,2.975,13.712,11.352,4.862,13.512,12.609,-2.473,14.600,11.404,17.721,2.268,12.625
Thu Dec 05 12:53:44 2024,485,-26.579,26.579,39.750,39.750,3.277,13.647,11.734,4.899,13.058,12.699,-2.198,14.693,11.771,17.765,2.217,12.702
Thu Dec 05 12:53:44 2024,490,-27.218,27.218,39.399,39.399,3.428,13.554,11.956,4.830,12.799,12.799,-2.030,14.795,12.105,17.784,2.199,12.875
Thu Dec 05 12:53:44 2024,495,-27.474,27.474,37.914,37.914,3.403,13.396,12.010,4.578,12.756,12.950,-1.965,14.968,12.512,17.774,2.224,13.264
Thu Dec 05 12:53:44 2024,500,-27.782,27.782,36.198,36.198,3.373,13.241,12.054,4.316,12.714,13.108,-1.902,15.163,12.933,17.757,2.247,13.651
Thu Dec 05 12:53:44 2024,505,-27.546,27.546,33.710,33.710,3.299,13.267,11.971,4.112,12.908,13.233,-1.899,15.421,13.157,17.705,2.291,13.741
Thu Dec 05 12:53:44 2024,510,-27.411,27.411,31.485,31.485,3.233,13.295,11.893,3.936,13.085,13.342,-1.901,15.645,13.346,17.655,2.319,13.810
Thu Dec 05 12:53:44 2024,515,-26.856,26.856,29.314,29.314,3.261,13.241,11.774,3.739,13.136,13.461,-1.976,15.753,13.572,17.575,2.359,14.014
Thu Dec 05 12:53:44 2024,520,-26.408,26.408,27.510,27.510,3.303,13.180,11.666,3.573,13.147,13.562,-2.053,15.817,13.766,17.500,2.387,14.208
Thu Dec 05 12:53:44 2024,525,-26.069,26.069,26.445,26.445,3.353,12.966,11.510,3.443,13.070,13.568,-2.137,15.710,13.842,17.411,2.447,14.401
Thu Dec 05 12:53:44 2024,530,-25.838,25.838,26.018,26.018,3.412,12.610,11.308,3.343,12.911,13.490,-2.225,15.452,13.815,17.308,2.540,14.596
Thu Dec 05 12:53:44 2024,535,-25.756,25.756,25.561,25.561,3.395,12.387,11.202,3.248,12.775,13.438,-2.306,15.264,13.799,17.241,2.603,14.683
Thu Dec 05 12:53:44 2024,540,-25.774,25.774,25.184,25.184,3.291,12.369,11.233,3.180,12.701,13.426,-2.362,15.197,13.800,17.230,2.616,14.628
Thu Dec 05 12:53:44 2024,545,-25.788,25.788,24.811,24.811,3.185,12.358,11.258,3.118,12.648,13.423,-2.406,15.148,13.811,17.218,2.628,14.585
Thu Dec 05 12:53:44 2024,550,-25.722,25.722,24.556,24.556,3.093,12.401,11.245,3.106,12.739,13.472,-2.375,15.206,13.876,17.202,2.628,14.622
Thu Dec 05 12:53:44 2024,555,-25.684,25.684,24.340,24.340,3.016,12.436,11.234,3.096,12.810,13.511,-2.348,15.252,13.926,17.194,2.622,14.650
Thu Dec 05 12:53:44 2024,560,-25.907,25.907,24.194,24.194,2.968,12.429,11.235,3.077,12.748,13.472,-2.292,15.179,13.874,17.307,2.511,14.587
Thu Dec 05 12:53:44 2024,565,-26.118,26.118,24.089,24.089,2.934,12.419,11.237,3.061,12.680,13.432,-2.246,15.103,13.818,17.412,2.410,14.526
Thu Dec 05 12:53:44 2024,570,-26.339,26.339,24.023,24.023,2.768,12.421,11.305,3.001,12.678,13.441,-2.243,15.128,13.857,17.440,2.370,14.550
Thu Dec 05 12:53:44 2024,575,-26.541,26.541,23.975,23.975,2.577,12.423,11.385,2.935,12.696,13.465,-2.255,15.182,13.921,17.440,2.352,14.597
Thu Dec 05 12:53:44 2024,580,-26.685,26.685,23.916,23.916,2.406,12.443,11.458,2.886,12.721,13.475,-2.251,15.222,13.928,17.447,2.333,14.585
Thu Dec 05 12:53:44 2024,585,-26.744,26.744,23.880,23.880,2.262,12.513,11.527,2.863,12.743,13.462,-2.226,15.258,13.874,17.460,2.314,14.516
Thu Dec 05 12:53:44 2024,590,-26.785,26.785,23.911,23.911,2.141,12.605,11.598,2.850,12.742,13.443,-2.204,15.311,13.852,17.466,2.301,14.488
Thu Dec 05 12:53:44 2024,595,-26.760,26.760,24.216,24.216,2.091,12.813,11.688,2.871,12.650,13.401,-2.185,15.448,13.955,17.442,2.302,14.624
Thu Dec 05 12:53:44 2024,600,-26.736,26.736,24.536,24.536,2.058,13.004,11.776,2.892,12.579,13.376,-2.176,15.574,14.061,17.421,2.305,14.755
Thu Dec 05 12:53:44 2024,605,-26.816,26.816,25.008,25.008,1.958,13.180,11.986,2.880,12.754,13.493,-2.204,15.675,14.120,17.442,2.302,14.745
Thu Dec 05 12:53:44 2024,610,-26.913,26.913,25.437,25.437,1.865,13.334,12.182,2.866,12.932,13.609,-2.231,15.761,14.167,17.464,2.299,14.723
Thu Dec 05 12:53:44 2024,615,-26.839,26.839,26.301,26.301,1.788,13.604,12.462,2.884,13.031,13.640,-2.232,15.862,14.150,17.458,2.318,14.694
Thu Dec 05 12:53:44 2024,620,-26.764,26.764,27.327,27.327,1.722,13.916,12.773,2.915,13.097,13.638,-2.224,15.967,14.108,17.441,2.345,14.663
Thu Dec 05 12:53:44 2024,625,-26.621,26.621,28.603,28.603,1.613,14.195,13.039,3.019,13.178,13.630,-2.192,16.042,14.016,17.501,2.313,14.541
Thu Dec 05 12:53:44 2024,630,-26.440,26.440,30.308,30.308,1.456,14.511,13.332,3.194,13.275,13.616,-2.138,16.113,13.873,17.621,2.234,14.332
Thu Dec 05 12:53:44 2024,635,-26.182,26.182,31.791,31.791,1.278,14.567,13.480,3.467,13.256,13.638,-2.157,15.978,13.688,17.712,2.169,14.196
Thu Dec 05 12:53:44 2024,640,-25.813,25.813,32.718,32.718,1.105,14.283,13.421,3.806,13.099,13.702,-2.262,15.618,13.488,17.750,2.136,14.177
Thu Dec 05 12:53:44 2024,645,-25.287,25.287,33.985,33.985,0.953,13.927,13.345,4.278,12.863,13.792,-2.331,15.152,13.214,17.844,2.064,14.112
Thu Dec 05 12:53:44 2024,650,-24.490,24.490,35.055,35.055,1.228,13.820,13.293,4.726,12.624,13.882,-2.025,14.852,12.971,18.118,1.858,13.851
Thu Dec 05 12:53:44 2024,655,-23.785,23.785,36.030,36.030,1.488,13.707,13.245,5.151,12.377,13.967,-1.741,14.526,12.742,18.370,1.632,13.601
Thu Dec 05 12:53:44 2024,660,-23.452,23.452,35.865,35.865,1.508,13.590,13.687,5.181,12.217,14.485,-1.732,14.138,12.895,18.495,1.507,13.937
Thu Dec 05 12:53:44 2024,665,-23.276,23.276,35.445,35.445,1.460,13.486,14.222,5.096,12.096,15.074,-1.801,13.779,13.137,18.573,1.421,14.405
Thu Dec 05 12:53:44 2024,670,-22.814,22.814,34.005,34.005,1.384,13.845,14.344,5.088,12.309,15.219,-1.875,13.762,13.098,18.496,1.504,14.589
Thu Dec 05 12:53:44 2024,675,-22.147,22.147,31.881,31.881,1.284,14.568,14.142,5.134,12.766,15.015,-1.953,14.008,12.843,18.296,1.704,14.546
Thu Dec 05 12:53:44 2024,680,-22.202,22.202,29.986,29.986,0.897,15.635,14.006,5.004,13.516,14.815,-2.179,14.423,12.462,18.046,1.929,14.190
Thu Dec 05 12:53:44 2024,685,-23.678,23.678,27.940,27.940,-0.124,17.579,13.980,4.526,14.931,14.589,-2.740,15.196,11.738,17.657,2.255,13.107
Thu Dec 05 12:53:44 2024,690,-24.746,24.746,25.892,25.892,-0.821,18.810,13.786,4.252,15.686,14.351,-3.048,15.842,11.189,17.456,2.355,12.206
Thu Dec 05 12:53:44 2024,695,-24.759,24.759,22.242,22.242,-0.772,20.814,12.804,4.466,15.508,13.893,-2.601,17.014,11.014,17.812,1.798,11.586
Thu Dec 05 12:53:44 2024,700,-24.773,24.773,19.094,19.094,-0.736,21.397,11.932,4.648,24.888,13.484,-2.214,22.227,10.860,18.124,1.256,11.039
Thu Dec 05 12:53:44 2024,705,-24.789,24.789,16.278,16.278,-0.710,22.193,11.128,4.810,25.412,13.105,-1.864,22.063,10.722,18.409,39.281,10.537
Thu Dec 05 12:53:44 2024,710,-27.093,27.093,10.478,10.478,-1.299,22.838,11.231,5.235,26.028,13.799,-1.236,21.424,11.051,19.200,40.250,10.690
Thu Dec 05 12:53:44 2024,715,-27.841,27.841,7.093,7.093,-1.277,23.124,10.918,5.394,26.376,13.903,-0.892,21.349,11.157,19.610,40.806,10.737
Thu Dec 05 12:53:44 2024,720,-28.181,28.181,4.848,4.848,-1.097,23.169,10.651,5.451,26.533,13.929,-0.688,21.404,11.233,19.869,41.145,10.858
Thu Dec 05 12:53:44 2024,725,-28.501,28.501,2.760,2.760,-0.932,23.224,10.403,5.503,26.680,13.954,-0.500,21.508,11.305,20.107,41.460,10.970
Thu Dec 05 12:53:44 2024,730,-28.768,28.768,-0.899,-0.899,-0.567,23.124,10.052,5.674,26.873,14.057,-0.344,21.562,11.480,20.375,41.790,11.270
Thu Dec 05 12:53:44 2024,735,-28.842,28.842,-3.689,-3.689,-0.156,22.968,9.769,5.906,27.067,14.191,-0.295,21.565,11.668,20.579,42.031,11.619
Thu Dec 05 12:53:44 2024,740,-28.800,28.800,-5.038,-5.038,-0.030,23.032,9.740,6.026,27.249,14.210,-0.300,21.768,11.664,20.718,42.242,11.680
Thu Dec 05 12:53:44 2024,745,-28.762,28.762,-6.481,-6.481,0.125,23.107,9.709,6.154,27.444,14.229,-0.305,21.983,11.661,20.865,42.469,11.746
Thu Dec 05 12:53:44 2024,750,-28.628,28.628,-7.369,-7.369,0.198,23.218,9.689,6.302,27.651,14.316,-0.215,22.158,11.767,21.014,42.690,11.921
Thu Dec 05 12:53:44 2024,755,-28.502,28.502,-8.240,-8.240,0.269,23.327,9.671,6.445,27.852,14.400,-0.128,22.333,11.871,21.158,42.904,12.090
Thu Dec 05 12:53:44 2024,760,-28.399,28.399,-9.096,-9.096,0.250,23.321,9.685,6.515,27.992,14.467,-0.069,22.440,11.902,21.265,43.076,12.231
Thu Dec 05 12:53:44 2024,765,-28.338,28.338,-9.727,-9.727,0.188,23.252,9.714,6.527,28.063,14.506,-0.040,22.481,11.885,21.325,43.180,12.320
Thu Dec 05 12:53:44 2024,770,-28.109,28.109,-10.481,-10.481,0.117,23.159,9.617,6.518,28.104,14.484,-0.048,22.482,11.800,21.381,43.289,12.361
Thu Dec 05 12:53:44 2024,775,-27.824,27.824,-10.989,-10.989,0.078,23.084,9.442,6.494,28.095,14.412,-0.092,22.444,11.687,21.406,43.350,12.336
Thu Dec 05 12:53:44 2024,780,-27.540,27.540,-11.459,-11.459,0.034,23.014,9.313,6.471,28.092,14.349,-0.136,22.413,11.587,21.425,43.397,12.301
Thu Dec 05 12:53:44 2024,785,-27.260,27.260,-11.777,-11.777,-0.044,22.965,9.355,6.460,28.109,14.326,-0.174,22.408,11.541,21.426,43.394,12.231
Thu Dec 05 12:53:44 2024,790,-27.069,27.069,-11.996,-11.996,-0.086,22.931,9.384,6.452,28.121,14.310,-0.197,22.404,11.509,21.426,43.392,12.182
Thu Dec 05 12:53:44 2024,795,-26.835,26.835,-12.004,-12.004,-0.101,22.866,9.349,6.409,28.045,14.219,-0.224,22.326,11.406,21.321,43.250,12.063
Thu Dec 05 12:53:44 2024,800,-26.629,26.629,-11.965,-11.965,-0.106,22.816,9.316,6.374,27.975,14.130,-0.244,22.248,11.304,21.220,43.110,11.947
Thu Dec 05 12:53:44 2024,805,-26.503,26.503,-11.825,-11.825,-0.074,22.876,9.356,6.404,28.006,14.082,-0.235,22.211,11.242,21.227,43.081,11.878
Thu Dec 05 12:53:44 2024,810,-26.425,26.425,-11.626,-11.626,-0.033,23.002,9.439,6.475,28.096,14.058,-0.210,22.197,11.201,21.296,43.113,11.833
Thu Dec 05 12:53:44 2024,815,-26.253,26.253,-11.348,-11.348,0.028,23.117,9.487,6.497,28.160,14.049,-0.208,22.221,11.150,21.253,42.997,11.690
Thu Dec 05 12:53:44 2024,820,-26.048,26.048,-11.068,-11.068,-0.024,23.196,9.494,6.476,28.188,14.054,-0.228,22.271,11.100,21.128,42.784,11.498
Thu Dec 05 12:53:44 2024,825,-25.844,25.844,-10.745,-10.745,-0.003,23.224,9.498,6.453,28.186,14.058,-0.279,22.270,11.072,21.006,42.604,11.404
Thu Dec 05 12:53:44 2024,830,-25.644,25.644,-10.338,-10.338,0.070,23.144,9.493,6.427,28.116,14.053,-0.397,22.162,11.090,20.895,42.499,11.528
Thu Dec 05 12:53:44 2024,835,-25.449,25.449,-9.915,-9.915,0.138,23.069,9.482,6.402,28.040,14.037,-0.515,22.056,11.097,20.776,42.377,11.636
Thu Dec 05 12:53:44 2024,840,-25.290,25.290,-9.541,-9.541,0.233,23.077,9.414,6.396,27.921,13.893,-0.577,21.938,10.978,20.634,42.143,11.501
Thu Dec 05 12:53:44 2024,845,-25.147,25.147,-9.187,-9.187,0.323,23.087,9.350,6.389,27.810,13.756,-0.636,21.831,10.866,20.500,41.922,11.374
Thu Dec 05 12:53:44 2024,850,-24.946,24.946,-8.782,-8.782,0.440,23.127,9.354,6.374,27.757,13.695,-0.689,21.794,10.809,20.377,41.744,11.337
Thu Dec 05 12:53:44 2024,855,-24.768,-24.768,-8.422,-8.422,0.546,23.171,9.369,6.358,27.721,13.656,-0.734,21.777,10.769,20.272,41.597,11.322
Thu Dec 05 12:53:44 2024,860,-24.614,-24.614,-8.100,-8.100,0.643,23.212,9.384,6.344,27.689,13.621,-0.775,21.763,10.734,20.178,41.466,11.309
Thu Dec 05 12:53:44 2024,865,-24.528,-24.528,-7.915,-7.915,0.698,23.237,9.392,6.336,27.670,13.600,-0.798,21.756,10.714,20.124,41.390,11.302
Thu Dec 05 12:53:44 2024,870,-24.121,-24.121,-7.406,-7.406,0.706,23.268,9.407,6.242,27.542,13.668,-0.856,21.741,10.704,19.924,41.176,11.240
Thu Dec 05 12:53:44 2024,875,-23.925,-23.925,-7.105,-7.105,0.746,23.295,9.417,6.203,27.485,13.680,-0.892,21.733,10.688,19.817,41.048,11.214
Thu Dec 05 12:53:44 2024,880,-23.760,-23.760,-6.852,-6.852,0.779,23.319,9.426,6.170,27.435,13.689,-0.923,21.727,10.673,19.726,40.941,11.192
Thu Dec 05 12:53:44 2024,885,-23.819,-23.819,-6.484,-6.484,0.793,23.439,9.525,6.152,27.387,13.642,-0.964,21.812,10.683,19.721,40.982,11.282
Thu Dec 05 12:53:44 2024,890,-23.892,-23.892,-6.180,-6.180,0.801,23.545,9.613,6.140,27.349,13.598,-0.998,21.890,10.692,19.728,41.032,11.366
Thu Dec 05 12:53:44 2024,895,-23.920,-23.920,-5.963,-5.963,0.876,23.623,9.619,6.211,27.404,13.581,-0.953,21.846,10.664,19.720,41.033,11.362
Thu Dec 05 12:53:44 2024,900,-23.930,-23.930,-5.826,-5.826,0.945,23.673,9.607,6.281,27.464,13.574,-0.904,21.789,10.634,19.710,41.023,11.340
Thu Dec 05 12:53:44 2024,905,-23.988,-23.988,-5.662,-5.662,0.946,23.621,9.593,6.281,27.436,13.529,-0.882,21.804,10.615,19.699,40.996,11.256
Thu Dec 05 12:53:44 2024,910,-24.074,-24.074,-5.506,-5.506,0.895,23.498,9.582,6.226,27.341,13.462,-0.884,21.877,10.607,19.688,40.961,11.138
Thu Dec 05 12:53:44 2024,915,-24.121,-24.121,-5.415,-5.415,0.838,23.477,9.535,6.188,27.335,13.428,-0.875,21.974,10.603,19.698,40.997,11.147
Thu Dec 05 12:53:44 2024,920,-24.115,8.036,-5.413,-5.413,0.793,23.565,9.466,6.177,27.421,13.439,-0.860,22.069,10.605,19.726,41.096,11.280
Thu Dec 05 12:53:44 2024,925,-24.098,24.098,-5.406,-5.406,0.762,23.656,9.410,6.172,27.511,13.452,-0.842,22.173,10.616,19.758,41.190,11.403
Thu Dec 05 12:53:44 2024,930,-24.042,24.042,-5.372,-5.372,0.806,23.712,9.432,6.191,27.571,13.472,-0.824,22.258,10.664,19.795,41.218,11.422
Thu Dec 05 12:53:44 2024,935,-23.986,23.986,-5.313,-5.313,0.852,23.753,9.453,6.210,27.618,13.493,-0.808,22.332,10.712,19.833,41.236,11.428
Thu Dec 05 12:53:44 2024,940,-23.955,23.955,-5.079,-5.079,0.873,23.703,9.424,6.202,27.603,13.528,-0.806,22.315,10.739,19.858,41.232,11.407
Thu Dec 05 12:53:44 2024,945,-23.927,23.927,-4.767,-4.767,0.892,23.621,9.377,6.188,27.568,13.573,-0.806,22.273,10.764,19.885,41.220,11.376
Thu Dec 05 12:53:44 2024,950,-23.903,23.903,-3.880,-3.880,0.885,23.683,9.409,6.146,27.509,13.541,-0.780,22.327,10.790,19.833,41.154,11.348
Thu Dec 05 12:53:44 2024,955,-23.877,23.877,-2.538,-2.538,0.865,23.832,9.488,6.083,27.429,13.461,-0.735,22.445,10.821,19.729,41.048,11.318
Thu Dec 05 12:53:44 2024,960,-23.960,23.960,-0.983,-0.983,0.896,23.732,9.644,6.047,27.306,13.432,-0.665,22.308,10.797,19.625,40.855,11.214
Thu Dec 05 12:53:44 2024,965,-24.157,24.157,0.726,0.726,0.977,23.392,9.868,6.039,27.150,13.455,-0.573,21.922,10.720,19.526,40.594,11.043
Thu Dec 05 12:53:44 2024,970,-24.354,24.354,2.634,2.634,1.018,23.112,10.120,6.018,26.999,13.475,-0.536,21.563,10.640,19.403,40.328,10.878
Thu Dec 05 12:53:44 2024,975,-24.514,24.514,4.947,4.947,0.957,22.983,10.423,5.964,26.858,13.485,-0.645,21.324,10.557,19.227,40.053,10.735
Thu Dec 05 12:53:44 2024,980,-24.681,24.681,7.471,7.471,0.852,22.832,10.761,5.920,26.727,13.522,-0.758,21.148,10.504,19.061,0.197,10.628
Thu Dec 05 12:53:44 2024,985,-24.835,24.835,10.416,10.416,0.565,22.611,11.186,5.928,26.662,13.674,-0.867,21.104,10.597,18.974,0.297,10.713
Thu Dec 05 12:53:44 2024,990,-25.011,25.011,13.946,13.946,0.196,22.378,11.701,5.946,26.601,13.873,-0.992,21.112,10.732,18.888,0.387,10.847
Thu Dec 05 12:53:44 2024,995,-24.622,24.622,17.278,17.278,0.040,21.868,11.794,5.667,26.206,13.981,-1.180,21.206,10.892,18.570,0.744,11.198
Thu Dec 05 12:53:45 2024,0,-24.087,24.087,20.530,20.530,-0.052,21.292,11.777,5.318,25.738,14.064,-1.378,21.377,11.056,18.199,1.163,11.598
Thu Dec 05 12:53:45 2024,5,-23.685,23.685,23.221,23.221,-0.204,20.771,11.950,5.067,25.355,14.166,-1.502,18.453,11.227,18.016,1.408,11.986
Thu Dec 05 12:53:45 2024,10,-23.336,23.336,25.978,25.978,-0.445,20.456,12.359,4.862,15.001,14.310,-1.576,18.195,11.446,17.988,1.520,12.455
Thu Dec 05 12:53:45 2024,15,-23.099,23.099,28.757,28.757,-0.573,18.990,12.706,4.740,15.232,14.595,-1.685,17.571,11.660,17.925,1.686,13.032
Thu Dec 05 12:53:45 2024,20,-23.164,23.164,30.713,30.713,-0.440,17.844,12.834,4.818,15.178,15.090,-1.839,16.362,11.812,17.800,1.923,13.670
Thu Dec 05 12:53:45 2024,25,-23.150,23.150,32.383,32.383,-0.314,16.664,12.924,4.879,15.034,15.450,-1.926,15.287,11.995,17.731,2.077,14.252
Thu Dec 05 12:53:45 2024,30,-22.660,22.660,33.129,33.129,-0.172,15.080,12.825,4.887,14.606,15.317,-1.735,14.714,12.411,17.906,1.969,14.876
Thu Dec 05 12:53:45 2024,35,-22.170,22.170,33.724,33.724,0.120,13.586,12.700,4.919,13.849,15.121,-1.507,14.265,12.827,18.116,1.805,15.447
Thu Dec 05 12:53:45 2024,40,-22.457,22.457,35.339,35.339,-0.172,12.351,12.851,4.993,13.074,15.382,-1.336,13.605,13.242,18.471,1.525,15.569
Thu Dec 05 12:53:45 2024,45,-22.922,22.922,37.008,37.008,-0.237,11.372,13.045,5.051,12.408,15.711,-1.213,12.982,13.594,18.801,1.194,15.556
Thu Dec 05 12:53:45 2024,50,-22.988,22.988,37.817,37.817,-0.288,10.727,13.023,5.083,11.842,15.657,-1.155,12.517,13.783,18.879,1.071,15.495
Thu Dec 05 12:53:45 2024,55,-22.777,22.777,38.103,38.103,-0.319,10.234,12.852,5.105,11.293,15.336,-1.131,12.113,13.881,18.798,1.107,15.398
Thu Dec 05 12:53:45 2024,60,-22.604,22.604,38.112,38.112,-0.364,9.926,12.575,5.061,10.993,14.969,-1.160,11.909,13.852,18.699,1.177,15.200
Thu Dec 05 12:53:45 2024,65,-22.424,22.424,37.255,37.255,-0.488,10.157,11.991,4.812,11.481,14.455,-1.352,12.292,13.452,18.540,1.398,14.698
Thu Dec 05 12:53:45 2024,70,-22.367,22.367,36.436,36.436,-0.632,10.321,11.561,4.614,11.837,14.074,-1.488,12.599,13.180,18.417,1.557,14.332
Thu Dec 05 12:53:45 2024,75,-22.625,22.625,35.334,35.334,-0.817,10.358,11.419,4.497,11.934,13.942,-1.494,12.841,13.205,18.359,1.635,14.232
Thu Dec 05 12:53:45 2024,80,-22.917,22.917,34.257,34.257,-0.998,10.376,11.318,4.396,11.996,13.846,-1.485,13.061,13.260,18.312,1.691,14.168
Thu Dec 05 12:53:45 2024,85,-23.209,23.209,33.288,33.288,-1.354,10.460,11.180,4.270,12.307,13.720,-1.474,13.573,13.232,18.161,1.841,13.856
Thu Dec 05 12:53:45 2024,90,-23.448,23.448,32.511,32.511,-1.677,10.531,11.062,4.165,12.605,13.611,-1.464,14.042,13.194,18.022,1.971,13.557
Thu Dec 05 12:53:45 2024,95,-23.556,23.556,31.900,31.900,-1.973,10.675,11.037,4.083,12.905,13.575,-1.444,14.481,13.234,17.987,1.985,13.468
Thu Dec 05 12:53:45 2024,100,-23.588,23.588,31.409,31.409,-2.239,10.846,11.062,4.018,13.189,13.577,-1.419,14.880,13.312,18.009,1.932,13.491
Thu Dec 05 12:53:45 2024,105,-23.690,23.690,30.642,30.642,-2.491,11.012,11.106,3.905,13.459,13.571,-1.307,15.298,13.411,18.015,1.895,13.454
Thu Dec 05 12:53:45 2024,110,-23.854,23.854,29.780,29.780,-2.634,11.120,11.160,3.766,13.614,13.555,-1.117,15.585,13.500,17.992,1.907,13.346
Thu Dec 05 12:53:45 2024,115,-24.090,24.090,28.676,28.676,-2.802,11.234,11.222,3.605,13.831,13.566,-0.920,15.915,13.615,17.953,1.927,13.259
Thu Dec 05 12:53:45 2024,120,-24.396,24.396,27.627,27.627,-2.919,11.280,11.262,3.506,14.103,13.678,-0.876,16.123,13.730,17.881,1.960,13.340
Thu Dec 05 12:53:45 2024,125,-24.689,24.689,26.640,26.640,-3.029,11.321,11.298,3.413,14.356,13.782,-0.836,16.317,13.836,17.813,1.986,13.415
Thu Dec 05 12:53:45 2024,130,-24.858,24.858,25.840,25.840,-3.062,11.450,11.325,3.339,14.488,13.807,-0.831,16.415,13.845,17.818,1.939,13.422
Thu Dec 05 12:53:45 2024,135,-24.999,24.999,25.139,25.139,-3.084,11.576,11.348,3.274,14.594,13.821,-0.832,16.493,13.843,17.828,1.886,13.420
Thu Dec 05 12:53:45 2024,140,-24.937,24.937,24.427,24.427,-3.042,11.664,11.303,3.224,14.676,13.872,-0.851,16.487,13.889,17.773,1.903,13.490
Thu Dec 05 12:53:45 2024,145,-24.792,24.792,23.746,23.746,-2.973,11.731,11.229,3.184,14.744,13.939,-0.877,16.443,13.955,17.690,1.951,13.587
Thu Dec 05 12:53:45 2024,150,-24.624,24.624,23.128,23.128,-2.899,11.775,11.138,3.116,14.772,13.962,-0.945,16.373,13.989,17.597,2.010,13.653
Thu Dec 05 12:53:45 2024,155,-24.421,24.421,22.642,22.642,-2.820,11.779,11.023,3.007,14.734,13.912,-1.078,16.260,13.968,17.492,2.085,13.664
Thu Dec 05 12:53:45 2024,160,-24.175,24.175,22.107,22.107,-2.761,11.814,10.932,2.912,14.730,13.872,-1.155,16.213,13.960,17.434,2.111,13.722
Thu Dec 05 12:53:45 2024,165,-23.938,23.938,21.610,21.610,-2.716,11.855,10.860,2.831,14.742,13.842,-1.204,16.194,13.959,17.398,2.117,13.790
Thu Dec 05 12:53:45 2024,170,-23.690,23.690,21.084,21.084,-2.676,11.910,10.799,2.760,14.771,13.819,-1.219,16.213,13.970,17.392,2.095,13.892
Thu Dec 05 12:53:45 2024,175,-23.689,23.689,21.070,21.070,-2.585,11.845,10.755,2.752,14.685,13.821,-1.257,16.137,14.011,17.371,2.138,13.956
Thu Dec 05 12:53:45 2024,180,-23.691,23.691,21.055,21.055,-2.479,11.768,10.704,2.742,14.585,13.822,-1.300,16.048,14.060,17.346,2.186,14.030
Thu Dec 05 12:53:45 2024,185,-23.677,23.677,20.985,20.985,-2.440,11.802,10.716,2.713,14.404,13.778,-1.310,15.954,14.092,17.342,2.215,14.080
Thu Dec 05 12:53:45 2024,190,-23.658,23.658,20.905,20.905,-2.440,11.877,10.752,2.681,14.222,13.722,-1.303,15.877,14.111,17.349,2.230,14.110
Thu Dec 05 12:53:45 2024,195,-23.662,23.662,20.827,20.827,-2.466,12.004,10.802,2.656,14.142,13.688,-1.305,15.796,14.084,17.348,2.238,14.084
Thu Dec 05 12:53:45 2024,200,-23.681,23.681,20.766,20.766,-2.506,12.141,10.850,2.644,14.152,13.675,-1.313,15.731,14.032,17.340,2.241,14.024
Thu Dec 05 12:53:45 2024,205,-23.698,23.698,20.810,20.810,-2.579,12.241,10.902,2.642,14.187,13.675,-1.312,15.698,13.986,17.343,2.234,13.962
Thu Dec 05 12:53:45 2024,210,-23.691,23.691,21.104,21.104,-2.681,12.159,10.922,2.670,14.259,13.708,-1.288,15.777,13.995,17.372,2.211,13.945
Thu Dec 05 12:53:45 2024,215,-23.697,23.697,21.391,21.391,-2.773,12.086,10.942,2.697,14.321,13.735,-1.266,15.845,13.999,17.398,2.190,13.927
Thu Dec 05 12:53:45 2024,220,-23.823,23.823,21.853,21.853,-2.806,12.085,10.987,2.737,14.282,13.700,-1.248,15.775,13.929,17.402,2.197,13.870
Thu Dec 05 12:53:45 2024,225,-23.961,23.961,22.309,22.309,-2.837,12.083,11.030,2.776,14.243,13.665,-1.231,15.706,13.860,17.405,2.203,13.814
Thu Dec 05 12:53:45 2024,230,-23.949,23.949,23.057,23.057,-2.873,12.162,11.079,2.832,14.269,13.629,-1.195,15.790,13.842,17.424,2.197,13.744
Thu Dec 05 12:53:45 2024,235,-23.893,23.893,23.902,23.902,-2.909,12.271,11.129,2.894,14.319,13.595,-1.152,15.939,13.847,17.448,2.188,13.673
Thu Dec 05 12:53:45 2024,240,-23.979,23.979,24.940,24.940,-2.876,12.383,11.207,3.029,14.368,13.614,-1.076,16.030,13.824,17.530,2.137,13.636
Thu Dec 05 12:53:45 2024,245,-24.220,24.220,26.361,26.361,-2.772,12.520,11.326,3.258,14.416,13.684,-0.953,16.087,13.769,17.678,2.038,13.624
Thu Dec 05 12:53:45 2024,250,-24.417,24.417,27.700,27.700,-2.674,12.542,11.382,3.445,14.367,13.690,-0.888,16.044,13.685,17.787,1.981,13.558
Thu Dec 05 12:53:45 2024,255,-24.559,24.559,29.377,29.377,-2.550,12.311,11.322,3.607,14.118,13.557,-0.929,15.773,13.503,17.860,1.990,13.347
Thu Dec 05 12:53:45 2024,260,-24.672,24.672,30.920,30.920,-2.439,12.086,11.276,3.756,13.865,13.442,-0.978,15.490,13.335,17.930,1.978,13.172
Thu Dec 05 12:53:45 2024,265,-24.266,24.266,32.698,32.698,-2.335,11.770,11.314,3.932,13.353,13.395,-1.140,14.846,13.144,18.050,1.904,13.172
Thu Dec 05 12:53:45 2024,270,-23.977,23.977,34.158,34.158,-2.251,11.506,11.343,4.077,12.927,13.354,-1.278,14.314,12.986,18.150,1.832,13.171
Thu Dec 05 12:53:45 2024,275,-23.519,23.519,35.609,35.609,-2.193,11.458,11.174,4.318,12.851,13.256,-1.424,13.966,12.655,18.204,1.788,12.998
Thu Dec 05 12:53:45 2024,280,-23.047,23.047,37.022,37.022,-2.145,11.484,10.939,4.591,12.881,13.139,-1.573,13.684,12.268,18.241,1.756,12.767
Thu Dec 05 12:53:45 2024,285,-22.846,22.846,37.824,37.824,-1.934,11.697,10.925,4.841,12.828,13.130,-1.425,13.434,11.978,18.256,1.747,12.500
Thu Dec 05 12:53:45 2024,290,-22.797,22.797,38.272,38.272,-1.646,11.991,11.028,5.066,12.734,13.177,-1.129,13.194,11.754,18.253,1.736,12.223
Thu Dec 05 12:53:45 2024,295,-22.699,22.699,38.402,38.402,-1.507,12.193,11.250,5.160,12.742,13.292,-0.989,13.012,11.599,18.226,1.741,12.140
Thu Dec 05 12:53:45 2024,300,-22.574,22.574,38.088,38.088,-1.604,12.230,11.567,5.054,12.892,13.464,-1.086,12.980,11.578,18.186,1.783,12.336
Thu Dec 05 12:53:45 2024,305,-22.332,22.332,37.549,37.549,-1.667,12.244,11.822,4.958,13.001,13.585,-1.189,12.891,11.517,18.131,1.838,12.506
Thu Dec 05 12:53:45 2024,310,-21.442,21.442,36.156,36.156,-1.499,12.128,11.546,4.982,12.804,13.346,-1.251,12.557,11.283,18.034,1.925,12.390
Thu Dec 05 12:53:45 2024,315,-20.772,20.772,35.094,35.094,-1.366,12.035,11.326,5.001,12.645,13.157,-1.299,12.293,11.099,17.960,1.992,12.297
Thu Dec 05 12:53:45 2024,320,-20.902,20.902,34.438,34.438,-1.574,12.722,11.388,4.840,13.070,13.132,-1.537,12.420,10.870,17.614,2.349,12.036
Thu Dec 05 12:53:45 2024,325,-21.211,21.211,34.002,34.002,-1.829,13.485,11.507,4.662,13.569,13.151,-1.788,12.617,10.662,17.252,2.724,11.772
Thu Dec 05 12:53:45 2024,330,-21.234,21.234,32.772,32.772,-2.314,14.428,11.523,4.524,14.304,13.021,-1.902,13.472,10.456,17.016,2.984,11.486
Thu Dec 05 12:53:45 2024,335,-21.135,21.135,31.483,31.483,-2.801,15.131,11.485,4.442,14.910,12.846,-1.913,14.459,10.301,16.908,3.080,11.259
Thu Dec 05 12:53:45 2024,340,-21.166,21.166,29.826,29.826,-3.080,15.608,11.381,4.360,15.378,12.750,-1.900,15.392,10.165,16.905,3.040,10.980
Thu Dec 05 12:53:45 2024,345,-21.310,21.310,27.989,27.989,-3.113,15.929,11.220,4.283,15.661,12.749,-1.868,16.147,10.061,17.001,2.904,10.684
Thu Dec 05 12:53:45 2024,350,-21.615,21.615,25.970,25.970,-3.120,16.214,11.105,4.330,15.652,12.706,-1.765,16.836,9.989,17.173,2.684,10.421
Thu Dec 05 12:53:45 2024,355,-22.173,22.173,23.092,23.092,-3.102,16.556,11.011,4.534,15.414,12.600,-1.550,17.664,9.929,17.480,2.311,10.120
Thu Dec 05 12:53:45 2024,360,-22.728,22.728,20.055,20.055,-3.048,18.865,10.908,4.781,18.444,12.500,-1.294,18.392,9.892,17.805,1.913,9.851
Thu Dec 05 12:53:45 2024,365,-22.969,22.969,16.000,16.000,-2.832,22.846,10.601,5.027,25.312,12.558,-0.948,18.956,9.955,18.065,1.576,9.706
Thu Dec 05 12:53:45 2024,370,-23.129,23.129,11.922,11.922,-2.590,22.613,10.259,5.258,25.655,12.652,-0.600,20.608,10.039,18.294,1.268,9.600
Thu Dec 05 12:53:45 2024,375,-23.127,23.127,8.572,8.572,-2.408,22.514,9.828,5.358,25.858,12.645,-0.406,20.530,10.054,18.572,0.905,9.566
Thu Dec 05 12:53:45 2024,380,-23.062,23.062,5.335,5.335,-2.240,22.478,9.337,5.410,26.018,12.596,-0.266,20.709,10.042,18.886,0.496,9.560
Thu Dec 05 12:53:45 2024,385,-23.019,23.019,2.884,2.884,-2.126,22.525,8.996,5.513,26.232,12.584,-0.134,20.938,10.063,19.136,0.154,9.586
Thu Dec 05 12:53:45 2024,390,-22.987,22.987,0.791,0.791,-2.052,22.675,8.760,5.712,26.573,12.618,0.020,21.216,10.136,19.366,40.195,9.659
Thu Dec 05 12:53:45 2024,395,-22.862,22.862,-0.807,-0.807,-1.994,22.783,8.542,5.859,26.849,12.668,0.099,21.445,10.206,19.544,40.464,9.733
Thu Dec 05 12:53:45 2024,400,-22.560,22.560,-1.946,-1.946,-1.947,22.804,8.303,5.957,27.078,12.758,0.093,21.619,10.286,19.680,40.663,9.829
Thu Dec 05 12:53:45 2024,405,-22.312,22.312,-2.894,-2.894,-1.908,22.823,8.107,6.037,27.271,12.833,0.086,21.764,10.352,19.793,40.829,9.908
Thu Dec 05 12:53:45 2024,410,-21.778,21.778,-4.277,-4.277,-1.843,22.687,7.942,6.079,27.337,13.002,0.000,21.568,10.373,19.981,41.053,10.081
Thu Dec 05 12:53:45 2024,415,-21.373,21.373,-5.304,-5.304,-1.793,22.573,7.829,6.105,27.369,13.133,-0.063,21.395,10.384,20.122,41.217,10.214
Thu Dec 05 12:53:45 2024,420,-20.901,20.901,-6.367,-6.367,-1.727,22.604,7.772,6.157,27.407,13.237,-0.052,21.420,10.495,20.232,41.337,10.312
Thu Dec 05 12:53:45 2024,425,-20.470,20.470,-7.316,-7.316,-1.665,22.667,7.733,6.207,27.441,13.324,-0.028,21.482,10.614,20.324,41.434,10.392
Thu Dec 05 12:53:45 2024,430,-19.927,19.927,-8.146,-8.146,-1.643,22.629,7.685,6.232,27.434,13.459,-0.070,21.347,10.674,20.367,41.462,10.453
Thu Dec 05 12:53:45 2024,435,-19.379,19.379,-8.797,-8.797,-1.647,22.530,7.638,6.236,27.401,13.607,-0.145,21.105,10.689,20.374,41.443,10.493
Thu Dec 05 12:53:45 2024,440,-18.741,-18.741,-9.443,-9.443,-1.657,22.409,7.591,6.204,27.336,13.726,-0.235,20.896,10.701,20.342,41.373,10.477
Thu Dec 05 12:53:45 2024,445,-18.054,-18.054,-9.936,-9.936,-1.674,22.270,7.552,6.102,27.216,13.754,-0.326,20.796,10.702,20.236,41.215,10.343
Thu Dec 05 12:53:45 2024,450,-17.470,-17.470,-10.332,-10.332,-1.689,22.178,7.521,6.022,27.112,13.764,-0.398,20.730,10.701,20.142,41.079,10.244
Thu Dec 05 12:53:45 2024,455,-16.753,-16.753,-10.651,-10.651,-1.721,22.183,7.496,5.958,26.974,13.677,-0.450,20.672,10.683,19.993,40.905,10.230
Thu Dec 05 12:53:45 2024,460,-16.166,-16.166,-10.897,-10.897,-1.750,22.196,7.476,5.908,26.860,13.598,-0.490,20.639,10.665,19.867,40.761,10.225
Thu Dec 05 12:53:45 2024,465,-15.317,-15.317,-11.022,-11.022,-1.858,22.201,7.430,5.793,26.701,13.572,-0.591,20.623,10.593,19.727,-0.570,10.078
Thu Dec 05 12:53:45 2024,470,-14.550,-14.550,-11.098,-11.098,-1.969,22.220,7.384,5.681,26.557,13.564,-0.690,20.691,10.520,19.605,-0.398,9.921
Thu Dec 05 12:53:45 2024,475,-13.914,-13.914,-11.071,-11.071,-2.123,22.293,7.400,5.548,26.414,13.542,-0.792,20.795,10.480,19.440,-0.199,9.797
Thu Dec 05 12:53:45 2024,480,-13.304,-13.304,-10.976,-10.976,-2.318,22.419,7.456,5.390,26.254,13.507,-0.905,20.905,10.454,19.234,0.034,9.681
Thu Dec 05 12:53:45 2024,485,-12.752,-12.752,-10.912,-10.912,-2.470,22.516,7.478,5.264,26.095,13.452,-0.998,20.999,10.419,19.078,0.212,9.574
Thu Dec 05 12:53:45 2024,490,-12.253,-12.253,-10.898,-10.898,-2.558,22.566,7.438,5.185,25.925,13.355,-1.069,21.078,10.360,19.001,0.308,9.470
Thu Dec 05 12:53:45 2024,495,-11.848,-11.848,-10.878,-10.878,-2.641,22.641,7.424,5.119,25.799,13.294,-1.121,21.137,10.313,18.940,0.384,9.369
Thu Dec 05 12:53:45 2024,500,-11.718,-11.718,-10.841,-10.841,-2.703,22.703,7.487,5.100,25.806,13.342,-1.111,21.117,10.304,18.935,0.398,9.281
Thu Dec 05 12:53:45 2024,505,-11.564,-11.564,-10.794,-10.794,-2.773,22.772,7.550,5.078,25.806,13.388,-1.095,21.096,10.290,18.928,0.418,9.180
Thu Dec 05 12:53:45 2024,510,-11.405,-11.405,-10.731,-10.731,-2.783,22.787,7.494,5.068,25.718,13.320,-1.050,18.921,10.242,18.907,0.458,9.126
Thu Dec 05 12:53:45 2024,515,-11.262,-11.262,-10.668,-10.668,-2.781,22.805,7.417,5.061,25.620,13.232,-1.002,18.890,10.190,18.884,0.501,9.085
Thu Dec 05 12:53:45 2024,520,-11.143,-11.143,-10.592,-10.592,-2.814,22.855,7.395,5.058,25.559,13.140,-0.901,19.003,10.211,18.847,0.561,9.067
Thu Dec 05 12:53:45 2024,525,-11.065,-11.065,-10.521,-10.521,-2.856,22.905,7.400,5.058,25.522,13.061,-0.793,19.166,10.260,18.810,0.618,9.062
Thu Dec 05 12:53:45 2024,530,-11.015,-11.015,-10.430,-10.430,-2.882,22.934,7.418,5.062,25.517,13.029,-0.724,19.256,10.270,18.808,0.642,9.028
Thu Dec 05 12:53:45 2024,535,-10.989,-10.989,-10.324,-10.324,-2.886,22.935,7.448,5.068,25.546,13.048,-0.704,19.272,10.235,18.844,0.626,8.966
Thu Dec 05 12:53:45 2024,540,-10.960,-10.960,-10.232,-10.232,-2.889,22.933,7.486,5.076,25.574,13.069,-0.675,19.508,10.229,18.883,0.599,8.933
Thu Dec 05 12:53:45 2024,545,-10.905,-10.905,-10.200,-10.200,-2.885,22.912,7.555,5.090,25.599,13.095,-0.616,20.622,10.340,18.933,0.531,9.019
Thu Dec 05 12:53:45 2024,550,-10.867,-10.867,-10.172,-10.172,-2.878,22.894,7.618,5.103,25.619,13.120,-0.560,20.636,10.444,18.976,0.473,9.102
Thu Dec 05 12:53:45 2024,555,-10.872,-10.872,-10.130,-10.130,-2.841,22.855,7.633,5.105,25.607,13.150,-0.526,20.553,10.436,18.962,0.515,9.094
Thu Dec 05 12:53:45 2024,560,-10.883,-10.883,-10.090,-10.090,-2.797,22.811,7.636,5.107,25.592,13.179,-0.492,20.496,10.407,18.942,0.569,9.067
Thu Dec 05 12:53:45 2024,565,-10.855,-10.855,-10.117,-10.117,-2.732,22.743,7.582,5.115,25.609,13.172,-0.441,20.445,10.385,18.977,0.543,9.011
Thu Dec 05 12:53:45 2024,570,-10.818,-10.818,-10.164,-10.164,-2.659,22.666,7.509,5.127,25.634,13.153,-0.383,20.418,10.366,19.028,0.494,8.945
Thu Dec 05 12:53:45 2024,575,-10.802,-10.802,-10.144,-10.144,-2.601,22.609,7.480,5.092,25.603,13.158,-0.320,20.414,10.394,19.017,0.505,8.922
Thu Dec 05 12:53:45 2024,580,-10.813,-10.813,-10.064,-10.064,-2.560,22.570,7.490,5.019,25.522,13.183,-0.254,20.423,10.464,18.950,0.570,8.938
Thu Dec 05 12:53:45 2024,585,-10.833,-10.833,-10.027,-10.027,-2.486,22.499,7.500,4.991,25.491,13.224,-0.170,20.421,10.523,18.895,0.619,8.963
Thu Dec 05 12:53:45 2024,590,-10.859,-10.859,-10.052,-10.052,-2.359,22.373,7.512,5.030,25.535,13.289,-0.054,20.389,10.564,18.854,0.647,9.004
Thu Dec 05 12:53:45 2024,595,-10.881,-10.881,-10.073,-10.073,-2.248,22.259,7.515,5.068,25.578,13.338,0.044,20.395,10.594,18.822,0.666,9.025
Thu Dec 05 12:53:45 2024,600,-10.899,-10.899,-10.034,-10.034,-2.211,22.212,7.472,5.050,25.563,13.314,0.132,20.491,10.596,18.810,0.677,8.944
Thu Dec 05 12:53:45 2024,605,-10.901,-10.901,-9.950,-9.950,-2.108,22.116,7.470,5.060,25.598,13.350,0.223,20.618,10.636,18.806,0.659,8.944
Thu Dec 05 12:53:45 2024,610,-10.896,-10.896,-9.840,-9.840,-1.959,21.981,7.494,5.088,25.666,13.426,0.328,20.766,10.700,18.806,0.624,8.992
Thu Dec 05 12:53:45 2024,615,-10.873,-10.873,-9.682,-9.682,-1.720,21.791,7.574,5.158,25.803,13.583,0.450,20.939,10.814,18.815,0.554,9.149
Thu Dec 05 12:53:45 2024,620,-10.874,-10.874,-9.560,-9.560,-1.378,21.647,7.782,5.221,25.881,13.661,0.552,21.085,10.885,18.761,0.582,9.227
Thu Dec 05 12:53:45 2024,625,-10.891,-10.891,-9.470,-9.470,-0.990,21.712,8.066,5.274,25.912,13.678,0.633,21.199,10.921,18.667,0.674,9.245
Thu Dec 05 12:53:45 2024,630,-10.913,-10.913,-9.367,-9.367,-0.350,22.136,8.472,5.339,25.930,13.731,0.734,21.310,10.974,18.545,0.787,9.304
Thu Dec 05 12:53:45 2024,635,-10.933,-10.933,-9.286,-9.286,0.407,22.829,8.898,5.397,25.922,13.814,0.824,21.377,11.032,18.430,0.888,9.398
Thu Dec 05 12:53:45 2024,640,-10.958,-10.958,-9.202,-9.202,1.473,24.005,9.436,5.478,25.927,13.934,0.949,21.452,11.093,18.271,1.034,9.500
Thu Dec 05 12:53:45 2024,645,-10.976,-10.976,-9.207,-9.207,2.712,25.244,9.804,5.569,25.971,14.084,1.090,21.469,11.090,18.094,1.228,9.507
Thu Dec 05 12:53:45 2024,650,-10.994,-10.994,-9.214,-9.214,4.015,26.640,10.190,5.665,26.019,14.242,1.237,21.510,11.088,17.910,1.430,9.517
Thu Dec 05 12:53:45 2024,655,-11.177,-11.177,-9.014,-9.014,5.440,28.537,11.326,5.765,20.018,14.170,1.538,21.811,11.298,17.614,1.772,9.708
Thu Dec 05 12:53:45 2024,660,-11.360,-11.360,-8.816,-8.816,6.653,30.202,12.418,5.847,14.109,14.072,1.814,22.103,11.510,17.350,2.079,9.898
Thu Dec 05 12:53:45 2024,665,-11.504,-11.504,-8.785,-8.785,8.070,32.305,14.526,5.941,14.055,13.940,2.028,22.274,11.467,17.049,2.465,9.941
Thu Dec 05 12:53:45 2024,670,-11.602,-11.602,-8.863,-8.863,9.453,34.421,17.079,6.030,13.965,13.803,2.172,22.352,11.268,16.763,2.846,9.885
Thu Dec 05 12:53:45 2024,675,-11.703,-11.703,-8.904,-8.904,10.620,36.482,20.330,6.246,13.736,13.759,2.404,22.541,11.115,16.550,3.157,9.798
Thu Dec 05 12:53:45 2024,680,-11.816,-11.816,-8.874,-8.874,11.372,38.466,24.951,6.711,13.279,13.883,2.798,22.921,11.043,16.466,3.344,9.659
Thu Dec 05 12:53:45 2024,685,-11.912,-11.912,-8.836,-8.836,11.902,40.314,29.235,7.123,12.874,13.993,3.140,23.260,10.998,16.413,3.456,9.514
Thu Dec 05 12:53:45 2024,690,-11.992,-11.992,-8.733,-8.733,11.818,42.810,34.768,7.600,12.396,14.120,3.501,23.668,11.038,16.470,3.380,9.239
Thu Dec 05 12:53:45 2024,695,-12.056,-12.056,-8.649,-8.649,11.743,44.930,39.575,7.980,11.998,14.215,3.788,23.996,11.073,16.522,3.309,9.016
Thu Dec 05 12:53:45 2024,700,-12.059,-12.059,-8.755,-8.755,11.504,47.578,46.540,8.242,11.698,14.529,4.025,24.231,11.221,16.641,3.154,8.992
Thu Dec 05 12:53:45 2024,705,-12.051,-12.051,-8.890,-8.890,11.230,50.415,54.736,8.496,11.381,14.872,4.259,24.467,11.392,16.766,2.989,8.980
Thu Dec 05 12:53:45 2024,710,-12.001,-12.001,-9.016,-9.016,10.822,52.213,61.074,8.702,11.073,15.141,4.424,24.698,11.577,16.824,2.910,8.884
Thu Dec 05 12:53:45 2024,715,-11.935,-11.935,-9.143,-9.143,10.282,53.391,66.548,8.891,29.274,15.370,4.550,24.956,11.783,16.839,2.887,8.725
Thu Dec 05 12:53:45 2024,720,-11.787,-11.787,-9.298,-9.298,9.853,53.683,69.299,9.087,29.617,15.657,4.623,25.099,11.917,16.817,2.914,8.595
Thu Dec 05 12:53:45 2024,725,-11.549,-11.549,-9.478,-9.478,9.550,53.050,69.074,9.283,29.928,15.999,4.639,25.110,11.974,16.758,2.990,8.496
Thu Dec 05 12:53:45 2024,730,-11.311,-11.311,-9.633,-9.633,9.464,52.712,68.727,9.527,30.354,16.372,4.680,25.154,11.988,16.694,3.068,8.378
Thu Dec 05 12:53:45 2024,735,-11.195,-11.195,-9.643,-9.643,9.978,53.323,68.250,9.776,30.856,16.614,4.765,25.260,11.886,16.651,3.109,8.266
Thu Dec 05 12:53:45 2024,740,-11.052,-11.052,-9.647,-9.647,10.634,54.183,67.796,10.096,31.533,16.927,4.871,25.394,11.758,16.589,3.171,8.119
Thu Dec 05 12:53:45 2024,745,-11.018,-11.018,-9.556,-9.556,11.083,55.524,69.105,10.359,32.012,17.105,4.910,25.444,11.691,16.477,3.280,7.968
Thu Dec 05 12:53:45 2024,750,-10.985,-10.985,-9.463,-9.463,11.552,56.894,70.438,10.626,32.507,17.289,4.949,25.496,11.624,16.362,3.391,7.815
Thu Dec 05 12:53:45 2024,755,-10.911,-10.911,-9.403,-9.403,11.679,59.097,73.600,10.856,33.080,17.569,5.050,25.691,11.718,16.215,3.516,7.758
Thu Dec 05 12:53:45 2024,760,-10.832,-10.832,-9.367,-9.367,11.634,61.623,77.562,11.044,33.657,17.882,5.176,25.954,11.892,16.064,3.634,7.757
Thu Dec 05 12:53:45 2024,765,-10.772,-10.772,-9.338,-9.338,11.418,64.268,81.514,11.178,34.218,18.234,5.303,26.194,12.078,15.936,3.750,7.750
Thu Dec 05 12:53:45 2024,770,-10.727,-10.727,-9.318,-9.318,11.138,66.731,84.967,11.259,34.709,18.577,5.418,26.388,12.250,15.837,3.850,7.740
Thu Dec 05 12:53:45 2024,775,-10.668,-10.668,-9.267,-9.267,11.046,69.622,88.612,11.366,35.264,18.928,5.574,26.622,12.455,15.736,3.961,7.748
Thu Dec 05 12:53:45 2024,780,-10.592,-10.592,-9.163,-9.163,11.283,72.292,91.490,11.491,35.736,19.153,5.766,26.860,12.657,15.667,4.055,7.789
Thu Dec 05 12:53:45 2024,785,-10.514,-10.514,-9.048,-9.048,11.747,75.172,94.185,11.639,36.259,19.397,5.962,27.104,12.862,15.591,4.155,7.827
Thu Dec 05 12:53:45 2024,790,-10.469,-10.469,-8.844,-8.844,12.718,77.512,95.226,12.026,37.015,19.632,6.052,27.227,12.883,15.484,4.275,7.776
Thu Dec 05 12:53:45 2024,795,-10.426,-10.426,-8.658,-8.658,13.709,79.705,96.064,12.384,37.718,19.858,6.135,27.342,12.904,15.386,4.386,7.729
Thu Dec 05 12:53:45 2024,800,-10.373,-10.373,-8.480,-8.480,14.464,81.552,96.425,12.653,38.334,20.277,6.201,27.448,12.998,15.274,4.516,7.600
Thu Dec 05 12:53:45 2024,805,-10.330,-10.330,-8.341,-8.341,15.033,82.932,96.564,12.844,38.804,20.667,6.248,27.531,13.093,15.182,4.623,7.479
Thu Dec 05 12:53:45 2024,810,-10.357,-10.357,-8.196,-8.196,15.539,83.953,96.694,13.009,39.232,20.999,6.306,27.677,13.291,15.075,4.738,7.493
Thu Dec 05 12:53:45 2024,815,-10.408,-10.408,-8.082,-8.082,15.900,84.595,96.791,13.126,39.546,21.231,6.356,27.819,13.488,14.985,4.830,7.560
Thu Dec 05 12:53:45 2024,820,-10.465,-10.465,-7.947,-7.947,16.366,85.337,96.835,13.264,39.906,21.505,6.414,28.015,13.729,14.896,4.921,7.625
Thu Dec 05 12:53:45 2024,825,-10.504,-10.504,-7.842,-7.842,16.791,85.865,96.729,13.368,40.157,21.712,6.458,28.229,13.928,14.864,4.953,7.647
Thu Dec 05 12:53:45 2024,830,-10.556,-10.556,-7.733,-7.733,17.217,86.387,96.647,13.472,40.397,21.920,6.499,28.428,14.118,14.840,4.976,7.680
Thu Dec 05 12:53:45 2024,835,-10.690,-10.690,-7.581,-7.581,17.684,86.965,96.709,13.596,40.612,22.161,6.540,28.555,14.289,14.856,4.954,7.790
Thu Dec 05 12:53:45 2024,840,-10.827,-10.827,-7.424,-7.424,18.181,87.564,96.766,13.727,40.838,22.414,6.584,28.689,14.467,14.871,4.932,7.900
Thu Dec 05 12:53:45 2024,845,-10.880,-10.880,-7.360,-7.360,18.481,87.831,96.781,13.836,41.000,22.564,6.673,28.808,14.500,14.827,4.990,7.803
Thu Dec 05 12:53:45 2024,850,-10.942,-10.942,-7.284,-7.284,18.842,88.146,96.794,13.964,41.192,22.742,6.779,28.950,14.540,14.775,5.058,7.690
Thu Dec 05 12:53:45 2024,855,-11.018,-11.018,-7.132,-7.132,19.175,88.419,96.790,14.066,41.334,22.911,6.779,28.965,14.532,14.723,5.128,7.632
Thu Dec 05 12:53:45 2024,860,-11.102,-11.102,-6.931,-6.931,19.501,88.672,96.774,14.153,41.451,23.077,6.718,28.906,14.496,14.670,5.200,7.606
Thu Dec 05 12:53:45 2024,865,-11.180,-11.180,-6.791,-6.791,19.703,88.836,96.709,14.200,41.539,23.200,6.703,28.915,14.498,14.604,5.280,7.575
Thu Dec 05 12:53:45 2024,870,-11.248,-11.248,-6.721,-6.721,19.761,88.902,96.598,14.202,41.593,23.270,6.734,28.991,14.538,14.526,5.362,7.543
Thu Dec 05 12:53:45 2024,875,-11.319,-11.319,-6.644,-6.644,19.854,89.016,96.483,14.238,41.655,23.347,6.766,29.028,14.555,14.474,5.423,7.509
Thu Dec 05 12:53:45 2024,880,-11.341,-11.341,-6.607,-6.607,19.958,89.160,96.445,14.323,41.689,23.385,6.778,28.945,14.505,14.519,5.384,7.495
Thu Dec 05 12:53:45 2024,885,-11.368,-11.368,-6.555,-6.555,20.104,89.355,96.386,14.440,41.729,23.427,6.796,28.833,14.429,14.584,5.329,7.472
Thu Dec 05 12:53:45 2024,890,-11.342,-11.342,-6.533,-6.533,20.118,89.310,96.310,14.430,41.644,23.325,6.823,28.825,14.374,14.602,5.313,7.443
Thu Dec 05 12:53:45 2024,895,-11.306,-11.306,-6.503,-6.503,20.138,89.248,96.205,14.417,41.527,23.186,6.859,28.815,14.298,14.627,5.290,7.403
Thu Dec 05 12:53:45 2024,900,-11.308,-11.308,-6.538,-6.538,19.910,88.928,96.270,14.358,41.360,23.074,6.877,28.818,14.326,14.656,5.272,7.382
Thu Dec 05 12:53:45 2024,905,-11.323,-11.323,-6.599,-6.599,19.564,88.461,96.396,14.276,41.144,22.948,6.892,28.826,14.391,14.690,5.250,7.363
Thu Dec 05 12:53:45 2024,910,-11.327,-11.327,-6.632,-6.632,19.095,87.974,96.490,14.175,41.018,22.787,6.882,28.856,14.397,14.742,5.202,7.353
Thu Dec 05 12:53:45 2024,915,-11.323,-11.323,-6.645,-6.645,18.482,87.422,96.558,14.050,40.960,22.581,6.849,28.908,14.352,14.814,5.126,7.350
Thu Dec 05 12:53:45 2024,920,-11.321,-11.321,-6.656,-6.656,17.999,86.979,96.605,13.950,40.913,22.415,6.824,28.951,14.316,14.873,5.065,7.348
Thu Dec 05 12:53:45 2024,925,-11.228,-11.228,-6.703,-6.703,17.241,86.046,96.627,13.800,40.719,22.239,6.861,29.221,14.487,14.899,5.048,7.415
Thu Dec 05 12:53:45 2024,930,-11.171,-11.171,-6.734,-6.734,16.736,85.421,96.636,13.697,40.594,22.113,6.882,29.397,14.589,14.921,5.031,7.456
Thu Dec 05 12:53:45 2024,935,-11.187,-11.187,-6.677,-6.677,16.053,84.538,96.591,13.469,40.359,21.864,6.824,29.505,14.672,14.920,5.030,7.571
Thu Dec 05 12:53:45 2024,940,-11.210,-11.210,-6.615,-6.615,15.466,83.755,96.532,13.258,40.146,21.637,6.764,29.589,14.739,14.915,5.033,7.679
Thu Dec 05 12:53:45 2024,945,-11.226,-11.226,-6.698,-6.698,14.749,82.602,96.346,13.043,39.959,21.365,6.686,29.637,14.736,14.927,5.026,7.663
Thu Dec 05 12:53:45 2024,950,-11.236,-11.236,-6.806,-6.806,14.144,81.557,96.134,12.865,39.814,21.131,6.617,29.668,14.715,14.940,5.019,7.616
Thu Dec 05 12:53:45 2024,955,-11.246,-11.246,-6.904,-6.904,13.615,80.610,95.920,12.704,39.684,20.921,6.555,29.698,14.696,14.951,5.012,7.573
Thu Dec 05 12:53:45 2024,960,-11.252,-11.252,-6.968,-6.968,13.278,79.988,95.773,12.598,39.598,20.783,6.514,29.718,14.682,14.958,5.009,7.545
Thu Dec 05 12:53:45 2024,965,-11.241,-11.241,-6.789,-6.789,11.635,75.328,92.964,12.434,39.148,20.311,6.428,29.851,14.396,15.248,4.712,7.498
Thu Dec 05 12:53:45 2024,970,-11.241,-11.241,-6.767,-6.767,11.062,73.562,91.799,12.325,38.961,20.095,6.379,29.908,14.298,15.344,4.615,7.467
Thu Dec 05 12:53:45 2024,975,-11.230,-11.230,-6.748,-6.748,10.386,71.318,90.014,12.192,38.728,19.803,6.316,29.990,14.162,15.458,4.498,7.414
Thu Dec 05 12:53:45 2024,980,-11.095,-11.095,-6.822,-6.822,9.426,68.281,85.839,12.072,38.479,19.242,6.224,30.152,13.878,15.524,4.426,7.222
Thu Dec 05 12:53:45 2024,985,-10.994,-10.994,-6.888,-6.888,8.756,65.968,82.398,11.982,38.289,18.801,6.154,30.288,13.652,15.571,4.374,7.064
Thu Dec 05 12:53:45 2024,990,-10.988,-10.988,-6.867,-6.867,7.791,64.151,80.264,11.798,37.707,18.458,6.124,30.070,13.628,15.519,4.428,7.164
Thu Dec 05 12:53:45 2024,995,-11.004,-11.004,-6.825,-6.825,6.820,62.510,78.509,11.592,37.042,18.152,6.105,29.770,13.656,15.443,4.508,7.328
Thu Dec 05 12:53:46 2024,0,-11.044,-11.044,-6.701,-6.701,6.726,62.324,78.286,11.468,36.640,17.807,6.198,29.664,13.546,15.460,4.493,7.349
Thu Dec 05 12:53:46 2024,5,-11.108,-11.108,-6.523,-6.523,7.140,62.995,78.965,11.388,36.377,17.423,6.360,29.671,13.349,15.534,4.421,7.285
Thu Dec 05 12:53:46 2024,10,-11.108,-11.108,-6.260,-6.260,7.722,62.559,76.293,11.312,36.163,17.279,6.369,29.547,13.211,15.512,4.432,7.333
Thu Dec 05 12:53:46 2024,15,-11.022,-11.022,-5.721,-5.721,9.025,60.201,66.607,11.217,35.935,17.485,6.127,29.138,13.119,15.310,4.589,7.601
Thu Dec 05 12:53:46 2024,20,-11.001,-11.001,-5.249,-5.249,10.216,58.396,58.710,11.140,35.742,17.667,5.926,28.788,13.048,15.129,4.720,7.832
Thu Dec 05 12:53:46 2024,25,-10.850,-10.850,-4.976,-4.976,9.998,54.654,47.522,10.472,34.607,17.021,5.191,28.117,12.805,14.498,5.286,7.888
Thu Dec 05 12:53:46 2024,30,-10.785,-10.785,-4.773,-4.773,9.923,52.032,40.301,9.992,33.765,16.534,4.649,27.624,12.626,14.023,5.702,7.938
Thu Dec 05 12:53:46 2024,35,-10.564,-10.564,-4.635,-4.635,9.531,49.192,33.940,9.350,32.802,16.156,4.438,27.365,12.347,13.876,5.817,8.045
Thu Dec 05 12:53:46 2024,40,-10.340,-10.340,-4.532,-4.532,9.159,46.677,28.822,8.752,31.926,15.839,4.324,27.188,12.085,13.816,5.853,8.160
Thu Dec 05 12:53:46 2024,45,-10.176,-10.176,-4.452,-4.452,8.516,44.542,24.979,8.201,31.117,15.588,4.381,27.160,11.995,13.849,5.786,8.180
Thu Dec 05 12:53:46 2024,50,-10.053,-10.053,-4.390,-4.390,7.747,42.727,22.004,7.701,30.381,15.388,4.538,27.227,12.009,13.935,5.660,8.143
Thu Dec 05 12:53:46 2024,55,-9.930,-9.930,-4.357,-4.357,7.090,41.171,19.602,7.301,29.688,15.183,4.667,27.287,12.065,14.064,5.493,8.137
Thu Dec 05 12:53:46 2024,60,-9.794,-9.794,-4.372,-4.372,6.543,39.902,17.836,7.039,29.012,14.953,4.758,27.338,12.197,14.284,5.239,8.180
Thu Dec 05 12:53:46 2024,65,-9.658,-9.658,-4.410,-4.410,6.061,38.741,16.348,6.812,28.431,14.699,4.836,27.339,12.268,14.441,5.052,8.189
Thu Dec 05 12:53:46 2024,70,-9.511,-9.511,-4.518,-4.518,5.677,37.712,15.329,6.661,28.008,14.353,4.882,27.201,12.172,14.448,34.971,8.107
Thu Dec 05 12:53:46 2024,75,-9.408,-9.408,-4.580,-4.580,5.337,36.813,14.463,6.511,27.646,14.045,4.888,27.079,12.098,14.461,35.006,8.059
Thu Dec 05 12:53:46 2024,80,-9.326,-9.326,-4.595,-4.595,4.917,35.730,13.450,6.298,27.210,13.659,4.834,26.928,12.026,14.490,35.074,8.041
Thu Dec 05 12:53:46 2024,85,-9.277,-9.277,-4.564,-4.564,4.508,34.689,12.504,6.069,26.798,13.280,4.736,26.778,11.969,14.528,35.162,8.056
Thu Dec 05 12:53:46 2024,90,-9.186,-9.186,-4.514,-4.514,4.051,33.568,11.606,5.804,26.356,12.856,4.653,26.702,11.918,14.567,35.229,8.042
Thu Dec 05 12:53:46 2024,95,-9.094,-9.094,-4.464,-4.464,3.652,32.603,10.886,5.568,25.984,12.486,4.592,26.672,11.876,14.599,35.274,8.017
Thu Dec 05 12:53:46 2024,100,-9.000,-9.000,-4.413,-4.413,3.287,31.712,10.285,5.382,25.712,12.223,4.526,26.626,11.822,14.645,35.344,8.003
Thu Dec 05 12:53:46 2024,105,-8.892,-8.892,-4.350,-4.350,2.900,30.749,9.725,5.229,25.511,12.048,4.444,26.546,11.738,14.719,35.463,8.000
Thu Dec 05 12:53:46 2024,110,-8.825,-8.825,-4.298,-4.298,2.587,29.976,9.281,5.106,25.351,11.909,4.377,26.483,11.671,14.778,35.560,7.998
Thu Dec 05 12:53:46 2024,115,-8.714,-8.714,-4.214,-4.214,2.075,29.083,8.938,5.043,25.320,11.723,4.473,26.779,11.551,14.985,35.797,7.941
Thu Dec 05 12:53:46 2024,120,-8.655,-8.655,-4.152,-4.152,1.693,28.415,8.670,4.991,25.291,11.584,4.537,26.987,11.462,15.135,35.971,7.901
Thu Dec 05 12:53:46 2024,125,-8.642,-8.642,-4.146,-4.146,1.325,27.803,8.470,4.924,25.185,11.413,4.557,27.089,11.397,15.120,35.978,7.820
Thu Dec 05 12:53:46 2024,130,-8.645,-8.645,-4.144,-4.144,1.027,27.315,8.313,4.869,25.095,11.272,4.570,27.163,11.347,15.097,35.971,7.751
Thu Dec 05 12:53:46 2024,135,-8.670,-8.670,-4.093,-4.093,0.761,27.013,8.231,4.853,25.055,11.141,4.621,27.283,11.287,15.096,35.997,7.742
Thu Dec 05 12:53:46 2024,140,-8.706,-8.706,-4.009,-4.009,0.530,26.854,8.204,4.866,25.051,11.022,4.698,27.430,11.223,15.111,36.047,7.774
Thu Dec 05 12:53:46 2024,145,-8.759,-8.759,-3.932,-3.932,0.338,26.630,8.142,4.854,17.518,10.893,4.796,27.534,11.169,15.098,36.026,7.729
Thu Dec 05 12:53:46 2024,150,-8.826,-8.826,-3.856,-3.856,0.173,26.354,8.058,4.824,15.062,10.753,4.911,27.617,11.119,15.066,35.960,7.632
Thu Dec 05 12:53:46 2024,155,-8.874,-8.874,-3.806,-3.806,-0.119,26.082,7.975,4.774,15.149,10.626,4.992,27.666,11.079,15.019,35.892,7.570
Thu Dec 05 12:53:46 2024,160,-8.856,-8.856,-3.838,-3.838,-0.227,25.787,7.891,4.660,15.307,10.532,4.956,27.611,11.070,14.923,35.819,7.637
Thu Dec 05 12:53:46 2024,165,-8.844,-8.844,-3.860,-3.860,-0.343,25.560,7.825,4.572,15.417,10.458,4.933,27.573,11.062,14.850,35.762,7.685
Thu Dec 05 12:53:46 2024,170,-8.993,-8.993,-3.798,-3.798,-0.507,25.412,7.874,4.522,15.474,10.360,4.984,27.695,10.998,14.860,35.764,7.606
Thu Dec 05 12:53:46 2024,175,-9.111,-9.111,-3.748,-3.748,-0.629,25.316,7.916,4.489,15.510,10.291,5.025,27.793,10.949,14.873,35.769,7.540
Thu Dec 05 12:53:46 2024,180,-9.193,-9.193,-3.754,-3.754,-0.728,25.130,7.865,4.409,15.590,10.161,5.037,27.762,10.860,14.828,35.696,7.450
Thu Dec 05 12:53:46 2024,185,-9.242,-9.242,-3.782,-3.782,-0.798,24.946,7.785,4.328,15.666,10.035,5.034,27.684,10.776,14.768,35.607,7.368
Thu Dec 05 12:53:46 2024,190,-9.297,-9.297,-3.766,-3.766,-0.882,24.741,7.716,4.220,15.751,9.907,5.036,27.565,10.692,14.745,35.560,7.304
Thu Dec 05 12:53:46 2024,195,-9.338,-9.338,-3.716,-3.716,-0.952,24.583,7.679,4.123,15.810,9.818,5.040,27.447,10.636,14.762,35.567,7.276
Thu Dec 05 12:53:46 2024,200,-9.376,-9.376,-3.678,-3.678,-1.002,24.444,7.652,4.027,15.843,9.716,5.037,27.352,10.605,14.780,35.587,7.289
Thu Dec 05 12:53:46 2024,205,-9.404,-9.404,-3.680,-3.680,-0.982,24.362,7.659,3.939,15.833,9.575,5.012,27.334,10.650,14.799,35.652,7.442
Thu Dec 05 12:53:46 2024,210,-9.426,-9.426,-3.682,-3.682,-0.967,24.305,7.665,3.878,15.806,9.475,4.993,27.322,10.683,14.812,35.699,7.553
Thu Dec 05 12:53:46 2024,215,-9.456,-9.456,-3.533,-3.533,-0.887,24.210,7.632,3.860,15.832,9.473,4.966,27.276,10.644,14.841,35.724,7.530
Thu Dec 05 12:53:46 2024,220,-9.485,-9.485,-3.400,-3.400,-0.817,24.126,7.602,3.845,15.856,9.472,4.941,27.234,10.608,14.867,35.747,7.509
Thu Dec 05 12:53:46 2024,225,-9.484,-9.484,-3.391,-3.391,-0.781,23.896,7.607,3.861,15.824,9.496,4.976,27.293,10.636,14.956,35.821,7.515
Thu Dec 05 12:53:46 2024,230,-9.476,-9.476,-3.409,-3.409,-0.753,23.627,7.620,3.884,15.780,9.527,5.027,27.377,10.679,15.062,35.909,7.528
Thu Dec 05 12:53:46 2024,235,-9.499,-9.499,-3.367,-3.367,-0.736,23.384,7.557,3.965,15.742,9.552,5.097,27.492,10.677,15.121,35.975,7.487
Thu Dec 05 12:53:46 2024,240,-9.549,-9.549,-3.272,-3.272,-0.730,23.169,7.427,4.095,15.696,9.571,5.183,27.636,10.633,15.138,36.021,7.396
Thu Dec 05 12:53:46 2024,245,-9.601,-9.601,-3.221,-3.221,-0.766,22.917,7.341,4.214,15.643,9.615,5.296,27.814,10.612,15.179,36.069,7.301
Thu Dec 05 12:53:46 2024,250,-9.654,-9.654,-3.216,-3.216,-0.846,22.634,7.301,4.317,15.587,9.687,5.436,28.027,10.617,15.244,36.115,7.204
Thu Dec 05 12:53:46 2024,255,-9.724,-9.724,-3.204,-3.204,-0.938,22.322,7.239,4.450,15.497,9.762,5.606,28.274,10.616,15.306,36.158,7.088
Thu Dec 05 12:53:46 2024,260,-9.841,-9.841,-3.162,-3.162,-1.023,22.009,7.101,4.659,15.324,9.798,5.820,28.547,10.582,15.309,36.149,6.939
Thu Dec 05 12:53:46 2024,265,-9.939,-9.939,-3.126,-3.126,-1.087,21.784,6.987,4.832,15.165,9.826,5.993,28.765,10.553,15.309,36.140,6.820
Thu Dec 05 12:53:46 2024,270,-10.056,-10.056,-3.095,-3.095,-0.976,21.571,6.934,5.007,14.994,9.927,6.078,28.843,10.546,15.339,36.177,6.767
Thu Dec 05 12:53:46 2024,275,-10.168,-10.168,-3.067,-3.067,-0.839,21.376,6.898,5.168,14.828,10.034,6.137,28.886,10.542,15.372,36.220,6.733
Thu Dec 05 12:53:46 2024,280,-10.255,-10.255,-2.982,-2.982,-0.505,21.323,7.015,5.316,14.673,10.094,6.246,28.985,10.544,15.354,36.211,6.712
Thu Dec 05 12:53:46 2024,285,-10.322,-10.322,-2.887,-2.887,-0.138,21.452,7.178,5.440,14.542,10.128,6.360,29.092,10.547,15.318,36.184,6.699
Thu Dec 05 12:53:46 2024,290,-10.412,-10.412,-2.761,-2.761,0.327,21.739,7.328,5.529,14.445,10.183,6.438,29.110,10.532,15.316,36.181,6.723
Thu Dec 05 12:53:46 2024,295,-10.559,-10.559,-2.560,-2.560,1.047,22.339,7.478,5.573,14.397,10.285,6.467,28.973,10.484,15.372,36.220,6.818
Thu Dec 05 12:53:46 2024,300,-10.657,-10.657,-2.364,-2.364,1.788,23.064,7.611,5.619,14.356,10.374,6.520,28.845,10.462,15.356,36.180,6.890
Thu Dec 05 12:53:46 2024,305,-10.651,-10.651,-2.109,-2.109,2.867,24.205,7.749,5.687,14.308,10.458,6.665,28.696,10.507,15.134,35.904,6.924
Thu Dec 05 12:53:46 2024,310,-10.649,-10.649,-1.918,-1.918,3.677,25.091,7.848,5.738,14.262,10.521,6.775,28.596,10.541,14.968,35.697,6.951
Thu Dec 05 12:53:46 2024,315,-10.668,-10.668,-1.713,-1.713,4.700,26.433,8.307,5.741,14.235,10.516,6.953,28.640,10.737,14.733,35.479,7.271
Thu Dec 05 12:53:46 2024,320,-10.688,-10.688,-1.550,-1.550,5.536,27.568,8.734,5.739,14.168,10.500,7.107,28.703,10.920,14.537,35.305,7.572
Thu Dec 05 12:53:46 2024,325,-10.642,-10.642,-1.505,-1.505,6.193,28.489,9.060,5.784,14.083,10.576,7.204,28.676,10.928,14.457,35.239,7.701
Thu Dec 05 12:53:46 2024,330,-10.558,-10.558,-1.513,-1.513,6.858,29.439,9.384,5.861,13.990,10.708,7.286,28.606,10.850,14.422,35.218,7.762
Thu Dec 05 12:53:46 2024,335,-10.540,-10.540,-1.493,-1.493,7.384,30.210,9.861,5.878,13.961,10.903,7.333,28.566,10.864,14.407,35.167,7.810
Thu Dec 05 12:53:46 2024,340,-10.572,-10.572,-1.441,-1.441,7.961,31.074,10.637,5.849,13.980,11.220,7.361,28.536,10.964,14.404,35.077,7.862
Thu Dec 05 12:53:46 2024,345,-10.619,-10.619,-1.454,-1.454,8.632,32.095,11.687,5.876,13.947,11.551,7.348,28.416,10.996,14.408,34.969,7.896
Thu Dec 05 12:53:46 2024,350,-10.685,-10.685,-1.588,-1.588,9.360,33.224,13.064,6.002,13.822,11.848,7.259,28.156,10.899,14.418,5.150,7.894
Thu Dec 05 12:53:46 2024,355,-10.762,-10.762,-1.741,-1.741,10.197,34.547,14.766,6.158,13.670,12.167,7.164,27.895,10.793,14.421,5.270,7.895
Thu Dec 05 12:53:46 2024,360,-10.847,-10.847,-1.913,-1.913,10.985,36.123,17.375,6.401,13.453,12.334,7.141,27.832,10.708,14.371,5.378,7.909
Thu Dec 05 12:53:46 2024,365,-10.951,-10.951,-2.123,-2.123,11.968,38.077,20.682,6.697,13.184,12.536,7.112,27.757,10.607,14.309,5.503,7.928
Thu Dec 05 12:53:46 2024,370,-11.104,-11.104,-2.291,-2.291,12.751,40.190,25.150,7.121,12.789,12.252,7.121,27.705,10.289,14.209,5.682,7.864
Thu Dec 05 12:53:46 2024,375,-11.273,-11.273,-2.456,-2.456,13.544,42.467,30.461,7.584,12.349,11.840,7.140,27.660,9.910,14.090,5.864,7.778
Thu Dec 05 12:53:46 2024,380,-11.455,-11.455,-2.645,-2.645,13.936,45.657,37.549,8.160,11.823,11.666,7.315,27.864,9.672,14.134,5.834,7.540
Thu Dec 05 12:53:46 2024,385,-11.591,-11.591,-2.793,-2.793,13.954,48.616,44.308,8.636,11.364,11.686,7.538,28.168,9.592,14.273,5.685,7.272
Thu Dec 05 12:53:46 2024,390,-11.748,-11.748,-3.004,-3.004,13.660,51.578,52.331,9.132,10.842,11.842,7.804,28.525,9.676,14.441,5.506,7.062
Thu Dec 05 12:53:46 2024,395,-11.899,-11.899,-3.278,-3.278,12.738,53.394,59.733,9.507,10.409,12.237,8.066,28.864,10.083,14.608,5.331,7.044
Thu Dec 05 12:53:46 2024,400,-12.035,-12.035,-3.573,-3.573,11.816,55.198,67.264,9.858,9.972,12.622,8.302,29.162,10.460,14.778,5.155,7.008
Thu Dec 05 12:53:46 2024,405,-12.015,-12.015,-3.851,-3.851,11.467,54.966,68.053,9.903,9.876,12.831,8.241,29.049,10.439,14.887,5.052,6.873
Thu Dec 05 12:53:46 2024,410,-11.998,-11.998,-4.146,-4.146,11.096,54.721,68.896,9.951,9.766,13.054,8.176,28.932,10.417,15.003,4.944,6.731
Thu Dec 05 12:53:46 2024,415,-11.909,-11.909,-4.240,-4.240,11.316,54.764,68.250,10.114,30.508,13.220,8.089,28.789,10.280,14.967,4.981,6.578
Thu Dec 05 12:53:46 2024,420,-11.813,-11.813,-4.299,-4.299,11.618,54.852,67.403,10.285,30.807,13.369,8.003,28.650,10.132,14.909,5.040,6.432
Thu Dec 05 12:53:46 2024,425,-11.640,-11.640,-4.244,-4.244,12.230,55.526,67.366,10.497,31.246,13.554,7.865,28.497,9.948,14.773,5.175,6.302
Thu Dec 05 12:53:46 2024,430,-11.491,-11.491,-4.146,-4.146,12.788,56.274,67.794,10.649,31.608,13.690,7.750,28.393,9.815,14.644,5.302,6.231
Thu Dec 05 12:53:46 2024,435,-11.360,-11.360,-4.002,-4.002,13.295,57.248,68.729,10.802,32.002,13.841,7.628,28.270,9.682,14.495,5.449,6.197
Thu Dec 05 12:53:46 2024,440,-11.271,-11.271,-3.768,-3.768,13.673,58.683,70.787,10.955,32.430,14.013,7.494,28.110,9.555,14.309,5.633,6.248
Thu Dec 05 12:53:46 2024,445,-11.196,-11.196,-3.572,-3.572,13.974,60.109,72.933,11.080,32.824,14.175,7.377,27.994,9.482,14.163,5.776,6.299
Thu Dec 05 12:53:46 2024,450,-11.110,-11.110,-3.425,-3.425,14.093,62.165,76.372,11.171,33.242,14.370,7.270,27.986,9.569,14.096,5.833,6.378
Thu Dec 05 12:53:46 2024,455,-11.030,-11.030,-3.270,-3.270,14.255,64.428,80.110,11.265,33.705,14.581,7.156,27.986,9.663,14.025,5.892,6.462
Thu Dec 05 12:53:46 2024,460,-10.900,-10.900,-3.202,-3.202,13.793,66.990,84.254,11.440,34.307,14.760,7.125,28.026,9.724,13.942,5.975,6.562
Thu Dec 05 12:53:46 2024,465,-10.791,-10.791,-3.153,-3.153,13.362,69.409,87.859,11.605,34.871,14.921,7.106,28.068,9.776,13.867,6.051,6.652
Thu Dec 05 12:53:46 2024,470,-10.710,-10.710,-2.998,-2.998,13.436,72.094,91.145,11.809,35.512,15.092,7.102,28.131,9.812,13.770,6.156,6.716
Thu Dec 05 12:53:46 2024,475,-10.657,-10.657,-2.799,-2.799,13.841,74.778,93.923,12.019,36.155,15.260,7.106,28.201,9.839,13.669,6.270,6.761
Thu Dec 05 12:53:46 2024,480,-10.597,-10.597,-2.657,-2.657,14.371,77.380,95.984,12.232,36.725,15.392,7.067,28.213,9.828,13.562,6.392,6.772
Thu Dec 05 12:53:46 2024,485,-10.545,-10.545,-2.596,-2.596,14.832,79.191,96.999,12.391,37.078,15.456,7.004,28.175,9.791,13.481,6.486,6.752
Thu Dec 05 12:53:46 2024,490,-10.490,-10.490,-2.528,-2.528,15.450,81.283,98.017,12.570,37.482,15.534,6.932,28.131,9.749,13.389,6.590,6.730
Thu Dec 05 12:53:46 2024,495,-10.385,-10.385,-2.486,-2.486,15.991,82.339,98.374,12.630,37.646,15.724,6.894,28.258,9.998,13.298,6.675,6.888
Thu Dec 05 12:53:46 2024,500,-10.286,-10.286,-2.439,-2.439,16.659,83.667,98.809,12.717,37.864,15.919,6.845,28.375,10.228,13.196,6.774,7.031
Thu Dec 05 12:53:46 2024,505,-10.277,-10.277,-2.447,-2.447,17.184,84.413,99.073,12.854,38.013,15.953,6.809,28.328,10.216,13.135,6.838,6.995
Thu Dec 05 12:53:46 2024,510,-10.271,-10.271,-2.456,-2.456,17.746,85.194,99.331,12.996,38.169,15.989,6.773,28.279,10.204,13.071,6.905,6.957
Thu Dec 05 12:53:46 2024,515,-10.253,-10.253,-2.298,-2.298,18.276,85.953,99.640,13.120,38.340,16.092,6.773,28.300,10.266,12.978,7.002,6.997
Thu Dec 05 12:53:46 2024,520,-10.234,-10.234,-2.087,-2.087,18.667,86.527,99.900,13.205,38.481,16.208,6.793,28.353,10.354,12.892,7.090,7.068
Thu Dec 05 12:53:46 2024,525,-10.203,-10.203,-1.952,-1.952,19.136,87.067,100.100,13.308,38.674,16.372,6.823,28.438,10.476,12.829,7.155,7.135
Thu Dec 05 12:53:46 2024,530,-10.166,-10.166,-1.933,-1.933,19.580,87.436,100.185,13.407,38.881,16.553,6.858,28.539,10.608,12.808,7.177,7.182
Thu Dec 05 12:53:46 2024,535,-10.147,-10.147,-1.876,-1.876,20.009,87.844,100.269,13.466,39.047,16.707,6.865,28.624,10.732,12.767,7.219,7.253
Thu Dec 05 12:53:46 2024,540,-10.160,-10.160,-1.772,-1.772,20.284,88.199,100.333,13.441,39.098,16.774,6.826,28.658,10.809,12.701,7.282,7.344
Thu Dec 05 12:53:46 2024,545,-10.173,-10.173,-1.667,-1.667,20.574,88.570,100.394,13.414,39.150,16.844,6.785,28.696,10.888,12.633,7.347,7.439
Thu Dec 05 12:53:46 2024,550,-10.152,-10.152,-1.728,-1.728,20.590,88.660,100.266,13.429,39.241,16.932,6.706,28.702,10.928,12.541,7.450,7.358
Thu Dec 05 12:53:46 2024,555,-10.131,-10.131,-1.804,-1.804,20.574,88.714,100.126,13.448,39.328,17.016,6.630,28.706,10.960,12.453,7.544,7.264
Thu Dec 05 12:53:46 2024,560,-10.143,-10.143,-1.740,-1.740,20.567,88.837,100.057,13.450,39.412,17.078,6.634,28.813,11.079,12.365,7.633,7.302
Thu Dec 05 12:53:46 2024,565,-10.173,-10.173,-1.644,-1.644,20.563,88.985,99.996,13.447,39.502,17.140,6.654,28.951,11.227,12.272,7.726,7.373
Thu Dec 05 12:53:46 2024,570,-10.199,-10.199,-1.573,-1.573,20.560,89.099,99.945,13.446,39.570,17.189,6.670,29.060,11.343,12.201,7.798,7.427
Thu Dec 05 12:53:46 2024,575,-10.302,-10.302,-1.965,-1.965,20.104,88.741,100.014,13.327,39.477,17.212,6.629,29.189,11.375,12.268,7.732,7.315
Thu Dec 05 12:53:46 2024,580,-10.356,-10.356,-2.196,-2.196,19.596,88.351,99.895,13.254,39.483,17.223,6.602,29.317,11.402,12.281,7.718,7.225
Thu Dec 05 12:53:46 2024,585,-10.338,-10.338,-2.283,-2.283,18.885,87.747,99.503,13.224,39.593,17.193,6.576,29.416,11.368,12.259,7.740,7.114
Thu Dec 05 12:53:46 2024,590,-10.323,-10.323,-2.377,-2.377,18.148,87.104,99.066,13.193,39.710,17.160,6.547,29.522,11.332,12.236,7.762,6.996
Thu Dec 05 12:53:46 2024,595,-10.301,-10.301,-2.482,-2.482,17.654,86.467,98.735,13.166,39.682,17.064,6.618,29.718,11.358,12.358,7.641,7.016
Thu Dec 05 12:53:46 2024,600,-10.277,-10.277,-2.591,-2.591,17.243,85.829,98.431,13.140,39.605,16.948,6.722,29.943,11.406,12.528,7.472,7.081
Thu Dec 05 12:53:46 2024,605,-10.316,-10.316,-2.670,-2.670,16.629,84.771,98.075,13.066,39.403,16.820,6.813,30.064,11.295,12.697,7.303,7.010
Thu Dec 05 12:53:46 2024,610,-10.379,-10.379,-2.709,-2.709,16.130,83.814,97.797,12.988,39.182,16.721,6.877,30.095,11.135,12.826,7.174,6.896
Thu Dec 05 12:53:46 2024,615,-10.460,-10.460,-2.694,-2.694,15.438,82.335,97.222,12.852,38.889,16.595,6.950,30.175,11.016,12.975,7.025,6.783
Thu Dec 05 12:53:46 2024,620,-10.531,-10.531,-2.637,-2.637,14.823,80.878,96.542,12.710,38.625,16.485,7.009,30.271,10.967,13.095,6.905,6.703
Thu Dec 05 12:53:46 2024,625,-10.575,-10.575,-2.613,-2.613,14.192,79.124,95.574,12.550,38.324,16.385,7.070,30.324,10.881,13.237,6.762,6.605
Thu Dec 05 12:53:46 2024,630,-10.570,-10.570,-2.646,-2.646,13.712,77.451,94.470,12.408,38.054,16.329,7.114,30.296,10.766,13.370,6.630,6.507
Thu Dec 05 12:53:46 2024,635,-10.572,-10.572,-2.679,-2.679,13.286,75.776,93.249,12.263,37.781,16.273,7.158,30.267,10.649,13.504,6.494,6.408
Thu Dec 05 12:53:46 2024,640,-10.504,-10.504,-2.865,-2.865,12.384,73.004,90.222,12.261,37.616,16.067,7.216,30.486,10.539,13.588,6.409,6.139
Thu Dec 05 12:53:46 2024,645,-10.473,-10.473,-3.005,-3.005,11.801,71.002,87.863,12.258,37.492,15.918,7.259,30.649,10.456,13.652,6.345,5.940
Thu Dec 05 12:53:46 2024,650,-10.439,-10.439,-3.176,-3.176,10.815,68.605,84.673,12.166,37.092,15.829,7.297,30.671,10.473,13.611,6.387,5.679
Thu Dec 05 12:53:46 2024,655,-10.420,-10.420,-3.316,-3.316,10.017,66.714,82.043,12.072,36.726,15.775,7.325,30.659,10.507,13.558,6.442,5.464
Thu Dec 05 12:53:46 2024,660,-10.485,-10.485,-3.453,-3.453,9.178,65.339,80.616,11.960,36.225,15.682,7.536,30.798,10.759,13.503,6.497,5.499
Thu Dec 05 12:53:46 2024,665,-10.589,-10.589,-3.550,-3.550,8.531,64.656,80.334,11.863,35.778,15.592,7.807,30.998,11.083,13.461,6.537,5.687
Thu Dec 05 12:53:46 2024,670,-10.563,-10.563,-3.401,-3.401,8.875,63.666,77.581,11.784,35.428,15.524,7.994,31.056,11.207,13.441,6.556,5.862
Thu Dec 05 12:53:46 2024,675,-10.416,-10.416,-3.056,-3.056,10.153,62.765,73.231,11.754,35.280,15.498,8.044,30.963,11.099,13.449,6.550,5.970
Thu Dec 05 12:53:46 2024,680,-10.249,-10.249,-2.658,-2.658,11.671,61.836,68.208,11.723,35.113,15.470,8.106,30.862,10.980,13.459,6.541,6.097
Thu Dec 05 12:53:46 2024,685,-9.875,-9.875,-2.053,-2.053,11.714,57.483,54.948,10.996,34.263,15.048,7.235,29.988,10.803,12.773,7.208,6.330
Thu Dec 05 12:53:46 2024,690,-9.634,-9.634,-1.507,-1.507,11.977,54.131,45.040,10.393,33.529,14.683,6.520,29.245,10.646,12.180,7.754,6.535
Thu Dec 05 12:53:46 2024,695,-9.395,-9.395,-1.460,-1.460,11.313,50.634,37.628,9.609,32.201,14.298,6.157,28.899,10.686,11.915,7.999,6.773
Thu Dec 05 12:53:46 2024,700,-9.211,-9.211,-1.456,-1.456,10.823,47.979,32.469,9.006,31.160,13.985,5.896,28.653,10.727,11.727,8.172,6.965
Thu Dec 05 12:53:46 2024,705,-9.055,-9.055,-1.370,-1.370,10.059,45.005,27.090,8.272,30.009,13.640,5.732,28.438,10.732,11.659,8.205,7.159
Thu Dec 05 12:53:46 2024,710,-9.006,-9.006,-1.162,-1.162,9.010,42.508,22.697,7.560,29.070,13.381,5.822,28.367,10.668,11.846,7.948,7.280
Thu Dec 05 12:53:46 2024,715,-8.961,-8.961,-1.042,-1.042,8.039,39.955,18.797,6.875,27.975,13.055,5.891,28.299,10.744,12.030,7.705,7.388
Thu Dec 05 12:53:46 2024,720,-8.973,-8.973,-1.018,-1.018,7.378,38.330,16.726,6.464,27.175,12.802,5.974,28.295,10.948,12.215,7.495,7.418
Thu Dec 05 12:53:46 2024,725,-8.998,-8.998,-1.027,-1.027,6.639,36.664,14.808,6.063,26.492,12.423,6.000,28.297,11.112,12.444,7.221,7.410
Thu Dec 05 12:53:46 2024,730,-9.039,-9.039,-1.064,-1.064,5.815,34.918,12.940,5.659,25.870,11.936,5.982,28.306,11.246,12.715,6.887,7.370
Thu Dec 05 12:53:46 2024,735,-9.092,-9.092,-1.110,-1.110,5.172,33.626,11.666,5.372,14.515,11.520,5.936,28.317,11.321,12.938,33.398,7.318
Thu Dec 05 12:53:46 2024,740,-9.141,-9.141,-1.208,-1.208,4.575,32.231,10.674,5.131,14.851,11.033,5.927,28.356,11.376,13.168,33.696,7.441
Thu Dec 05 12:53:46 2024,745,-9.195,-9.195,-1.292,-1.292,4.118,31.140,9.938,4.947,15.050,10.654,5.924,28.390,11.417,13.347,33.933,7.552
Thu Dec 05 12:53:46 2024,750,-9.294,-9.294,-1.340,-1.340,3.588,29.854,9.343,4.740,15.209,10.412,5.763,28.252,11.426,13.517,34.150,7.597
Thu Dec 05 12:53:46 2024,755,-9.394,-9.394,-1.367,-1.367,3.123,28.723,8.907,4.558,15.291,10.260,5.572,28.078,11.421,13.653,34.321,7.608
Thu Dec 05 12:53:46 2024,760,-9.511,-9.511,-1.404,-1.404,2.626,27.674,8.546,4.381,15.342,10.104,5.454,28.016,11.424,13.817,34.530,7.622
Thu Dec 05 12:53:46 2024,765,-9.636,-9.636,-1.454,-1.454,2.143,26.969,8.394,4.248,15.404,9.968,5.511,28.206,11.446,14.014,34.784,7.636
Thu Dec 05 12:53:46 2024,770,-9.758,-9.758,-1.498,-1.498,1.697,26.289,8.230,4.118,15.446,9.840,5.540,28.348,11.464,14.191,35.012,7.648
Thu Dec 05 12:53:46 2024,775,-9.784,-9.784,-1.485,-1.485,1.382,25.668,7.991,3.998,15.349,9.485,5.454,28.119,11.222,14.148,34.964,7.548
Thu Dec 05 12:53:46 2024,780,-9.820,-9.820,-1.482,-1.482,1.114,25.177,7.812,3.899,15.266,9.234,5.401,27.985,11.065,14.142,34.962,7.484
Thu Dec 05 12:53:46 2024,785,-9.896,-9.896,-1.343,-1.343,0.798,24.516,7.749,3.799,15.273,9.185,5.323,28.040,11.066,14.132,34.971,7.472
Thu Dec 05 12:53:46 2024,790,-9.949,-9.949,-1.243,-1.243,0.581,24.066,7.710,3.730,15.280,9.160,5.270,28.089,11.075,14.125,34.978,7.467
Thu Dec 05 12:53:46 2024,795,-10.145,-10.145,-1.203,-1.203,0.245,23.487,7.573,3.572,15.370,9.035,5.106,27.958,10.929,14.185,35.050,7.402
Thu Dec 05 12:53:46 2024,800,-10.390,-10.390,-1.200,-1.200,-0.116,22.952,7.405,3.390,15.488,8.875,4.908,27.754,10.725,14.271,35.145,7.314
Thu Dec 05 12:53:46 2024,805,-10.624,-10.624,-1.157,-1.157,-0.403,22.482,7.260,3.218,15.546,8.711,4.754,27.614,10.580,14.349,35.227,7.233
Thu Dec 05 12:53:46 2024,810,-10.898,-10.898,-1.074,-1.074,-0.706,21.996,7.103,3.015,15.557,8.510,4.601,27.493,10.448,14.435,35.315,7.142
Thu Dec 05 12:53:46 2024,815,-11.117,-11.117,-1.008,-1.008,-0.948,21.697,6.978,2.854,15.556,8.352,4.480,27.399,10.345,14.503,35.384,7.069
Thu Dec 05 12:53:46 2024,820,-11.455,-11.455,-0.772,-0.772,-1.261,21.467,6.752,2.644,15.274,8.002,4.371,26.911,9.988,14.532,35.318,6.880
Thu Dec 05 12:53:46 2024,825,-11.722,-11.722,-0.613,-0.613,-1.520,21.537,6.581,2.470,15.062,7.742,4.272,26.578,9.737,14.564,35.292,6.741
Thu Dec 05 12:53:46 2024,830,-12.151,12.151,-0.403,-0.403,-1.803,21.806,6.480,2.385,14.912,7.499,4.238,26.571,9.630,14.715,35.456,6.638
Thu Dec 05 12:53:46 2024,835,-12.531,12.531,-0.280,0.280,-2.052,22.096,6.388,2.306,14.770,7.282,4.205,26.551,9.529,14.843,35.594,6.546
Thu Dec 05 12:53:46 2024,840,-12.866,12.866,-0.253,0.253,-2.359,17.513,6.304,2.243,14.638,7.141,4.269,26.574,9.424,14.932,35.670,6.370
Thu Dec 05 12:53:46 2024,845,-13.157,13.157,-0.236,-0.236,-2.642,17.133,6.228,2.190,14.522,7.030,4.344,26.602,9.330,15.003,35.726,6.199
Thu Dec 05 12:53:46 2024,850,-13.456,13.456,-0.215,-0.006,-2.830,16.852,6.162,2.153,14.370,6.883,4.424,26.612,9.235,15.077,35.788,6.084
Thu Dec 05 12:53:46 2024,855,-13.781,13.781,-0.192,0.192,-2.970,16.618,6.097,2.124,14.187,6.703,4.514,26.615,9.133,15.158,35.860,5.999
Thu Dec 05 12:53:46 2024,860,-14.060,14.060,-0.178,0.178,-3.164,16.296,6.053,2.047,13.975,6.527,4.581,26.595,9.025,15.207,35.866,5.902
Thu Dec 05 12:53:46 2024,865,-14.270,14.270,-0.266,0.266,-3.483,15.774,6.050,1.871,13.690,6.350,4.610,26.528,8.902,15.193,35.747,5.778
Thu Dec 05 12:53:46 2024,870,-14.472,14.472,-0.406,0.406,-3.785,15.273,6.044,1.705,13.411,6.183,4.635,26.467,8.786,15.181,4.357,5.659
Thu Dec 05 12:53:46 2024,875,-14.670,14.670,0.471,0.471,-3.992,15.075,6.087,1.708,13.604,6.226,4.586,26.525,8.738,15.186,4.320,5.662
Thu Dec 05 12:53:46 2024,880,-14.826,14.826,0.526,0.526,-4.158,14.908,6.119,1.704,13.738,6.252,4.552,26.568,8.697,15.189,20.004,5.659
Thu Dec 05 12:53:46 2024,885,-14.919,14.919,0.487,0.487,-4.320,14.727,6.128,1.815,13.789,6.283,4.577,26.549,8.620,15.282,4.238,5.581
Thu Dec 05 12:53:46 2024,890,-14.979,14.979,0.437,0.437,-4.450,14.578,6.131,1.929,13.809,6.309,4.611,26.520,8.552,15.376,4.184,5.502
Thu Dec 05 12:53:46 2024,895,-15.061,15.061,0.492,0.492,-4.556,14.404,6.148,2.038,13.902,6.369,4.584,26.496,8.518,15.393,4.172,5.513
Thu Dec 05 12:53:46 2024,900,-15.165,15.165,0.633,0.633,-4.654,14.195,6.176,2.152,14.051,6.458,4.510,26.474,8.506,15.356,4.191,5.591
Thu Dec 05 12:53:46 2024,905,-15.227,15.227,0.774,0.774,-4.662,14.099,6.168,2.334,14.236,6.592,4.470,26.432,8.480,15.354,4.190,5.614
Thu Dec 05 12:53:46 2024,910,-15.245,15.245,0.934,0.934,-4.556,14.135,6.111,2.627,14.474,6.804,4.467,26.360,8.432,15.395,4.163,5.570
Thu Dec 05 12:53:46 2024,915,-15.289,15.289,1.117,1.117,-4.444,14.165,6.066,2.918,14.664,7.015,4.464,26.309,8.410,15.435,4.135,5.552
Thu Dec 05 12:53:46 2024,920,-15.439,15.439,1.392,1.392,-4.318,14.182,6.072,3.180,14.782,7.213,4.457,26.345,8.499,15.466,4.103,5.639
Thu Dec 05 12:53:46 2024,925,-15.575,15.575,1.653,1.653,-4.214,14.191,6.074,3.384,14.879,7.381,4.442,26.363,8.569,15.487,4.084,5.709
Thu Dec 05 12:53:46 2024,930,-15.713,15.713,2.029,2.029,-4.164,14.198,6.038,3.447,15.112,7.531,4.368,26.258,8.558,15.465,4.123,5.709
Thu Dec 05 12:53:46 2024,935,-15.870,15.870,2.476,2.476,-4.117,14.206,5.990,3.489,15.384,7.699,4.272,26.114,8.529,15.432,4.178,5.694
Thu Dec 05 12:53:46 2024,940,-16.144,16.144,3.072,3.072,-3.992,14.312,6.014,3.780,15.500,8.014,4.222,25.966,8.561,15.472,4.132,5.758
Thu Dec 05 12:53:46 2024,945,-16.485,16.485,3.771,3.771,-3.826,14.465,6.069,4.192,15.459,8.413,4.188,25.807,8.620,15.545,4.041,5.859
Thu Dec 05 12:53:46 2024,950,-16.717,16.717,4.181,4.181,-3.646,14.690,6.092,4.690,15.258,8.938,4.151,25.689,8.685,15.713,3.830,6.006
Thu Dec 05 12:53:46 2024,955,-16.823,16.823,4.303,4.303,-3.501,14.910,6.089,5.115,14.875,9.423,4.122,25.626,8.738,15.902,3.588,6.148
Thu Dec 05 12:53:46 2024,960,-17.003,17.003,4.417,4.417,-3.335,15.194,6.096,5.701,20.230,10.128,4.072,25.493,8.816,16.127,3.314,6.312
Thu Dec 05 12:53:46 2024,965,-17.299,17.299,4.405,4.405,-3.237,15.458,6.134,6.399,27.157,11.010,3.986,25.221,8.908,16.286,3.170,6.408
Thu Dec 05 12:53:46 2024,970,-17.605,17.605,4.392,4.392,-3.139,15.723,6.172,7.099,28.525,11.909,3.898,24.951,9.002,16.447,3.023,6.506
Thu Dec 05 12:53:46 2024,975,-17.571,17.571,4.441,4.441,-2.924,16.035,6.204,7.950,30.288,13.005,3.984,24.996,9.184,16.588,2.919,6.514
Thu Dec 05 12:53:46 2024,980,-17.551,17.551,4.488,4.488,-2.712,16.350,6.238,8.791,32.128,14.107,4.065,25.030,9.366,16.732,2.810,6.526
Thu Dec 05 12:53:46 2024,985,-17.471,17.471,4.644,4.644,-2.434,16.574,6.345,9.561,33.704,15.415,4.126,25.097,9.681,16.797,2.808,6.582
Thu Dec 05 12:53:46 2024,990,-17.358,17.358,4.865,4.865,-2.077,16.808,6.495,10.486,35.576,17.091,4.194,25.187,10.102,16.855,2.826,6.664
Thu Dec 05 12:53:46 2024,995,-17.251,17.251,4.982,4.982,-1.746,16.859,6.672,11.299,37.273,19.328,4.201,25.362,10.647,16.906,2.817,6.822
Thu Dec 05 12:53:47 2024,0,-17.115,17.115,5.029,5.029,-1.328,16.678,6.938,12.283,39.399,23.106,4.138,25.721,11.508,16.967,2.780,7.115
Thu Dec 05 12:53:47 2024,5,-17.038,17.038,5.181,5.181,-1.073,16.175,7.060,13.139,41.275,26.390,4.135,26.363,12.031,16.996,2.754,7.186
Thu Dec 05 12:53:47 2024,10,-17.026,17.026,5.492,5.492,-1.015,15.253,6.997,13.914,42.985,29.384,4.216,27.488,12.158,16.982,2.742,6.962
Thu Dec 05 12:53:47 2024,15,-17.034,17.034,5.831,5.831,-1.019,14.236,6.889,14.722,44.572,32.454,4.260,28.876,12.248,16.935,2.768,6.723
Thu Dec 05 12:53:47 2024,20,-17.179,17.179,6.208,6.208,-1.541,13.221,6.570,15.134,43.810,31.966,4.087,31.074,11.948,16.685,3.073,6.494
Thu Dec 05 12:53:47 2024,25,-17.322,17.322,6.550,6.550,-2.044,12.293,6.268,15.514,43.020,31.112,3.910,33.166,11.620,16.450,3.358,6.283
Thu Dec 05 12:53:47 2024,30,-17.276,17.276,6.909,6.909,-2.544,11.315,5.841,16.401,42.304,29.639,3.632,34.834,12.040,16.101,3.730,6.128
Thu Dec 05 12:53:47 2024,35,-17.208,17.208,7.178,7.178,-2.912,10.580,5.510,17.189,41.909,28.337,3.397,35.995,12.537,15.814,4.029,6.027
Thu Dec 05 12:53:47 2024,40,-17.153,17.153,7.319,7.319,-2.904,10.291,5.522,17.673,42.040,28.504,3.352,37.043,13.462,15.762,4.102,6.001
Thu Dec 05 12:53:47 2024,45,-17.098,17.098,7.375,7.375,-2.614,10.307,5.790,17.955,42.508,29.832,3.451,38.086,14.811,15.886,4.008,6.031
Thu Dec 05 12:53:47 2024,50,-17.280,17.280,7.424,7.424,-2.490,10.560,6.074,18.054,43.505,31.641,3.564,39.403,16.174,16.166,3.720,5.972
Thu Dec 05 12:53:47 2024,55,-17.778,17.778,7.460,7.460,-2.605,11.124,6.365,17.902,45.327,34.058,3.699,40.999,17.464,16.647,3.176,5.789
Thu Dec 05 12:53:47 2024,60,-18.311,18.311,7.495,7.495,-2.648,11.724,6.710,17.861,47.565,36.783,3.780,42.633,18.981,17.161,2.591,5.686
Thu Dec 05 12:53:47 2024,65,-18.699,18.699,7.513,7.513,-2.357,12.178,7.074,18.283,49.565,39.115,3.513,43.454,20.367,17.514,2.221,6.017
Thu Dec 05 12:53:47 2024,70,-19.111,19.111,7.530,7.530,-2.042,12.655,7.477,18.739,51.753,41.666,3.237,44.358,21.970,17.890,1.830,6.379
Thu Dec 05 12:53:47 2024,75,-19.228,19.228,7.511,7.511,-1.653,12.822,7.883,18.904,53.181,44.407,3.009,45.000,23.807,18.064,1.734,6.886
Thu Dec 05 12:53:47 2024,80,-19.334,19.334,7.494,7.494,-1.304,12.956,8.256,19.050,54.494,46.969,2.817,45.595,25.568,18.223,1.634,7.351
Thu Dec 05 12:53:47 2024,85,-19.383,19.383,7.503,7.503,-0.861,12.930,8.579,19.266,55.912,49.913,2.626,46.396,27.491,18.296,1.619,7.799
Thu Dec 05 12:53:47 2024,90,-19.389,19.389,7.527,7.527,-0.416,12.783,8.839,19.501,57.253,52.841,2.483,47.251,29.363,18.310,1.650,8.190
Thu Dec 05 12:53:47 2024,95,-19.426,19.426,7.558,7.558,0.185,12.753,9.188,20.154,58.875,56.176,2.386,48.431,31.618,18.320,1.669,8.602
Thu Dec 05 12:53:47 2024,100,-19.491,19.491,7.592,7.592,0.474,12.879,9.566,21.184,60.483,59.356,2.437,49.748,33.892,18.321,1.679,8.956
Thu Dec 05 12:53:47 2024,105,-19.617,19.617,7.696,7.696,0.983,13.135,10.128,22.558,62.713,63.867,-2.788,51.724,37.403,18.294,1.706,9.446
Thu Dec 05 12:53:47 2024,110,-19.798,19.798,7.903,7.903,1.463,13.547,10.679,23.574,64.589,67.675,-3.213,53.691,40.828,18.209,1.785,9.849
Thu Dec 05 12:53:47 2024,115,-20.007,20.007,8.140,8.140,2.007,13.955,11.318,24.780,66.750,72.123,-3.767,55.974,45.091,18.114,1.872,10.313
Thu Dec 05 12:53:47 2024,120,-20.087,20.087,8.444,8.444,2.738,14.322,11.795,24.886,68.506,75.882,-4.243,57.736,48.264,18.053,1.940,10.724
Thu Dec 05 12:53:47 2024,125,-20.151,20.151,8.711,8.711,3.366,14.512,12.203,24.911,70.015,78.974,-4.674,59.216,51.006,18.004,1.994,11.074
Thu Dec 05 12:53:47 2024,130,-20.241,20.241,8.947,8.947,3.907,14.683,12.636,24.507,71.335,82.093,-5.026,60.573,53.717,17.973,2.026,11.331
Thu Dec 05 12:53:47 2024,135,-20.357,20.357,9.180,9.180,4.427,14.770,13.108,23.799,72.649,85.333,-5.354,61.937,56.607,17.953,2.046,11.547
Thu Dec 05 12:53:47 2024,140,-20.463,20.463,9.435,9.435,4.809,14.740,13.469,23.341,73.752,87.652,-5.653,63.169,58.908,18.002,1.999,11.857
Thu Dec 05 12:53:47 2024,145,-20.603,20.603,9.825,9.825,5.220,14.608,13.881,22.944,75.110,90.137,-6.068,64.818,61.601,18.139,1.857,12.409
Thu Dec 05 12:53:47 2024,150,-20.727,20.727,10.170,10.170,5.576,14.385,14.252,22.596,76.328,92.249,-6.473,66.281,63.985,18.259,1.720,12.906
Thu Dec 05 12:53:47 2024,155,-20.797,20.797,10.290,10.290,5.782,14.214,14.301,22.085,77.647,93.782,-6.795,67.510,65.662,18.303,1.661,13.261
Thu Dec 05 12:53:47 2024,160,-20.868,20.868,10.433,10.433,5.988,14.008,14.396,21.663,78.839,95.142,-7.137,68.661,67.275,18.353,1.592,13.606
Thu Dec 05 12:53:47 2024,165,-20.862,20.862,10.647,10.647,6.308,13.638,14.543,20.866,80.496,97.197,-7.618,70.190,69.852,18.564,1.362,13.909
Thu Dec 05 12:53:47 2024,170,-20.849,20.849,10.828,10.828,6.578,13.288,14.665,20.225,81.923,98.784,8.076,71.486,72.054,18.749,1.159,14.153
Thu Dec 05 12:53:47 2024,175,-20.830,20.830,11.017,11.017,6.908,12.815,14.732,19.705,83.777,100.362,8.726,73.143,74.917,18.866,1.005,14.569
Thu Dec 05 12:53:47 2024,180,-20.814,20.814,11.153,11.153,7.155,27.568,14.762,19.460,85.211,101.358,9.269,74.418,77.094,18.925,0.910,14.918
Thu Dec 05 12:53:47 2024,185,-20.793,20.793,11.258,11.258,7.394,28.012,14.798,19.466,87.251,102.380,10.141,76.232,79.947,19.037,0.741,15.270
Thu Dec 05 12:53:47 2024,190,-20.773,20.773,11.287,11.287,7.537,28.379,14.834,19.862,89.350,103.065,11.208,78.114,82.610,19.180,0.534,15.499
Thu Dec 05 12:53:47 2024,195,-20.754,20.754,11.314,11.314,7.666,28.734,14.869,20.478,91.269,103.501,12.315,79.856,84.899,19.308,0.340,15.714
Thu Dec 05 12:53:47 2024,200,-20.732,20.732,11.703,11.703,7.783,28.985,14.824,20.917,92.528,104.275,13.360,81.528,87.039,19.319,0.277,15.752
Thu Dec 05 12:53:47 2024,205,-20.712,20.712,11.948,11.948,7.878,29.202,14.791,21.463,93.615,104.708,14.264,82.855,88.579,19.346,0.203,15.794
Thu Dec 05 12:53:47 2024,210,-20.645,20.645,12.151,12.151,8.020,29.455,14.638,22.371,94.932,104.980,15.363,84.282,89.716,19.408,0.055,15.631
Thu Dec 05 12:53:47 2024,215,-20.584,20.584,12.339,12.339,8.150,29.690,14.494,23.322,96.156,105.176,16.447,85.610,90.691,19.465,-0.087,15.484
Thu Dec 05 12:53:47 2024,220,-20.719,20.719,12.293,12.293,8.309,30.063,14.409,25.202,98.152,105.764,18.503,87.748,92.427,19.459,-0.176,15.304
Thu Dec 05 12:53:47 2024,225,-20.886,20.886,12.196,12.196,8.450,30.413,14.354,27.096,100.000,106.283,20.595,89.730,93.902,19.440,-0.241,15.153
Thu Dec 05 12:53:47 2024,230,-20.910,20.910,12.002,12.002,8.552,30.614,14.236,29.051,101.745,106.525,22.595,91.208,95.004,19.437,40.341,15.205
Thu Dec 05 12:53:47 2024,235,-20.861,20.861,11.772,11.772,8.627,30.723,14.095,30.952,103.325,106.592,24.437,92.329,95.816,19.443,40.455,15.360
Thu Dec 05 12:53:47 2024,240,-20.811,20.811,11.515,11.515,8.709,30.845,13.937,33.227,105.094,106.596,26.603,93.587,96.578,19.447,40.588,15.537
Thu Dec 05 12:53:47 2024,245,-20.758,20.758,11.276,11.276,8.609,30.872,13.916,35.998,107.080,106.499,29.018,95.025,97.556,19.619,40.934,16.044
Thu Dec 05 12:53:47 2024,250,-20.715,20.715,11.029,11.029,8.545,30.922,13.866,38.969,109.054,106.322,31.538,96.448,98.315,19.757,41.250,16.504
Thu Dec 05 12:53:47 2024,255,-20.692,20.692,10.830,10.830,8.502,30.956,13.925,40.352,109.908,106.158,32.233,96.922,98.592,19.809,41.419,16.833
Thu Dec 05 12:53:47 2024,260,-20.672,20.672,10.641,10.641,8.461,30.989,13.972,41.828,110.794,105.989,33.045,97.440,98.868,19.863,41.593,17.154
Thu Dec 05 12:53:47 2024,265,-20.680,20.680,10.516,10.516,8.364,30.860,13.937,42.244,111.044,105.908,33.364,97.674,98.947,19.938,41.728,17.382
Thu Dec 05 12:53:47 2024,270,-20.694,20.694,10.390,10.390,8.254,30.708,13.892,42.585,111.249,105.832,33.656,97.896,99.012,20.016,41.870,17.618
Thu Dec 05 12:53:47 2024,275,-20.682,20.682,10.319,10.319,8.181,30.610,13.915,42.283,111.059,105.818,33.233,97.695,98.930,20.016,41.913,17.794
Thu Dec 05 12:53:47 2024,280,-20.659,20.659,10.275,10.275,8.127,30.542,13.969,41.697,110.692,105.831,32.496,97.304,98.769,19.977,41.908,17.935
Thu Dec 05 12:53:47 2024,285,-20.638,20.638,10.210,10.210,8.076,30.461,14.012,40.915,110.206,105.824,31.669,96.875,98.517,19.916,41.879,18.004
Thu Dec 05 12:53:47 2024,290,-20.619,20.619,10.104,10.104,8.022,30.352,14.042,39.728,109.470,105.782,30.592,96.333,98.089,19.810,41.807,17.963
Thu Dec 05 12:53:47 2024,295,-20.603,20.603,10.011,10.011,7.975,30.256,14.068,38.728,108.834,105.737,29.672,95.864,97.694,19.718,41.745,17.927
Thu Dec 05 12:53:47 2024,300,-20.614,20.614,10.106,10.106,7.834,30.113,14.235,36.728,107.499,105.564,27.623,94.673,96.852,19.394,41.424,17.835
Thu Dec 05 12:53:47 2024,305,-20.622,20.622,10.167,10.167,7.717,29.988,14.370,35.133,106.385,105.385,25.983,93.694,96.052,19.129,41.167,17.763
Thu Dec 05 12:53:47 2024,310,-20.581,20.581,10.161,10.161,7.663,29.883,14.361,33.675,105.295,105.256,24.785,92.708,95.139,18.893,40.936,17.544
Thu Dec 05 12:53:47 2024,315,-20.542,20.542,10.151,10.151,7.623,29.797,14.342,32.510,104.380,105.127,23.842,91.881,94.318,18.696,40.744,17.349
Thu Dec 05 12:53:47 2024,320,-20.456,20.456,10.125,10.125,7.526,29.658,14.311,30.842,103.008,104.917,22.530,90.616,93.164,18.410,40.488,17.118
Thu Dec 05 12:53:47 2024,325,-20.262,20.262,10.066,10.066,7.295,29.436,14.265,28.541,101.007,104.593,20.833,88.696,91.720,18.024,40.204,16.937
Thu Dec 05 12:53:47 2024,330,-20.130,20.130,10.007,10.007,7.103,29.367,14.478,25.842,98.249,103.938,18.918,86.271,89.028,17.646,40.080,17.123
Thu Dec 05 12:53:47 2024,335,-20.109,20.109,9.962,9.962,7.009,29.522,14.991,23.397,95.079,102.817,17.150,83.728,85.275,17.367,40.219,17.766
Thu Dec 05 12:53:47 2024,340,-20.002,20.002,9.966,9.966,6.915,29.554,15.392,21.587,91.797,101.200,15.515,81.169,81.103,17.062,40.226,18.241
Thu Dec 05 12:53:47 2024,345,-19.396,19.396,10.181,10.181,6.704,29.066,15.805,20.370,83.972,94.796,12.235,75.304,70.202,16.264,39.554,18.489
Thu Dec 05 12:53:47 2024,350,-18.933,18.933,10.348,10.348,6.543,28.692,16.128,20.888,78.113,87.725,10.114,70.887,61.911,15.642,39.032,18.712
Thu Dec 05 12:53:47 2024,355,-18.584,18.584,10.488,10.488,5.804,27.851,16.307,21.944,73.406,79.203,8.656,66.854,55.575,14.885,37.958,18.407
Thu Dec 05 12:53:47 2024,360,-18.251,18.251,10.622,10.622,5.051,27.015,16.473,23.007,69.206,70.587,7.416,63.013,50.064,14.131,36.875,18.092
Thu Dec 05 12:53:47 2024,365,-17.786,17.786,10.509,10.509,5.053,26.915,16.702,21.268,65.400,62.618,6.821,59.719,46.098,13.750,36.382,18.361
Thu Dec 05 12:53:47 2024,370,-17.340,17.340,10.341,10.341,5.267,27.037,16.928,19.186,62.271,56.442,6.544,56.996,43.205,13.519,36.115,18.771
Thu Dec 05 12:53:47 2024,375,-16.844,16.844,10.378,10.378,5.466,27.220,16.764,17.070,58.278,49.676,6.278,52.954,39.714,13.102,35.546,19.214
Thu Dec 05 12:53:47 2024,380,-16.411,16.411,10.637,10.637,5.600,27.423,16.189,15.371,54.232,43.711,6.129,48.396,36.228,12.573,34.775,19.579
Thu Dec 05 12:53:47 2024,385,-16.025,16.025,10.872,10.872,5.721,27.606,15.668,13.981,50.739,39.266,6.098,44.369,33.388,12.096,34.081,19.910
