Timestamp,Millis,thumb_tm_aa,thumb_tm_flex,thumb_mcp_aa,thumb_mcp_flex,index_mcp_aa,index_mcp_flex,index_pip,middle_mcp_aa,middle_mcp_flex,middle_pip,ring_mcp_aa,ring_mcp_flex,ring_pip,little_mcp_aa,little_mcp_flex,little_pip
Thu Dec 05 12:56:06 2024,670,-22.227,-22.227,4.628,4.628,0.374,23.129,9.266,3.494,24.029,11.748,-3.811,15.886,7.874,12.068,7.880,6.214
Thu Dec 05 12:56:06 2024,675,-22.229,-22.229,4.657,4.657,0.388,23.088,9.203,3.477,23.963,11.644,-3.802,15.852,7.813,12.029,7.902,6.143
Thu Dec 05 12:56:06 2024,680,-22.212,-22.212,4.693,4.693,0.399,23.088,9.210,3.514,24.008,11.652,-3.771,15.890,7.826,12.057,7.878,6.164
Thu Dec 05 12:56:06 2024,685,-22.187,-22.187,4.730,4.730,0.410,23.103,9.240,3.568,24.091,11.696,-3.734,15.953,7.863,12.108,7.839,6.217
Thu Dec 05 12:56:06 2024,690,-22.198,-22.198,4.738,4.738,0.397,23.110,9.238,3.568,24.109,11.710,-3.752,15.937,7.857,12.134,7.815,6.223
Thu Dec 05 12:56:06 2024,695,-22.228,-22.228,4.729,4.729,0.370,23.112,9.219,3.539,24.090,11.706,-3.798,15.881,7.828,12.143,7.801,6.204
Thu Dec 05 12:56:06 2024,700,-22.254,-22.254,4.747,4.747,0.364,23.098,9.199,3.523,24.084,11.701,-3.799,15.881,7.817,12.134,7.806,6.168
Thu Dec 05 12:56:06 2024,705,-22.273,-22.273,4.797,4.797,0.380,23.068,9.180,3.524,24.092,11.696,-3.745,15.945,7.828,12.102,7.832,6.112
Thu Dec 05 12:56:06 2024,710,-22.270,-22.270,4.800,4.800,0.388,23.048,9.165,3.536,24.104,11.699,-3.725,15.957,7.826,12.089,7.842,6.088
Thu Dec 05 12:56:06 2024,715,-22.240,-22.240,4.740,4.740,0.388,23.036,9.153,3.562,24.126,11.714,-3.744,15.902,7.806,12.096,7.836,6.099
Thu Dec 05 12:56:06 2024,720,-22.211,-22.211,4.690,4.690,0.392,23.036,9.146,3.580,24.136,11.724,-3.768,15.848,7.792,12.108,7.824,6.114
Thu Dec 05 12:56:06 2024,725,-22.204,-22.204,4.709,4.709,0.422,23.079,9.152,3.555,24.096,11.715,-3.786,15.837,7.807,12.119,7.812,6.120
Thu Dec 05 12:56:06 2024,730,-22.201,-22.201,4.741,4.741,0.448,23.123,9.153,3.532,24.066,11.698,-3.798,15.839,7.818,12.131,7.799,6.120
Thu Dec 05 12:56:06 2024,735,-22.202,-22.202,4.802,4.802,0.437,23.137,9.119,3.563,24.130,11.650,-3.782,15.888,7.787,12.140,7.792,6.090
Thu Dec 05 12:56:06 2024,740,-22.205,-22.205,4.870,4.870,0.417,23.146,9.075,3.606,24.214,11.592,-3.759,15.948,7.746,12.150,7.785,6.053
Thu Dec 05 12:56:06 2024,745,-22.214,-22.214,4.854,4.854,0.373,23.130,9.076,3.594,24.231,11.626,-3.767,15.936,7.752,12.172,7.769,6.096
Thu Dec 05 12:56:06 2024,750,-22.224,-22.224,4.802,4.802,0.326,23.106,9.096,3.559,24.212,11.697,-3.787,15.893,7.779,12.196,7.750,6.167
Thu Dec 05 12:56:06 2024,755,-22.229,-22.229,4.771,4.771,0.314,23.101,9.099,3.549,24.202,11.710,-3.796,15.872,7.780,12.206,7.740,6.180
Thu Dec 05 12:56:06 2024,760,-22.230,-22.230,4.750,4.750,0.333,23.114,9.085,3.562,24.197,11.670,-3.798,15.865,7.755,12.207,7.733,6.137
Thu Dec 05 12:56:06 2024,765,-22.229,-22.229,4.752,4.752,0.333,23.121,9.058,3.571,24.202,11.630,-3.801,15.861,7.734,12.210,7.729,6.124
Thu Dec 05 12:56:06 2024,770,-22.225,-22.225,4.790,4.790,0.307,23.118,9.014,3.576,24.222,11.591,-3.806,15.859,7.719,12.218,7.726,6.160
Thu Dec 05 12:56:06 2024,775,-22.216,-22.216,4.809,4.809,0.284,23.106,8.978,3.571,24.226,11.554,-3.815,15.854,7.711,12.225,7.723,6.197
Thu Dec 05 12:56:06 2024,780,-22.190,-22.190,4.748,4.748,0.282,23.060,8.990,3.533,24.162,11.543,-3.839,15.838,7.736,12.227,7.719,6.230
Thu Dec 05 12:56:06 2024,785,-22.167,-22.167,4.698,4.698,0.277,23.020,8.994,3.496,24.106,11.529,-3.852,15.832,7.754,12.225,7.720,6.248
Thu Dec 05 12:56:06 2024,790,-22.168,-22.168,4.733,4.733,0.260,23.024,8.948,3.487,24.115,11.504,-3.806,15.882,7.731,12.195,7.748,6.171
Thu Dec 05 12:56:06 2024,795,-22.174,-22.174,4.780,4.780,0.243,23.036,8.898,3.482,24.135,11.480,-3.752,15.938,7.703,12.162,7.778,6.082
Thu Dec 05 12:56:06 2024,800,-22.182,-22.182,4.802,4.802,0.257,23.112,8.933,3.476,24.135,11.492,-3.732,15.982,7.759,12.188,7.756,6.101
Thu Dec 05 12:56:06 2024,805,-22.188,-22.188,4.811,4.811,0.282,23.198,8.996,3.470,24.127,11.517,-3.731,16.013,7.840,12.230,7.717,6.160
Thu Dec 05 12:56:06 2024,810,-22.159,-22.159,4.757,4.757,0.287,23.188,8.953,3.453,24.117,11.474,-3.719,16.030,7.807,12.238,7.707,6.097
Thu Dec 05 12:56:06 2024,815,-22.108,-22.108,4.664,4.664,0.280,23.116,8.845,3.430,24.108,11.390,-3.701,16.038,7.704,12.224,7.715,5.961
Thu Dec 05 12:56:06 2024,820,-22.088,-22.088,4.644,4.644,0.286,23.086,8.789,3.415,24.120,11.352,-3.700,16.050,7.661,12.228,7.707,5.890
Thu Dec 05 12:56:06 2024,825,-22.116,-22.116,4.733,4.733,0.309,23.124,8.820,3.419,24.157,11.389,-3.724,16.063,7.713,12.258,7.678,5.932
Thu Dec 05 12:56:06 2024,830,-22.135,-22.135,4.801,4.801,0.327,23.153,8.840,3.421,24.185,11.417,-3.749,16.064,7.752,12.288,7.647,5.972
Thu Dec 05 12:56:06 2024,835,-22.114,-22.114,4.768,4.768,0.341,23.142,8.804,3.420,24.160,11.404,-3.779,16.009,7.726,12.350,7.584,6.018
Thu Dec 05 12:56:06 2024,840,-22.097,-22.097,4.743,4.743,0.352,23.128,8.776,3.420,24.146,11.397,-3.808,15.958,7.705,12.401,7.533,6.054
Thu Dec 05 12:56:06 2024,845,-22.084,-22.084,4.737,4.737,0.360,23.090,8.782,3.436,24.187,11.434,-3.862,15.881,7.687,12.427,7.505,6.061
Thu Dec 05 12:56:06 2024,850,-22.074,-22.074,4.736,4.736,0.366,23.052,8.795,3.447,24.224,11.470,-3.910,15.811,7.673,12.450,7.480,6.060
Thu Dec 05 12:56:06 2024,855,-22.078,-22.078,4.752,4.752,0.347,23.021,8.820,3.417,24.189,11.476,-3.924,15.794,7.671,12.477,7.450,6.036
Thu Dec 05 12:56:06 2024,860,-22.086,-22.086,4.772,4.772,0.324,22.998,8.848,3.380,24.134,11.468,-3.930,15.790,7.671,12.500,7.424,6.010
Thu Dec 05 12:56:06 2024,865,-22.092,-22.092,4.796,4.796,0.296,22.996,8.886,3.334,24.029,11.420,-3.949,15.767,7.668,12.492,7.425,5.983
Thu Dec 05 12:56:06 2024,870,-22.096,-22.096,4.816,4.816,0.276,23.011,8.920,3.297,23.924,11.360,-3.970,15.739,7.664,12.464,7.445,5.965
Thu Dec 05 12:56:06 2024,875,-22.102,-22.102,4.836,4.836,0.276,22.986,8.933,3.284,23.849,11.301,-3.948,15.746,7.652,12.430,7.466,5.935
Thu Dec 05 12:56:06 2024,880,-22.112,-22.112,4.852,4.852,0.318,22.887,8.901,3.325,23.855,11.263,-3.842,15.817,7.630,12.396,7.481,5.888
Thu Dec 05 12:56:06 2024,885,-22.110,-22.110,4.861,4.861,0.320,22.850,8.892,3.333,23.856,11.256,-3.803,15.853,7.637,12.384,7.486,5.870
Thu Dec 05 12:56:06 2024,890,-22.090,-22.090,4.870,4.870,0.279,22.862,8.906,3.312,23.852,11.278,-3.814,15.870,7.682,12.392,7.484,5.874
Thu Dec 05 12:56:06 2024,895,-22.070,-22.070,4.877,4.877,0.234,22.881,8.920,3.282,23.846,11.302,-3.833,15.882,7.727,12.401,7.482,5.884
Thu Dec 05 12:56:06 2024,900,-22.056,-22.056,4.884,4.884,0.219,22.875,8.917,3.255,23.839,11.298,-3.831,15.909,7.743,12.393,7.491,5.884
Thu Dec 05 12:56:06 2024,905,-22.056,-22.056,4.901,4.901,0.207,22.867,8.904,3.226,23.831,11.289,-3.825,15.934,7.751,12.385,7.500,5.890
Thu Dec 05 12:56:06 2024,910,-22.119,-22.119,4.959,4.959,0.201,22.870,8.860,3.205,23.821,11.272,-3.814,15.938,7.739,12.388,7.502,5.918
Thu Dec 05 12:56:06 2024,915,-22.197,-22.197,5.026,5.026,0.198,22.876,8.809,3.189,23.812,11.254,-3.802,15.934,7.720,12.393,7.501,5.951
Thu Dec 05 12:56:06 2024,920,-22.215,-22.215,5.071,5.071,0.190,22.873,8.783,3.202,23.852,11.202,-3.769,15.983,7.696,12.406,7.493,5.958
Thu Dec 05 12:56:06 2024,925,-22.200,-22.200,5.098,5.098,0.177,22.866,8.772,3.228,23.914,11.137,-3.728,16.054,7.671,12.423,7.481,5.951
Thu Dec 05 12:56:06 2024,930,-22.187,-22.187,5.058,5.058,0.187,22.885,8.735,3.231,23.925,11.099,-3.715,16.053,7.622,12.420,7.484,5.904
Thu Dec 05 12:56:06 2024,935,-22.173,-22.173,4.972,4.972,0.212,22.923,8.677,3.223,23.908,11.066,-3.713,16.012,7.547,12.408,7.497,5.823
Thu Dec 05 12:56:06 2024,940,-22.173,-22.173,4.930,4.930,0.229,22.965,8.650,3.233,23.914,11.048,-3.700,16.009,7.517,12.408,7.495,5.759
Thu Dec 05 12:56:06 2024,945,-22.190,-22.190,4.956,4.956,0.232,23.003,8.670,3.269,23.953,11.046,-3.671,16.067,7.549,12.427,7.473,5.729
Thu Dec 05 12:56:06 2024,950,-22.209,-22.209,4.982,4.982,0.238,23.034,8.693,3.297,23.972,11.035,-3.646,16.117,7.575,12.439,7.455,5.687
Thu Dec 05 12:56:06 2024,955,-22.212,-22.212,4.980,4.980,0.253,23.001,8.699,3.257,23.883,11.002,-3.668,16.072,7.545,12.409,7.474,5.647
Thu Dec 05 12:56:06 2024,960,-22.214,-22.214,4.978,4.978,0.258,22.949,8.699,3.209,23.781,10.964,-3.694,16.019,7.518,12.372,7.499,5.609
Thu Dec 05 12:56:06 2024,965,-22.208,-22.208,4.976,4.976,0.196,22.806,8.658,3.157,23.689,10.939,-3.725,15.978,7.544,12.326,7.542,5.635
Thu Dec 05 12:56:06 2024,970,-22.202,-22.202,4.974,4.974,0.125,22.659,8.614,3.107,23.604,10.917,-3.754,15.939,7.578,12.280,7.587,5.669
Thu Dec 05 12:56:06 2024,975,-22.197,-22.197,4.982,4.982,0.118,22.677,8.622,3.150,23.679,10.927,-3.745,15.966,7.585,12.315,7.556,5.692
Thu Dec 05 12:56:06 2024,980,-22.191,-22.191,4.992,4.992,0.136,22.754,8.649,3.225,23.810,10.947,-3.721,16.014,7.580,12.377,7.498,5.711
Thu Dec 05 12:56:06 2024,985,-22.181,-22.181,5.014,5.014,0.147,22.748,8.659,3.248,23.838,10.961,-3.716,16.020,7.579,12.368,7.508,5.704
Thu Dec 05 12:56:06 2024,990,-22.165,-22.165,5.045,5.045,0.157,22.687,8.659,3.237,23.800,10.972,-3.723,16.000,7.582,12.311,7.563,5.679
Thu Dec 05 12:56:06 2024,995,-22.178,-22.178,5.066,5.066,0.148,22.640,8.638,3.206,23.754,10.964,-3.712,16.000,7.577,12.290,7.580,5.656
Thu Dec 05 12:56:07 2024,0,-22.220,-22.220,5.070,5.070,0.117,22.623,8.598,3.161,23.711,10.935,-3.684,16.021,7.562,12.315,7.551,5.640
Thu Dec 05 12:56:07 2024,5,-22.255,-22.255,5.074,5.074,0.095,22.624,8.563,3.119,23.679,10.905,-3.656,16.047,7.546,12.333,7.531,5.619
Thu Dec 05 12:56:07 2024,10,-22.243,-22.243,5.070,5.070,0.124,22.718,8.567,3.118,23.726,10.878,-3.647,16.080,7.525,12.304,7.567,5.576
Thu Dec 05 12:56:07 2024,15,-22.230,-22.230,5.064,5.064,0.152,22.805,8.568,3.122,23.773,10.845,-3.639,16.108,7.496,12.271,7.605,5.529
Thu Dec 05 12:56:07 2024,20,-22.246,-22.246,5.051,5.051,0.174,22.767,8.527,3.146,23.764,10.771,-3.639,16.065,7.391,12.247,7.621,5.465
Thu Dec 05 12:56:07 2024,25,-22.260,-22.260,5.039,5.039,0.194,22.731,8.487,3.169,23.757,10.699,-3.639,16.021,7.290,12.225,7.636,5.404
Thu Dec 05 12:56:07 2024,30,-22.338,-22.338,5.076,5.076,0.158,22.750,8.483,3.113,23.702,10.664,-3.688,15.964,7.263,12.216,7.642,5.377
Thu Dec 05 12:56:07 2024,35,-22.423,-22.423,5.122,5.122,0.112,22.784,8.490,3.043,23.642,10.645,-3.745,15.912,7.261,12.213,7.644,5.366
Thu Dec 05 12:56:07 2024,40,-22.420,-22.420,5.079,5.079,0.120,22.789,8.482,3.032,23.604,10.632,-3.740,15.916,7.282,12.212,7.640,5.374
Thu Dec 05 12:56:07 2024,45,-22.376,-22.376,4.992,4.992,0.155,22.782,8.467,3.047,23.572,10.620,-3.704,15.947,7.315,12.211,7.631,5.394
Thu Dec 05 12:56:07 2024,50,-22.369,-22.369,4.988,4.988,0.136,22.775,8.484,3.034,23.541,10.630,-3.688,15.974,7.360,12.209,7.628,5.410
Thu Dec 05 12:56:07 2024,55,-22.390,-22.390,5.044,5.044,0.086,22.769,8.521,3.003,23.513,10.653,-3.688,15.995,7.408,12.207,7.630,5.422
Thu Dec 05 12:56:07 2024,60,-22.408,-22.408,5.091,5.091,0.048,22.772,8.562,2.984,23.497,10.681,-3.684,16.016,7.455,12.210,7.629,5.445
Thu Dec 05 12:56:07 2024,65,-22.399,-22.399,5.063,5.063,0.097,22.805,8.583,3.024,23.540,10.699,-3.668,16.017,7.457,12.231,7.619,5.492
Thu Dec 05 12:56:07 2024,70,-22.390,-22.390,5.038,5.038,0.140,22.830,8.599,3.060,23.576,10.713,-3.651,16.023,7.458,12.250,7.609,5.533
Thu Dec 05 12:56:07 2024,75,-22.375,-22.375,5.084,5.084,0.074,22.738,8.534,3.022,23.518,10.664,-3.615,16.074,7.456,12.233,7.620,5.469
Thu Dec 05 12:56:07 2024,80,-22.362,-22.362,5.123,5.123,0.024,22.659,8.480,2.989,23.469,10.621,-3.584,16.118,7.454,12.218,7.629,5.415
Thu Dec 05 12:56:07 2024,85,-22.370,-22.370,5.099,5.099,0.020,22.673,8.562,3.007,23.492,10.671,-3.559,16.151,7.510,12.241,7.605,5.449
Thu Dec 05 12:56:07 2024,90,-22.383,-22.383,5.062,5.062,0.028,22.704,8.674,3.035,23.530,10.740,-3.534,16.184,7.581,12.273,7.572,5.502
Thu Dec 05 12:56:07 2024,95,-22.404,-22.404,5.084,5.084,0.034,22.736,8.675,3.029,23.534,10.718,-3.522,16.190,7.548,12.265,7.577,5.463
Thu Dec 05 12:56:07 2024,100,-22.427,-22.427,5.132,5.132,0.034,22.766,8.622,3.007,23.521,10.655,-3.519,16.182,7.469,12.239,7.598,5.384
Thu Dec 05 12:56:07 2024,105,-22.469,-22.469,5.204,5.204,0.046,22.791,8.603,2.996,23.516,10.623,-3.504,16.190,7.414,12.218,7.612,5.308
Thu Dec 05 12:56:07 2024,110,-22.519,-22.519,5.276,5.276,0.072,22.794,8.656,3.008,23.526,10.664,-3.477,16.217,7.433,12.222,7.604,5.283
Thu Dec 05 12:56:07 2024,115,-22.572,-22.572,5.345,5.345,0.099,22.795,8.695,3.013,23.524,10.685,-3.452,16.237,7.443,12.228,7.593,5.260
Thu Dec 05 12:56:07 2024,120,-22.600,-22.600,5.354,5.354,0.093,22.789,8.656,2.980,23.476,10.611,-3.454,16.209,7.410,12.244,7.579,5.265
Thu Dec 05 12:56:07 2024,125,-22.627,-22.627,5.364,5.364,0.082,22.779,8.617,2.947,23.424,10.537,-3.456,16.181,7.378,12.253,7.570,5.262
Thu Dec 05 12:56:07 2024,130,-22.626,-22.626,5.381,5.381,0.076,22.722,8.606,2.923,23.381,10.526,-3.460,16.184,7.385,12.188,7.614,5.184
Thu Dec 05 12:56:07 2024,135,-22.626,-22.626,5.400,5.400,0.066,22.660,8.596,2.896,23.335,10.512,-3.464,16.187,7.393,12.118,7.659,5.101
Thu Dec 05 12:56:07 2024,140,-22.640,-22.640,5.406,5.406,0.086,22.698,8.654,2.922,23.361,10.612,-3.454,16.194,7.460,12.145,7.640,5.175
Thu Dec 05 12:56:07 2024,145,-22.657,-22.657,5.410,5.410,0.110,22.753,8.724,2.957,23.400,10.732,-3.442,16.202,7.538,12.189,7.610,5.278
Thu Dec 05 12:56:07 2024,150,-22.677,-22.677,5.400,5.400,0.090,22.762,8.761,2.956,23.396,10.774,-3.469,16.187,7.587,12.191,7.616,5.335
Thu Dec 05 12:56:07 2024,155,-22.700,-22.700,5.382,5.382,0.050,22.746,8.780,2.937,23.367,10.772,-3.517,16.159,7.620,12.168,7.643,5.368
Thu Dec 05 12:56:07 2024,160,-22.711,-22.711,5.375,5.375,0.000,22.704,8.768,2.908,23.324,10.737,-3.552,16.130,7.612,12.147,7.663,5.362
Thu Dec 05 12:56:07 2024,165,-22.710,-22.710,5.390,5.390,-0.052,22.593,8.693,2.846,23.235,10.628,-3.580,16.085,7.528,12.115,7.681,5.285
Thu Dec 05 12:56:07 2024,170,-22.710,-22.710,5.406,5.406,-0.052,22.560,8.670,2.826,23.188,10.580,-3.586,16.065,7.492,12.106,7.677,5.252
Thu Dec 05 12:56:07 2024,175,-22.715,-22.715,5.430,5.430,0.020,22.608,8.701,2.850,23.177,10.586,-3.566,16.067,7.505,12.119,7.646,5.260
Thu Dec 05 12:56:07 2024,180,-22.713,-22.713,5.437,5.437,0.057,22.663,8.719,2.870,23.196,10.604,-3.574,16.057,7.515,12.143,7.622,5.280
Thu Dec 05 12:56:07 2024,185,-22.704,-22.704,5.427,5.427,0.048,22.705,8.715,2.881,23.232,10.622,-3.607,16.035,7.517,12.167,7.610,5.302
Thu Dec 05 12:56:07 2024,190,-22.688,-22.688,5.401,5.401,-0.028,22.738,8.692,2.882,23.290,10.642,-3.665,16.000,7.510,12.195,7.607,5.329
Thu Dec 05 12:56:07 2024,195,-22.643,-22.643,5.396,5.396,0.023,22.686,8.654,2.906,23.310,10.668,-3.656,15.989,7.525,12.205,7.600,5.393
Thu Dec 05 12:56:07 2024,200,-22.588,-22.588,5.395,5.395,0.067,22.613,8.609,2.937,23.325,10.698,-3.632,15.982,7.545,12.211,7.590,5.468
Thu Dec 05 12:56:07 2024,205,-22.590,-22.590,5.404,5.404,0.076,22.591,8.599,2.968,23.355,10.684,-3.638,15.967,7.517,12.186,7.611,5.435
Thu Dec 05 12:56:07 2024,210,-22.622,-22.622,5.419,5.419,0.071,22.590,8.607,3.006,23.401,10.645,-3.659,15.943,7.457,12.136,7.653,5.335
Thu Dec 05 12:56:07 2024,215,-22.622,-22.622,5.402,5.402,0.097,22.604,8.602,3.035,23.424,10.622,-3.651,15.939,7.418,12.115,7.670,5.281
Thu Dec 05 12:56:07 2024,220,-22.586,-22.586,5.344,5.344,0.153,22.639,8.583,3.063,23.429,10.612,-3.604,15.955,7.391,12.116,7.664,5.261
Thu Dec 05 12:56:07 2024,225,-22.563,-22.563,5.299,5.299,0.190,22.687,8.580,3.076,23.433,10.606,-3.573,15.971,7.369,12.106,7.672,5.240
Thu Dec 05 12:56:07 2024,230,-22.589,-22.589,5.308,5.308,0.151,22.757,8.625,3.038,23.431,10.615,-3.597,15.988,7.366,12.064,7.721,5.216
Thu Dec 05 12:56:07 2024,235,-22.616,-22.616,5.318,5.318,0.114,22.822,8.664,2.998,23.428,10.623,-3.622,15.997,7.357,12.023,7.769,5.190
Thu Dec 05 12:56:07 2024,240,-22.615,-22.615,5.327,5.327,0.130,22.781,8.617,2.992,23.407,10.613,-3.619,15.960,7.319,12.038,7.749,5.179
Thu Dec 05 12:56:07 2024,245,-22.613,-22.613,5.332,5.332,0.150,22.750,8.575,2.992,23.400,10.608,-3.611,15.936,7.288,12.057,7.728,5.166
Thu Dec 05 12:56:07 2024,250,-22.598,-22.598,5.315,5.315,0.176,22.800,8.579,3.036,23.477,10.638,-3.565,16.016,7.304,12.093,7.703,5.138
Thu Dec 05 12:56:07 2024,255,-22.577,-22.577,5.286,5.286,0.207,22.887,8.600,3.100,23.598,10.684,-3.500,16.141,7.338,12.142,7.671,5.102
Thu Dec 05 12:56:07 2024,260,-22.591,-22.591,5.314,5.314,0.199,22.898,8.622,3.101,23.599,10.702,-3.540,16.086,7.325,12.119,7.694,5.092
Thu Dec 05 12:56:07 2024,265,-22.616,-22.616,5.358,5.358,0.178,22.880,8.642,3.080,23.556,10.708,-3.614,15.972,7.298,12.074,7.732,5.094
Thu Dec 05 12:56:07 2024,270,-22.603,-22.603,5.342,5.342,0.181,22.886,8.647,3.080,23.560,10.753,-3.642,15.916,7.308,12.092,7.724,5.153
Thu Dec 05 12:56:07 2024,275,-22.564,-22.564,5.284,5.284,0.203,22.908,8.642,3.096,23.598,10.830,-3.641,15.901,7.344,12.155,7.680,5.256
Thu Dec 05 12:56:07 2024,280,-22.533,-22.533,5.254,5.254,0.218,22.932,8.647,3.121,23.642,10.886,-3.631,15.901,7.374,12.199,7.648,5.332
Thu Dec 05 12:56:07 2024,285,-22.520,-22.520,5.302,5.302,0.213,22.960,8.681,3.175,23.710,10.894,-3.601,15.945,7.388,12.192,7.656,5.334
Thu Dec 05 12:56:07 2024,290,-22.507,-22.507,5.330,5.330,0.226,22.971,8.696,3.223,23.766,10.909,-3.593,15.950,7.390,12.198,7.649,5.351
Thu Dec 05 12:56:07 2024,295,-22.481,-22.481,5.327,5.327,0.304,22.943,8.672,3.297,23.840,10.960,-3.640,15.852,7.358,12.250,7.597,5.425
Thu Dec 05 12:56:07 2024,300,-22.452,-22.452,5.314,5.314,0.372,22.910,8.650,3.354,23.888,11.006,-3.690,15.755,7.334,12.294,7.552,5.495
Thu Dec 05 12:56:07 2024,305,-22.396,-22.396,5.275,5.275,0.364,22.862,8.664,3.318,23.801,11.013,-3.724,15.736,7.380,12.274,7.562,5.517
Thu Dec 05 12:56:07 2024,310,-22.345,-22.345,5.238,5.238,0.342,22.820,8.683,3.271,23.704,11.012,-3.750,15.735,7.432,12.246,7.581,5.526
Thu Dec 05 12:56:07 2024,315,-22.359,-22.359,5.238,5.238,0.356,22.819,8.710,3.290,23.735,11.070,-3.792,15.666,7.426,12.235,7.590,5.535
Thu Dec 05 12:56:07 2024,320,-22.397,-22.397,5.251,5.251,0.383,22.834,8.741,3.334,23.811,11.147,-3.839,15.573,7.399,12.232,7.595,5.544
Thu Dec 05 12:56:07 2024,325,-22.390,-22.390,5.236,5.236,0.385,22.856,8.770,3.345,23.842,11.172,-3.837,15.594,7.409,12.248,7.576,5.544
Thu Dec 05 12:56:07 2024,330,-22.361,-22.361,5.208,5.208,0.373,22.878,8.792,3.337,23.843,11.161,-3.806,15.676,7.439,12.273,7.547,5.538
Thu Dec 05 12:56:07 2024,335,-22.345,-22.345,5.204,5.204,0.365,22.907,8.803,3.335,23.859,11.171,-3.766,15.759,7.481,12.295,7.531,5.551
Thu Dec 05 12:56:07 2024,340,-22.359,-22.359,5.242,5.242,0.367,22.939,8.793,3.345,23.894,11.215,-3.724,15.819,7.529,12.302,7.541,5.593
Thu Dec 05 12:56:07 2024,345,-22.373,-22.373,5.273,5.273,0.360,22.962,8.779,3.359,23.933,11.239,-3.689,15.870,7.548,12.302,7.552,5.599
Thu Dec 05 12:56:07 2024,350,-22.390,-22.390,5.277,5.277,0.329,22.961,8.759,3.382,23.978,11.202,-3.670,15.890,7.484,12.284,7.565,5.505
Thu Dec 05 12:56:07 2024,355,-22.404,-22.404,5.282,5.282,0.310,22.969,8.748,3.402,24.002,11.156,-3.649,15.916,7.428,12.274,7.570,5.415
Thu Dec 05 12:56:07 2024,360,-22.404,-22.404,5.289,5.289,0.339,22.998,8.769,3.397,23.957,11.129,-3.628,15.941,7.437,12.292,7.546,5.406
Thu Dec 05 12:56:07 2024,365,-22.400,-22.400,5.299,5.299,0.379,23.034,8.798,3.386,23.894,11.107,-3.607,15.965,7.464,12.318,7.516,5.418
Thu Dec 05 12:56:07 2024,370,-22.387,-22.387,5.256,5.256,0.394,23.053,8.772,3.381,23.890,11.106,-3.633,15.936,7.463,12.290,7.544,5.414
Thu Dec 05 12:56:07 2024,375,-22.376,-22.376,5.210,5.210,0.395,23.061,8.737,3.380,23.906,11.113,-3.666,15.899,7.454,12.253,7.582,5.406
Thu Dec 05 12:56:07 2024,380,-22.399,-22.399,5.239,5.239,0.394,23.075,8.752,3.377,23.902,11.092,-3.665,15.890,7.430,12.249,7.578,5.387
Thu Dec 05 12:56:07 2024,385,-22.446,-22.446,5.320,5.320,0.392,23.095,8.802,3.372,23.886,11.051,-3.643,15.900,7.396,12.265,7.545,5.360
Thu Dec 05 12:56:07 2024,390,-22.454,-22.454,5.327,5.327,0.381,23.108,8.798,3.354,23.870,11.033,-3.654,15.883,7.373,12.268,7.541,5.350
Thu Dec 05 12:56:07 2024,395,-22.415,-22.415,5.248,5.248,0.357,23.115,8.728,3.318,23.849,11.037,-3.706,15.828,7.357,12.256,7.571,5.360
Thu Dec 05 12:56:07 2024,400,-22.390,-22.390,5.195,5.195,0.355,23.139,8.698,3.297,23.835,11.041,-3.730,15.808,7.356,12.249,7.588,5.364
Thu Dec 05 12:56:07 2024,405,-22.396,-22.396,5.187,5.187,0.414,23.215,8.767,3.309,23.834,11.047,-3.690,15.871,7.392,12.254,7.577,5.356
Thu Dec 05 12:56:07 2024,410,-22.407,-22.407,5.182,5.182,0.471,23.304,8.834,3.321,23.844,11.054,-3.651,15.932,7.418,12.258,7.569,5.340
Thu Dec 05 12:56:07 2024,415,-22.445,-22.445,5.194,5.194,0.473,23.404,8.854,3.333,23.913,11.070,-3.645,15.944,7.371,12.248,7.580,5.285
Thu Dec 05 12:56:07 2024,420,-22.478,-22.478,5.210,5.210,0.466,23.487,8.863,3.344,23.980,11.080,-3.640,15.951,7.321,12.238,7.594,5.234
Thu Dec 05 12:56:07 2024,425,-22.453,-22.453,5.238,5.238,0.452,23.422,8.830,3.340,23.959,11.052,-3.626,15.966,7.322,12.234,7.602,5.250
Thu Dec 05 12:56:07 2024,430,-22.411,-22.411,5.269,5.269,0.437,23.318,8.787,3.332,23.917,11.013,-3.610,15.983,7.336,12.231,7.609,5.281
Thu Dec 05 12:56:07 2024,435,-22.435,-22.435,5.293,5.293,0.441,23.294,8.801,3.303,23.871,10.966,-3.569,16.039,7.356,12.196,7.634,5.242
Thu Dec 05 12:56:07 2024,440,-22.476,-22.476,5.308,5.308,0.453,23.304,8.835,3.273,23.833,10.927,-3.529,16.095,7.373,12.156,7.660,5.187
Thu Dec 05 12:56:07 2024,445,-22.508,-22.508,5.292,5.292,0.452,23.336,8.836,3.240,23.806,10.879,-3.488,16.163,7.374,12.150,7.664,5.146
Thu Dec 05 12:56:07 2024,450,-22.518,-22.518,5.242,5.242,0.435,23.385,8.796,3.210,23.798,10.833,-3.456,16.223,7.354,12.185,7.642,5.132
Thu Dec 05 12:56:07 2024,455,-22.534,-22.534,5.222,5.222,0.433,23.420,8.774,3.192,23.784,10.794,-3.419,16.281,7.342,12.202,7.630,5.101
Thu Dec 05 12:56:07 2024,460,-22.564,-22.564,5.292,5.292,0.468,23.414,8.804,3.208,23.752,10.776,-3.372,16.330,7.354,12.164,7.646,5.019
Thu Dec 05 12:56:07 2024,465,-22.591,-22.591,5.343,5.343,0.486,23.396,8.824,3.212,23.716,10.757,-3.336,16.368,7.366,12.126,7.665,4.953
Thu Dec 05 12:56:07 2024,470,-22.634,-22.634,5.356,5.356,0.427,23.302,8.811,3.159,23.609,10.714,-3.313,16.390,7.393,12.051,7.724,4.899
Thu Dec 05 12:56:07 2024,475,-22.668,-22.668,5.364,5.364,0.374,23.226,8.806,3.114,23.526,10.689,-3.298,16.402,7.418,11.995,7.770,4.865
Thu Dec 05 12:56:07 2024,480,-22.699,-22.699,5.393,5.393,0.347,23.202,8.865,3.106,23.519,10.758,-3.296,16.378,7.453,11.989,7.762,4.891
Thu Dec 05 12:56:07 2024,485,-22.727,-22.727,5.421,5.421,0.325,23.185,8.929,3.103,23.523,10.833,-3.296,16.350,7.485,11.991,7.749,4.923
Thu Dec 05 12:56:07 2024,490,-22.759,-22.759,5.440,5.440,0.367,23.210,8.930,3.156,23.570,10.812,-3.246,16.400,7.470,12.023,7.720,4.929
Thu Dec 05 12:56:07 2024,495,-22.787,-22.787,5.453,5.453,0.427,23.246,8.906,3.222,23.626,10.756,-3.184,16.473,7.437,12.062,7.690,4.923
Thu Dec 05 12:56:07 2024,500,-22.825,-22.825,5.485,5.485,0.389,23.255,8.886,3.180,23.606,10.708,-3.194,16.486,7.410,12.038,7.715,4.884
Thu Dec 05 12:56:07 2024,505,-22.876,-22.876,5.541,5.541,0.262,23.244,8.867,3.040,23.522,10.660,-3.268,16.450,7.380,11.957,7.793,4.810
Thu Dec 05 12:56:07 2024,510,-22.900,-22.900,5.576,5.576,0.212,23.262,8.861,2.979,23.486,10.627,-3.286,16.449,7.354,11.932,7.813,4.763
Thu Dec 05 12:56:07 2024,515,-22.885,-22.885,5.584,5.584,0.273,23.328,8.876,3.027,23.513,10.608,-3.218,16.508,7.327,11.991,7.746,4.746
Thu Dec 05 12:56:07 2024,520,-22.881,-22.881,5.599,5.599,0.334,23.384,8.895,3.065,23.534,10.606,-3.162,16.556,7.316,12.037,7.695,4.729
Thu Dec 05 12:56:07 2024,525,-22.909,-22.909,5.632,5.632,0.384,23.400,8.927,3.064,23.530,10.658,-3.153,16.560,7.356,12.030,7.700,4.714
Thu Dec 05 12:56:07 2024,530,-22.936,-22.936,5.655,5.655,0.432,23.408,8.959,3.061,23.519,10.712,-3.145,16.561,7.403,12.019,7.710,4.709
Thu Dec 05 12:56:07 2024,535,-22.929,-22.929,5.609,5.609,0.429,23.356,8.962,3.047,23.473,10.731,-3.147,16.540,7.453,11.992,7.730,4.762
Thu Dec 05 12:56:07 2024,540,-22.920,-22.920,5.564,5.564,0.424,23.310,8.966,3.034,23.432,10.747,-3.153,16.518,7.494,11.971,7.746,4.816
Thu Dec 05 12:56:07 2024,545,-22.930,-22.930,5.567,5.567,0.454,23.344,9.016,3.040,23.425,10.784,-3.177,16.502,7.506,11.995,7.735,4.853
Thu Dec 05 12:56:07 2024,550,-22.950,-22.950,5.601,5.601,0.502,23.423,9.089,3.056,23.440,10.830,-3.211,16.493,7.497,12.045,7.706,4.876
Thu Dec 05 12:56:07 2024,555,-22.962,-22.962,5.620,5.620,0.532,23.426,9.114,3.080,23.449,10.858,-3.214,16.489,7.510,12.057,7.705,4.893
Thu Dec 05 12:56:07 2024,560,-22.969,-22.969,5.630,5.630,0.550,23.395,9.116,3.104,23.454,10.875,-3.204,16.487,7.530,12.050,7.717,4.905
Thu Dec 05 12:56:07 2024,565,-22.985,-22.985,5.636,5.636,0.518,23.350,9.092,3.094,23.436,10.864,-3.214,16.465,7.526,12.042,7.722,4.882
Thu Dec 05 12:56:07 2024,570,-23.007,-23.007,5.634,5.634,0.435,23.306,9.044,3.046,23.395,10.822,-3.246,16.427,7.493,12.033,7.717,4.822
Thu Dec 05 12:56:07 2024,575,-22.997,-22.997,5.611,5.611,0.392,23.284,9.004,3.024,23.382,10.803,-3.290,16.372,7.475,12.037,7.712,4.832
Thu Dec 05 12:56:07 2024,580,-22.940,-22.940,5.560,5.560,0.413,23.296,8.981,3.049,23.415,10.822,-3.343,16.301,7.484,12.060,7.707,4.946
Thu Dec 05 12:56:07 2024,585,-22.880,-22.880,5.510,5.510,0.441,23.316,8.960,3.080,23.458,10.844,-3.408,16.215,7.489,12.084,7.701,5.072
Thu Dec 05 12:56:07 2024,590,-22.869,-22.869,5.541,5.541,0.472,23.361,8.977,3.131,23.520,10.858,-3.475,16.136,7.456,12.095,7.702,5.117
Thu Dec 05 12:56:07 2024,595,-22.867,-22.867,5.579,5.579,0.499,23.406,8.998,3.178,23.578,10.870,-3.530,16.072,7.426,12.101,7.703,5.143
Thu Dec 05 12:56:07 2024,600,-22.871,-22.871,5.618,5.618,0.541,23.514,9.032,3.233,23.676,10.948,-3.544,16.069,7.454,12.091,7.702,5.132
Thu Dec 05 12:56:07 2024,605,-22.876,-22.876,5.648,5.648,0.576,23.609,9.060,3.278,23.761,11.021,-3.548,16.076,7.486,12.080,7.702,5.118
Thu Dec 05 12:56:07 2024,610,-22.865,-22.865,5.658,5.658,0.587,23.599,9.035,3.265,23.760,11.001,-3.582,16.014,7.450,12.081,7.706,5.176
Thu Dec 05 12:56:07 2024,615,-22.846,-22.846,5.654,5.654,0.582,23.527,8.979,3.218,23.707,10.927,-3.632,15.911,7.374,12.090,7.714,5.274
Thu Dec 05 12:56:07 2024,620,-22.856,-22.856,5.671,5.671,0.575,23.480,8.939,3.194,23.684,10.883,-3.656,15.858,7.319,12.074,7.733,5.281
Thu Dec 05 12:56:07 2024,625,-22.890,-22.890,5.703,5.703,0.568,23.460,8.916,3.190,23.686,10.866,-3.655,15.850,7.285,12.037,7.762,5.209
Thu Dec 05 12:56:07 2024,630,-22.913,-22.913,5.718,5.718,0.560,23.446,8.901,3.190,23.692,10.859,-3.660,15.840,7.263,12.007,7.786,5.163
Thu Dec 05 12:56:07 2024,635,-22.913,-22.913,5.687,5.687,0.548,23.451,8.906,3.204,23.709,10.878,-3.676,15.821,7.269,11.992,7.797,5.180
Thu Dec 05 12:56:07 2024,640,-22.909,-22.909,5.672,5.672,0.543,23.467,8.916,3.223,23.738,10.892,-3.684,15.817,7.276,11.993,7.794,5.191
Thu Dec 05 12:56:07 2024,645,-22.888,-22.888,5.690,5.690,0.558,23.533,8.951,3.278,23.832,10.908,-3.664,15.864,7.292,12.049,7.743,5.190
Thu Dec 05 12:56:07 2024,650,-22.866,-22.866,5.711,5.711,0.574,23.599,8.985,3.332,23.924,10.921,-3.643,15.911,7.307,12.105,7.690,5.188
Thu Dec 05 12:56:07 2024,655,-22.858,-22.858,5.715,5.715,0.572,23.551,8.924,3.296,23.897,10.905,-3.635,15.920,7.266,12.047,7.736,5.107
Thu Dec 05 12:56:07 2024,660,-22.852,-22.852,5.716,5.716,0.568,23.485,8.848,3.246,23.854,10.883,-3.629,15.923,7.217,11.970,7.797,5.013
Thu Dec 05 12:56:07 2024,665,-22.875,-22.875,5.734,5.734,0.560,23.444,8.833,3.218,23.799,10.850,-3.613,15.940,7.214,11.999,7.773,5.023
Thu Dec 05 12:56:07 2024,670,-22.914,-22.914,5.758,5.758,0.548,23.409,8.840,3.196,23.736,10.808,-3.590,15.965,7.230,12.071,7.712,5.072
Thu Dec 05 12:56:07 2024,675,-22.958,-22.958,5.772,5.772,0.554,23.523,8.887,3.196,23.738,10.786,-3.551,16.045,7.262,12.104,7.682,5.090
Thu Dec 05 12:56:07 2024,680,-22.994,-22.994,5.775,5.775,0.568,23.700,8.948,3.210,23.782,10.782,-3.512,16.136,7.297,12.103,7.681,5.080
Thu Dec 05 12:56:07 2024,685,-23.011,-23.011,5.782,5.782,0.544,23.732,8.974,3.190,23.761,10.780,-3.495,16.178,7.340,12.103,7.680,5.086
Thu Dec 05 12:56:07 2024,690,-22.996,-22.996,5.792,5.792,0.479,23.558,8.946,3.130,23.660,10.780,-3.514,16.144,7.380,12.104,7.678,5.111
Thu Dec 05 12:56:07 2024,695,-22.986,-22.986,5.810,5.810,0.414,23.378,8.925,3.067,23.546,10.781,-3.548,16.085,7.414,12.105,7.675,5.146
Thu Dec 05 12:56:07 2024,700,-23.007,-23.007,5.833,5.833,0.419,23.372,8.959,3.064,23.507,10.780,-3.604,16.002,7.394,12.102,7.672,5.184
Thu Dec 05 12:56:07 2024,705,-23.028,-23.028,5.857,5.857,0.424,23.361,8.991,3.057,23.460,10.773,-3.661,15.914,7.374,12.096,7.670,5.218
Thu Dec 05 12:56:07 2024,710,-23.030,-23.030,5.858,5.858,0.418,23.331,8.957,3.027,23.404,10.731,-3.661,15.906,7.380,12.064,7.692,5.181
Thu Dec 05 12:56:07 2024,715,-23.032,-23.032,5.858,5.858,0.412,23.296,8.918,2.992,23.343,10.683,-3.661,15.896,7.386,12.028,7.715,5.140
Thu Dec 05 12:56:07 2024,720,-23.052,-23.052,5.878,5.878,0.379,23.320,8.948,2.922,23.296,10.699,-3.673,15.933,7.442,12.024,7.714,5.136
Thu Dec 05 12:56:07 2024,725,-23.071,-23.071,5.898,5.898,0.346,23.356,8.990,2.858,23.266,10.730,-3.686,15.972,7.500,12.031,7.708,5.144
Thu Dec 05 12:56:07 2024,730,-23.068,-23.068,5.909,5.909,0.323,23.350,9.002,2.838,23.242,10.710,-3.699,15.978,7.514,12.014,7.728,5.159
Thu Dec 05 12:56:07 2024,735,-23.047,-23.047,5.910,5.910,0.311,23.312,8.987,2.857,23.227,10.652,-3.709,15.960,7.490,11.978,7.769,5.176
Thu Dec 05 12:56:07 2024,740,-23.069,-23.069,5.940,5.940,0.329,23.295,8.990,2.869,23.219,10.614,-3.696,15.975,7.479,11.996,7.760,5.197
Thu Dec 05 12:56:07 2024,745,-23.121,-23.121,5.987,5.987,0.369,23.302,9.009,2.871,23.219,10.603,-3.667,16.014,7.481,12.052,7.711,5.215
Thu Dec 05 12:56:07 2024,750,-23.174,-23.174,6.031,6.031,0.406,23.309,9.028,2.894,23.245,10.612,-3.620,16.072,7.498,12.117,7.650,5.229
Thu Dec 05 12:56:07 2024,755,-23.174,-23.174,6.018,6.018,0.400,23.310,9.030,2.945,23.316,10.662,-3.575,16.116,7.534,12.135,7.623,5.218
Thu Dec 05 12:56:07 2024,760,-23.172,-23.172,5.998,5.998,0.399,23.313,9.030,3.002,23.391,10.710,-3.522,16.169,7.570,12.152,7.600,5.208
Thu Dec 05 12:56:07 2024,765,-23.157,-23.157,5.964,5.964,0.432,23.329,9.017,3.018,23.399,10.682,-3.483,16.214,7.555,12.142,7.627,5.209
Thu Dec 05 12:56:07 2024,770,-23.142,-23.142,5.932,5.932,0.464,23.344,9.003,3.030,23.402,10.651,-3.452,16.251,7.536,12.130,7.656,5.212
Thu Dec 05 12:56:07 2024,775,-23.133,-23.133,5.923,5.923,0.456,23.293,8.971,3.028,23.408,10.670,-3.492,16.188,7.519,12.109,7.678,5.226
Thu Dec 05 12:56:07 2024,780,-23.126,-23.126,5.919,5.919,0.438,23.229,8.936,3.024,23.416,10.700,-3.548,16.104,7.502,12.086,7.700,5.242
Thu Dec 05 12:56:07 2024,785,-23.106,-23.106,5.917,5.917,0.460,23.313,8.939,3.056,23.462,10.727,-3.504,16.159,7.539,12.097,7.695,5.267
Thu Dec 05 12:56:07 2024,790,-23.089,-23.089,5.916,5.916,0.492,23.438,8.959,3.094,23.511,10.746,-3.429,16.261,7.589,12.120,7.681,5.289
Thu Dec 05 12:56:07 2024,795,-23.092,-23.092,5.929,5.929,0.492,23.435,8.980,3.121,23.545,10.789,-3.434,16.251,7.605,12.140,7.673,5.340
Thu Dec 05 12:56:07 2024,800,-23.096,-23.096,5.942,5.942,0.492,23.433,9.000,3.148,23.578,10.831,-3.439,16.241,7.620,12.161,7.664,5.390
Thu Dec 05 12:56:07 2024,805,-23.099,-23.099,5.955,5.955,0.493,23.430,9.021,3.175,23.612,10.874,-3.444,16.231,7.636,12.181,7.656,5.441
Thu Dec 05 12:56:07 2024,810,-23.102,-23.102,5.968,5.968,0.493,23.427,9.042,3.202,23.646,10.917,-3.449,16.221,7.651,12.202,7.648,5.492
Thu Dec 05 12:56:07 2024,815,-23.098,-23.098,5.975,5.975,0.497,23.427,9.051,3.221,23.666,10.950,-3.450,16.216,7.668,12.214,7.646,5.533
Thu Dec 05 12:56:07 2024,820,-23.064,-23.064,5.960,5.960,0.518,23.440,9.016,3.214,23.630,10.945,-3.435,16.230,7.689,12.194,7.671,5.537
Thu Dec 05 12:56:07 2024,825,-23.030,-23.030,5.944,5.944,0.540,23.452,8.980,3.206,23.595,10.939,-3.420,16.243,7.710,12.174,7.696,5.541
Thu Dec 05 12:56:07 2024,830,-23.044,-23.044,6.031,6.031,0.511,23.455,8.963,3.156,23.544,10.911,-3.444,16.233,7.687,12.121,7.753,5.523
Thu Dec 05 12:56:07 2024,835,-23.068,-23.068,6.158,6.158,0.484,23.456,8.975,3.122,23.517,10.908,-3.442,16.248,7.688,12.092,7.789,5.524
Thu Dec 05 12:56:07 2024,840,-23.087,-23.087,6.286,6.286,0.473,23.459,9.006,3.110,23.513,10.927,-3.416,16.287,7.714,12.089,7.800,5.543
Thu Dec 05 12:56:07 2024,845,-23.104,-23.104,6.414,6.414,0.476,23.462,9.055,3.120,23.534,10.971,-3.363,16.351,7.766,12.113,7.784,5.581
Thu Dec 05 12:56:07 2024,850,-23.140,-23.140,6.632,6.632,0.499,23.465,9.080,3.151,23.559,10.977,-3.304,16.404,7.789,12.121,7.784,5.629
Thu Dec 05 12:56:07 2024,855,-23.208,-23.208,6.984,6.984,0.526,23.461,9.073,3.177,23.567,10.930,-3.259,16.430,7.769,12.090,7.822,5.670
Thu Dec 05 12:56:07 2024,860,-23.299,-23.299,7.398,7.398,0.519,23.421,9.090,3.159,23.538,10.890,-3.250,16.438,7.745,12.043,7.872,5.668
Thu Dec 05 12:56:07 2024,865,-23.390,-23.390,7.799,7.799,0.493,23.367,9.116,3.120,23.493,10.858,-3.260,16.438,7.721,11.992,7.923,5.643
Thu Dec 05 12:56:07 2024,870,-23.517,-23.517,8.341,8.341,0.441,23.277,9.173,3.039,23.405,10.817,-3.294,16.421,7.691,11.922,7.989,5.608
Thu Dec 05 12:56:07 2024,875,-23.618,-23.618,8.834,8.834,0.404,23.200,9.269,2.950,23.288,10.769,-3.318,16.382,7.678,11.885,8.027,5.661
Thu Dec 05 12:56:07 2024,880,-23.718,-23.718,9.342,9.342,0.368,23.120,9.365,2.862,23.173,10.722,-3.344,16.340,7.663,11.848,8.067,5.713
Thu Dec 05 12:56:07 2024,885,-23.761,-23.761,10.025,10.025,0.374,22.993,9.385,2.836,23.121,10.738,-3.408,16.251,7.644,11.800,8.108,5.727
Thu Dec 05 12:56:07 2024,890,-23.798,-23.798,10.613,10.613,0.380,22.884,9.403,2.814,23.076,10.752,-3.462,16.173,7.628,11.759,8.143,5.738
Thu Dec 05 12:56:07 2024,895,-23.848,-23.848,11.718,11.718,0.382,22.758,9.491,2.734,22.954,10.693,-3.523,16.135,7.646,11.689,8.198,5.759
Thu Dec 05 12:56:07 2024,900,-23.898,-23.898,12.770,12.770,0.381,22.653,9.593,2.656,22.840,10.629,-3.568,16.118,7.669,11.625,8.246,5.784
Thu Dec 05 12:56:07 2024,905,-23.971,-23.971,13.833,13.833,0.375,22.540,9.726,2.599,22.757,10.612,-3.582,16.097,7.675,11.566,8.288,5.839
Thu Dec 05 12:56:07 2024,910,-24.065,-24.065,14.878,14.878,0.363,22.422,9.885,2.564,22.705,10.637,-3.568,16.073,7.664,11.513,8.326,5.922
Thu Dec 05 12:56:07 2024,915,-24.169,-24.169,15.982,15.982,0.353,22.320,10.036,2.515,22.636,10.658,-3.562,16.063,7.693,11.464,8.355,6.009
Thu Dec 05 12:56:07 2024,920,-24.278,-24.278,17.064,17.064,0.347,22.252,10.160,2.451,22.549,10.670,-3.568,16.077,7.776,11.426,8.369,6.092
Thu Dec 05 12:56:07 2024,925,-24.388,-24.388,18.430,18.430,0.358,22.116,10.327,2.399,22.475,10.712,-3.594,16.036,7.851,11.395,8.374,6.246
Thu Dec 05 12:56:07 2024,930,-24.472,-24.472,19.799,19.799,0.385,21.933,10.504,2.375,22.432,10.778,-3.638,15.938,7.903,11.377,8.368,6.444
Thu Dec 05 12:56:07 2024,935,-24.528,-24.528,20.934,20.934,0.419,21.770,10.646,2.370,17.586,10.852,-3.662,15.851,7.937,11.406,8.320,6.615
Thu Dec 05 12:56:07 2024,940,-24.573,-24.573,21.919,21.919,0.452,21.631,10.764,2.371,17.598,10.925,-3.669,15.785,7.966,11.459,8.250,6.756
Thu Dec 05 12:56:07 2024,945,-24.615,-24.615,23.060,23.060,0.498,21.475,10.880,2.380,17.600,11.003,-3.652,15.728,7.990,11.570,8.120,6.896
Thu Dec 05 12:56:07 2024,950,-24.629,-24.629,24.158,24.158,0.545,21.319,10.963,2.384,17.602,11.000,-3.629,15.691,7.968,11.667,7.999,6.983
Thu Dec 05 12:56:07 2024,955,-24.636,-24.636,25.262,25.262,0.593,21.168,11.037,2.386,17.603,10.976,-3.604,15.656,7.933,11.762,7.878,7.058
Thu Dec 05 12:56:07 2024,960,-24.617,-24.617,26.593,26.593,0.605,21.034,11.059,2.369,17.620,10.921,-3.598,15.635,7.878,11.820,7.819,7.131
Thu Dec 05 12:56:07 2024,965,-24.591,-24.591,27.944,27.944,0.606,20.908,11.066,2.347,17.642,10.861,-3.598,15.620,7.819,11.864,7.780,7.202
Thu Dec 05 12:56:07 2024,970,-24.601,-24.601,29.233,29.233,0.601,20.777,11.107,2.338,17.649,10.836,-3.577,15.609,7.790,11.938,7.711,7.302
Thu Dec 05 12:56:07 2024,975,-24.757,-24.757,30.275,30.275,0.571,20.645,11.286,2.381,17.601,10.958,-3.480,15.613,7.879,12.125,7.526,7.522
Thu Dec 05 12:56:07 2024,980,-24.935,-24.935,31.254,31.254,0.512,20.542,11.451,2.423,17.543,11.064,-3.384,15.656,7.953,12.281,7.373,7.683
Thu Dec 05 12:56:07 2024,985,-25.093,-25.093,31.789,31.789,0.418,20.476,11.540,2.452,22.525,11.108,-3.319,15.768,7.977,12.330,7.328,7.680
Thu Dec 05 12:56:07 2024,990,-25.244,-25.244,32.393,32.393,0.325,20.417,11.602,2.474,22.598,11.143,-3.257,15.870,7.994,12.387,7.285,7.688
Thu Dec 05 12:56:07 2024,995,-25.239,-25.239,32.767,32.767,0.306,20.378,11.519,2.457,22.599,11.120,-3.250,15.863,7.974,12.424,7.283,7.727
Thu Dec 05 12:56:08 2024,0,-25.232,-25.232,33.265,33.265,0.280,20.329,11.410,2.434,22.602,11.089,-3.240,15.854,7.949,12.473,7.278,7.778
Thu Dec 05 12:56:08 2024,5,-25.157,-25.157,33.394,33.394,0.100,19.999,11.298,2.255,22.398,10.975,-3.392,15.665,7.881,12.381,7.362,7.662
Thu Dec 05 12:56:08 2024,10,-25.078,-25.078,33.487,33.487,-0.086,19.778,11.186,2.063,22.178,10.855,-3.556,15.460,7.809,12.277,7.454,7.533
Thu Dec 05 12:56:08 2024,15,-24.954,-24.954,33.524,33.524,-0.248,19.522,11.170,1.897,21.952,10.788,-3.703,15.244,7.833,12.232,7.496,7.580
Thu Dec 05 12:56:08 2024,20,-24.834,-24.834,33.530,33.530,-0.368,19.306,11.196,1.769,18.220,10.756,-3.818,15.056,7.895,12.218,7.511,7.700
Thu Dec 05 12:56:08 2024,25,-24.689,-24.689,33.277,33.277,-0.428,18.962,11.134,1.675,18.318,10.713,-3.914,14.787,7.920,12.170,7.512,7.728
Thu Dec 05 12:56:08 2024,30,-24.565,-24.565,32.904,32.904,-0.428,18.601,11.027,1.631,18.299,10.676,-3.969,14.528,7.911,12.111,7.496,7.685
Thu Dec 05 12:56:08 2024,35,-24.468,-24.468,32.460,32.460,-0.415,18.222,10.890,1.578,18.225,10.599,-4.023,14.241,7.865,12.038,7.476,7.616
Thu Dec 05 12:56:08 2024,40,-24.517,-24.517,32.063,32.063,-0.375,18.022,10.732,1.523,18.194,10.446,-4.045,14.044,7.726,11.959,7.478,7.504
Thu Dec 05 12:56:08 2024,45,-24.570,-24.570,31.724,31.724,-0.348,17.848,10.619,1.474,18.152,10.336,-4.078,13.843,7.614,11.886,7.475,7.412
Thu Dec 05 12:56:08 2024,50,-24.658,-24.658,31.474,31.474,-0.360,17.702,10.630,1.418,18.084,10.352,-4.174,13.532,7.562,11.806,7.465,7.365
Thu Dec 05 12:56:08 2024,55,-24.740,-24.740,31.232,31.232,-0.376,17.575,10.642,1.368,18.016,10.364,-4.258,13.269,7.520,11.733,7.456,7.328
Thu Dec 05 12:56:08 2024,60,-24.760,-24.760,31.002,31.002,-0.396,17.549,10.636,1.358,18.020,10.333,-4.252,13.316,7.527,11.707,7.483,7.341
Thu Dec 05 12:56:08 2024,65,-24.778,-24.778,30.743,30.743,-0.420,17.532,10.626,1.351,18.035,10.293,-4.234,13.404,7.542,11.682,7.517,7.362
Thu Dec 05 12:56:08 2024,70,-24.867,-24.867,30.513,30.513,-0.493,17.457,10.608,1.308,18.045,10.253,-4.213,13.459,7.541,11.617,7.567,7.327
Thu Dec 05 12:56:08 2024,75,-24.970,-24.970,30.303,30.303,-0.576,17.370,10.588,1.258,18.052,10.216,-4.192,13.502,7.536,11.544,7.619,7.278
Thu Dec 05 12:56:08 2024,80,-25.133,-25.133,30.122,30.122,-0.621,17.380,10.623,1.246,18.111,10.258,-4.151,13.582,7.565,11.576,7.617,7.264
Thu Dec 05 12:56:08 2024,85,-25.309,-25.309,29.988,29.988,-0.634,17.452,10.687,1.260,18.190,10.343,-4.104,13.675,7.611,11.671,7.579,7.275
Thu Dec 05 12:56:08 2024,90,-25.480,-25.480,29.826,29.826,-0.671,17.435,10.722,1.259,18.259,10.411,-4.067,13.769,7.658,11.726,7.575,7.292
Thu Dec 05 12:56:08 2024,95,-25.572,-25.572,29.682,29.682,-0.732,17.282,10.696,1.234,18.290,10.424,-4.059,13.830,7.687,11.694,7.628,7.312
Thu Dec 05 12:56:08 2024,100,-25.685,-25.685,29.498,29.498,-0.797,17.147,10.676,1.210,18.329,10.438,-4.046,13.895,7.715,11.669,7.674,7.327
Thu Dec 05 12:56:08 2024,105,-25.815,-25.815,29.261,29.261,-0.837,17.175,10.695,1.206,18.375,10.453,-4.019,13.941,7.724,11.690,7.665,7.306
Thu Dec 05 12:56:08 2024,110,-25.938,-25.938,29.040,29.040,-0.874,17.198,10.713,1.206,18.421,10.471,-3.988,14.000,7.732,11.716,7.655,7.282
Thu Dec 05 12:56:08 2024,115,-25.974,-25.974,29.028,29.028,-0.882,17.184,10.718,1.238,18.456,10.508,-3.944,14.136,7.736,11.756,7.650,7.244
Thu Dec 05 12:56:08 2024,120,-25.991,-25.991,29.050,29.050,-0.884,17.166,10.719,1.271,18.481,10.543,-3.904,14.267,7.738,11.794,7.645,7.209
Thu Dec 05 12:56:08 2024,125,-26.049,-26.049,28.965,28.965,-0.899,17.217,10.806,1.300,18.487,10.553,-3.868,14.374,7.778,11.813,7.626,7.184
Thu Dec 05 12:56:08 2024,130,-26.112,-26.112,28.859,28.859,-0.916,17.280,10.908,1.326,18.487,10.557,-3.834,14.469,7.825,11.827,7.605,7.161
Thu Dec 05 12:56:08 2024,135,-26.134,-26.134,28.846,28.846,-0.957,17.254,10.948,1.337,18.486,10.595,-3.849,14.486,7.857,11.808,7.642,7.171
Thu Dec 05 12:56:08 2024,140,-26.133,-26.133,28.891,28.891,-1.025,17.162,10.954,1.342,18.486,10.665,-3.900,14.456,7.887,11.764,7.726,7.204
Thu Dec 05 12:56:08 2024,145,-26.138,-26.138,28.910,28.910,-1.068,17.122,10.966,1.321,18.520,10.710,-3.929,14.461,7.920,11.734,7.773,7.222
Thu Dec 05 12:56:08 2024,150,-26.149,-26.149,28.899,28.899,-1.082,17.144,10.981,1.276,18.584,10.722,-3.929,14.502,7.952,11.725,7.775,7.224
Thu Dec 05 12:56:08 2024,155,-26.146,-26.146,28.916,28.916,-1.083,17.153,10.991,1.235,18.632,10.735,-3.936,14.522,7.980,11.719,7.775,7.232
Thu Dec 05 12:56:08 2024,160,-26.094,-26.094,29.029,29.029,-1.035,17.108,10.975,1.232,18.589,10.743,-3.966,14.455,7.981,11.731,7.767,7.256
Thu Dec 05 12:56:08 2024,165,-26.045,-26.045,29.146,29.146,-0.994,17.074,10.970,1.229,18.551,10.747,-3.985,14.406,7.977,11.736,7.761,7.274
Thu Dec 05 12:56:08 2024,170,-25.987,-25.987,29.320,29.320,-0.964,17.090,11.008,1.214,18.560,10.741,-3.975,14.419,7.962,11.719,7.760,7.283
Thu Dec 05 12:56:08 2024,175,-25.914,-25.914,29.543,29.543,-0.931,17.121,11.063,1.192,18.583,10.732,-3.956,14.449,7.942,11.693,7.759,7.291
Thu Dec 05 12:56:08 2024,180,-25.762,-25.762,30.286,30.286,-0.810,17.259,11.022,1.185,18.533,10.644,-3.952,14.394,7.888,11.597,7.842,7.282
Thu Dec 05 12:56:08 2024,185,-25.610,-25.610,31.075,31.075,-0.679,17.408,10.962,1.183,18.465,10.545,-3.951,14.325,7.830,11.493,7.939,7.270
Thu Dec 05 12:56:08 2024,190,-25.295,-25.295,31.814,31.814,-0.599,17.621,10.988,1.225,18.448,10.474,-3.922,14.376,7.777,11.521,7.918,7.260
Thu Dec 05 12:56:08 2024,195,-24.893,-24.893,32.514,32.514,-0.550,17.876,11.066,1.292,18.455,10.421,-3.877,14.499,7.726,11.630,7.828,7.252
Thu Dec 05 12:56:08 2024,200,-24.581,-24.581,33.035,33.035,-0.509,18.109,11.072,1.357,18.473,10.405,-3.832,14.660,7.695,11.648,7.843,7.225
Thu Dec 05 12:56:08 2024,205,-24.314,-24.314,33.470,33.470,-0.472,18.334,11.044,1.421,18.486,10.408,-3.786,14.838,7.674,11.622,7.908,7.190
Thu Dec 05 12:56:08 2024,210,-24.112,-24.112,33.839,33.839,-0.424,18.646,11.051,1.507,18.466,10.418,-3.744,15.056,7.606,11.593,7.979,7.095
Thu Dec 05 12:56:08 2024,215,-24.058,-24.058,34.068,34.068,-0.348,19.176,11.179,1.652,19.496,10.435,-3.722,15.349,7.407,11.587,8.030,6.846
Thu Dec 05 12:56:08 2024,220,-24.032,-24.032,34.228,34.228,-0.285,19.576,11.285,1.771,21.955,10.449,-3.703,15.566,7.247,11.585,8.065,6.643
Thu Dec 05 12:56:08 2024,225,-24.074,-24.074,34.022,34.022,-0.138,20.211,11.611,2.047,22.365,10.635,-3.392,16.061,7.318,11.839,7.857,6.694
Thu Dec 05 12:56:08 2024,230,-24.127,-24.127,33.796,33.796,0.000,20.615,11.945,2.327,22.778,10.828,-3.066,16.552,7.407,12.107,7.630,6.764
Thu Dec 05 12:56:08 2024,235,-24.208,-24.208,32.708,32.708,0.088,20.704,11.942,2.228,22.614,10.857,-3.176,16.529,7.439,12.016,7.710,6.666
Thu Dec 05 12:56:08 2024,240,-24.289,-24.289,31.498,31.498,0.145,20.707,11.860,2.044,22.327,10.844,-3.384,16.378,7.458,11.846,7.859,6.534
Thu Dec 05 12:56:08 2024,245,-24.372,-24.372,29.866,29.866,0.082,20.829,11.756,1.984,22.251,10.791,-3.576,16.252,7.497,11.705,8.016,6.423
Thu Dec 05 12:56:08 2024,250,-24.468,-24.468,27.829,27.829,-0.048,21.039,11.626,1.973,22.258,10.710,-3.790,16.105,7.552,11.556,8.200,6.306
Thu Dec 05 12:56:08 2024,255,-24.516,-24.516,25.863,25.863,-0.099,21.360,11.516,2.031,22.381,10.736,-3.861,16.069,7.604,11.500,8.291,6.183
Thu Dec 05 12:56:08 2024,260,-24.528,-24.528,23.368,23.368,-0.085,21.896,11.392,2.186,22.684,10.888,-3.796,23.846,7.671,11.533,8.308,6.012
Thu Dec 05 12:56:08 2024,265,-24.524,-24.524,21.139,21.139,-0.084,22.391,11.298,2.351,22.994,10.972,-3.690,23.712,7.716,11.631,8.257,5.868
Thu Dec 05 12:56:08 2024,270,-24.497,-24.497,18.803,18.803,-0.101,22.925,11.239,2.567,23.375,10.960,-3.494,23.494,7.736,11.862,8.081,5.736
Thu Dec 05 12:56:08 2024,275,-24.448,-24.448,16.704,16.704,-0.140,23.285,11.116,2.678,23.625,10.986,-3.353,23.376,7.786,12.034,7.938,5.620
Thu Dec 05 12:56:08 2024,280,-24.369,-24.369,14.677,14.677,-0.202,23.500,10.924,2.699,23.764,11.050,-3.256,23.317,7.871,12.162,7.829,5.513
Thu Dec 05 12:56:08 2024,285,-24.266,-24.266,12.502,12.502,-0.284,23.648,10.673,2.665,23.852,11.145,-3.177,23.298,7.983,12.274,7.725,5.400
Thu Dec 05 12:56:08 2024,290,-24.232,-24.232,10.832,10.832,-0.287,23.687,10.423,2.805,24.085,11.256,-3.137,23.239,7.994,12.422,7.577,5.445
Thu Dec 05 12:56:08 2024,295,-24.244,-24.244,9.961,10.110,-0.288,23.725,10.345,2.859,24.160,11.281,-3.092,23.194,8.029,12.526,7.471,5.484
Thu Dec 05 12:56:08 2024,300,-24.256,-24.256,9.090,9.388,-0.289,23.763,10.267,2.912,24.235,11.306,-3.048,23.150,8.064,12.630,7.365,5.522
Thu Dec 05 12:56:08 2024,305,-24.268,-24.268,8.219,8.666,-0.290,23.801,10.189,2.966,24.310,11.330,-3.003,23.105,8.099,12.733,7.259,5.561
Thu Dec 05 12:56:08 2024,310,-24.279,-24.279,7.348,7.944,-0.291,23.838,10.110,3.019,24.384,11.355,-2.958,23.061,8.134,12.837,7.153,5.600
Thu Dec 05 12:56:08 2024,315,-24.291,-24.291,6.478,7.222,-0.291,23.876,10.032,3.073,24.459,11.380,-2.913,23.016,8.169,12.941,7.047,5.638
Thu Dec 05 12:56:08 2024,320,-24.303,-24.303,5.607,6.500,-0.292,23.914,9.954,3.127,24.534,11.405,-2.869,22.972,8.204,13.045,6.941,5.677
Thu Dec 05 12:56:08 2024,325,-24.315,-24.315,4.736,5.778,-0.293,23.952,9.876,3.180,24.609,11.429,-2.824,22.927,8.240,13.148,6.835,5.716
Thu Dec 05 12:56:08 2024,330,-24.327,-24.327,3.865,5.056,-0.294,23.990,9.798,3.234,24.684,11.454,-2.779,22.883,8.275,13.252,6.729,5.754
Thu Dec 05 12:56:08 2024,335,-24.339,-24.339,2.994,4.333,-0.295,24.028,9.720,3.287,24.759,11.479,-2.735,22.838,8.310,13.356,6.623,5.793
Thu Dec 05 12:56:08 2024,340,-24.350,-24.350,2.123,3.611,-0.296,24.066,9.641,3.341,24.834,11.504,-2.690,22.793,8.345,13.460,6.517,5.832
Thu Dec 05 12:56:08 2024,345,-24.362,-24.362,1.252,2.889,-0.297,24.104,9.563,3.395,24.908,11.529,-2.645,22.749,8.380,13.563,6.411,5.870
Thu Dec 05 12:56:08 2024,350,-24.374,-24.374,0.381,2.167,-0.298,24.141,9.485,3.448,24.983,11.553,-2.601,22.704,8.415,13.667,6.306,5.909
Thu Dec 05 12:56:08 2024,355,-24.386,-24.386,-0.489,1.445,-0.298,24.179,9.407,3.502,25.058,11.578,-2.556,22.660,8.450,13.771,6.200,5.948
Thu Dec 05 12:56:08 2024,360,-24.400,-24.400,-0.878,0.878,-0.315,24.216,9.370,3.548,25.139,11.635,-2.499,22.608,8.512,13.873,6.092,6.030
Thu Dec 05 12:56:08 2024,365,-24.398,-24.398,-0.577,0.577,-0.345,24.180,9.373,3.560,25.155,11.675,-2.493,22.585,8.543,13.961,6.001,6.100
Thu Dec 05 12:56:08 2024,370,-24.383,-24.383,-0.414,0.414,-0.368,24.102,9.362,3.554,25.122,11.668,-2.533,22.597,8.525,14.029,5.935,6.112
Thu Dec 05 12:56:08 2024,375,-24.370,-24.370,-0.432,-0.014,-0.368,24.051,9.354,3.546,25.081,11.659,-2.544,22.592,8.518,14.062,5.905,6.094
Thu Dec 05 12:56:08 2024,380,-24.353,-24.353,-0.582,-0.582,-0.332,24.044,9.346,3.533,25.016,11.643,-2.506,22.551,8.529,14.037,5.935,6.021
Thu Dec 05 12:56:08 2024,385,-24.351,-24.351,-0.735,-0.735,-0.319,24.025,9.342,3.526,24.987,11.641,-2.484,22.526,8.537,14.028,5.946,5.995
Thu Dec 05 12:56:08 2024,390,-24.382,-24.382,-0.904,-0.904,-0.363,23.954,9.342,3.531,25.023,11.672,-2.489,22.527,8.544,14.059,5.911,6.072
Thu Dec 05 12:56:08 2024,395,-24.413,-24.413,-1.080,-1.080,-0.405,23.886,9.343,3.535,25.059,11.701,-2.494,22.527,8.551,14.088,5.877,6.147
Thu Dec 05 12:56:08 2024,400,-24.431,-24.431,-1.238,-1.238,-0.396,23.808,9.291,3.513,24.962,11.632,-2.516,22.534,8.533,14.122,5.845,6.164
Thu Dec 05 12:56:08 2024,405,-24.446,-24.446,-1.378,-1.378,-0.383,23.737,9.238,3.490,24.864,11.561,-2.538,22.545,8.515,14.153,5.816,6.174
Thu Dec 05 12:56:08 2024,410,-24.541,-24.541,-1.399,-1.399,-0.351,23.711,9.275,3.535,24.875,11.576,-2.547,22.551,8.501,14.193,5.779,6.144
Thu Dec 05 12:56:08 2024,415,-24.670,-24.670,-1.389,-1.389,-0.310,23.694,9.340,3.604,24.917,11.616,-2.553,22.556,8.486,14.241,5.735,6.100
Thu Dec 05 12:56:08 2024,420,-24.797,-24.797,-1.232,-1.232,-0.308,23.712,9.397,3.627,24.933,11.633,-2.505,22.511,8.549,14.287,5.694,6.116
Thu Dec 05 12:56:08 2024,425,-24.923,-24.923,-1.017,-1.017,-0.323,23.745,9.449,3.630,24.937,11.639,-2.432,22.446,8.646,14.330,5.654,6.156
Thu Dec 05 12:56:08 2024,430,-25.061,-25.061,-0.758,-0.758,-0.352,23.794,9.474,3.617,24.967,11.623,-2.394,22.417,8.660,14.348,5.634,6.162
Thu Dec 05 12:56:08 2024,435,-25.229,-25.229,-0.469,-0.469,-0.402,23.869,9.471,3.583,25.033,11.579,-2.394,22.426,8.579,14.335,5.635,6.125
Thu Dec 05 12:56:08 2024,440,-25.433,-25.433,-0.482,0.482,-0.421,23.949,9.496,3.563,25.085,11.559,-2.373,22.422,8.549,14.317,5.645,6.097
Thu Dec 05 12:56:08 2024,445,-25.739,-25.739,1.303,1.303,-0.386,24.053,9.576,3.566,25.116,11.580,-2.307,22.398,8.612,14.286,5.679,6.079
Thu Dec 05 12:56:08 2024,450,-25.996,-25.996,2.109,2.109,-0.353,24.129,9.640,3.569,25.139,11.585,-2.247,22.385,8.651,14.250,5.717,6.053
Thu Dec 05 12:56:08 2024,455,-26.240,-26.240,3.490,3.490,-0.287,24.058,9.682,3.570,25.133,11.441,-2.139,22.338,8.522,14.102,5.869,5.900
Thu Dec 05 12:56:08 2024,460,-26.415,-26.415,4.456,4.456,-0.242,24.010,9.711,3.570,25.129,11.341,-2.063,22.313,8.433,13.998,5.975,5.793
Thu Dec 05 12:56:08 2024,465,-26.636,-26.636,5.949,5.949,-0.291,23.886,9.915,3.480,25.065,11.254,-1.970,22.319,8.410,13.989,5.982,5.769
Thu Dec 05 12:56:08 2024,470,-26.847,-26.847,7.424,7.424,-0.369,23.756,10.150,3.372,24.991,11.185,-1.885,22.348,8.414,14.012,5.954,5.775
Thu Dec 05 12:56:08 2024,475,-27.017,27.017,8.584,8.584,-0.429,23.655,10.334,3.287,24.933,11.130,-1.818,22.383,8.417,14.030,5.932,5.781
Thu Dec 05 12:56:08 2024,480,-27.116,27.116,9.254,9.254,-0.463,23.597,10.440,3.238,24.901,11.099,-1.779,22.407,8.419,14.040,5.920,5.784
Thu Dec 05 12:56:08 2024,485,-27.385,27.385,14.831,14.831,-0.540,23.141,11.154,3.181,24.528,11.228,-2.200,22.424,8.309,13.554,6.445,5.963
Thu Dec 05 12:56:08 2024,490,-27.545,27.545,17.213,17.213,-0.591,22.950,11.471,3.127,24.380,11.250,-2.316,22.474,8.273,13.395,6.604,6.027
Thu Dec 05 12:56:08 2024,495,-27.737,27.737,20.052,20.052,-0.657,22.803,11.780,3.033,24.224,11.268,-2.487,22.580,8.215,13.227,6.766,6.139
Thu Dec 05 12:56:08 2024,500,-27.958,27.958,23.217,23.217,-0.740,22.830,11.957,2.858,24.098,11.267,-2.748,22.789,8.121,13.095,6.895,6.340
Thu Dec 05 12:56:08 2024,505,-28.053,28.053,26.957,26.957,-0.845,22.635,12.152,2.658,23.922,11.371,-3.014,23.017,8.098,12.969,7.015,6.688
Thu Dec 05 12:56:08 2024,510,-27.604,27.604,30.001,30.001,-0.946,21.791,12.266,2.504,23.669,11.793,-3.100,23.116,8.358,12.959,7.015,7.337
Thu Dec 05 12:56:08 2024,515,-27.166,-27.166,33.023,33.023,-1.035,21.181,12.378,2.355,23.421,12.209,-3.178,16.722,8.613,12.952,7.010,7.973
Thu Dec 05 12:56:08 2024,520,-26.611,-26.611,34.160,34.160,-1.129,18.773,12.314,2.104,22.588,12.323,-3.316,16.250,8.926,12.878,7.065,8.555
Thu Dec 05 12:56:08 2024,525,-26.130,-26.130,35.016,35.016,-1.194,18.167,12.247,1.900,21.996,12.395,-3.419,15.704,9.198,12.816,7.106,9.041
Thu Dec 05 12:56:08 2024,530,-25.958,-25.958,34.926,34.926,-1.297,17.343,12.168,1.861,18.139,12.629,-3.477,15.146,9.518,12.778,7.121,9.538
Thu Dec 05 12:56:08 2024,535,-25.975,-25.975,34.533,34.533,-1.371,16.832,12.121,1.890,18.099,12.816,-3.496,14.826,9.718,12.764,7.120,9.827
Thu Dec 05 12:56:08 2024,540,-25.787,-25.787,34.422,34.422,-1.194,16.018,12.039,1.995,17.807,12.982,-3.415,14.329,9.989,12.822,7.008,10.231
Thu Dec 05 12:56:08 2024,545,-25.436,-25.436,34.689,34.689,-0.806,15.106,11.949,2.151,17.156,13.066,-3.250,13.795,10.238,12.944,6.802,10.612
Thu Dec 05 12:56:08 2024,550,-25.145,-25.145,34.946,34.946,-0.506,14.468,11.945,2.302,16.712,13.054,-3.105,13.560,10.370,13.129,6.585,10.835
Thu Dec 05 12:56:08 2024,555,-25.075,25.075,35.064,35.064,-0.485,14.657,12.095,2.367,17.008,12.877,-3.063,14.006,10.242,13.345,6.456,10.693
Thu Dec 05 12:56:08 2024,560,-25.024,25.024,35.064,35.064,-0.448,14.641,12.117,2.413,17.157,12.642,-2.980,14.386,10.092,13.602,6.261,10.573
Thu Dec 05 12:56:08 2024,565,-25.032,25.032,34.736,34.736,-0.384,14.140,11.828,2.398,17.047,12.338,-2.827,14.519,9.932,13.881,5.998,10.538
Thu Dec 05 12:56:08 2024,570,-25.075,25.075,34.437,34.437,-0.320,13.612,11.522,2.378,16.910,12.019,-2.666,14.649,9.770,14.169,5.727,10.503
Thu Dec 05 12:56:08 2024,575,-25.175,25.175,35.385,35.385,-0.421,13.521,11.463,2.271,16.649,12.003,-2.646,14.456,9.890,14.063,5.808,10.532
Thu Dec 05 12:56:08 2024,580,-25.294,25.294,36.329,36.329,-0.519,13.432,11.408,2.169,16.349,11.987,-2.625,14.268,10.006,13.964,5.882,10.560
Thu Dec 05 12:56:08 2024,585,-25.379,25.379,36.523,36.523,-0.587,13.398,11.440,1.979,16.077,11.988,-2.556,14.209,10.164,13.831,5.992,10.551
Thu Dec 05 12:56:08 2024,590,-25.494,25.494,36.403,36.403,-0.635,13.389,11.501,1.780,15.828,11.995,-2.477,14.206,10.319,13.701,6.101,10.530
Thu Dec 05 12:56:08 2024,595,-25.631,25.631,35.894,35.894,-0.642,13.280,11.580,1.613,15.518,12.012,-2.383,14.152,10.496,13.642,6.137,10.560
Thu Dec 05 12:56:08 2024,600,-25.804,25.804,35.193,35.193,-0.628,13.120,11.668,1.461,15.167,12.031,-2.282,14.072,10.684,13.615,6.140,10.614
Thu Dec 05 12:56:08 2024,605,-25.963,25.963,34.478,34.478,-0.589,13.109,11.689,1.383,14.979,12.045,-2.164,14.057,10.826,13.627,6.133,10.681
Thu Dec 05 12:56:08 2024,610,-26.077,26.077,33.690,33.690,-0.512,13.311,11.613,1.404,15.034,12.048,-2.018,14.137,10.908,13.695,6.112,10.773
Thu Dec 05 12:56:08 2024,615,-26.315,26.315,32.955,32.955,-0.481,13.525,11.608,1.388,15.086,12.093,-1.929,14.253,11.042,13.743,6.105,10.871
Thu Dec 05 12:56:08 2024,620,-26.684,26.684,32.509,32.509,-0.542,13.707,11.743,1.305,15.115,12.207,-1.972,14.408,11.241,13.743,6.129,10.956
Thu Dec 05 12:56:08 2024,625,-27.027,27.027,32.105,32.105,-0.601,13.874,11.859,1.229,15.138,12.305,-2.011,14.540,11.418,13.737,6.154,11.033
Thu Dec 05 12:56:08 2024,630,-27.109,27.109,32.071,32.071,-0.650,13.942,11.796,1.216,15.132,12.266,-1.998,14.470,11.392,13.677,6.214,11.051
Thu Dec 05 12:56:08 2024,635,-27.188,27.188,32.039,32.039,-0.695,14.005,11.738,1.203,15.127,12.230,-1.986,14.404,11.368,13.621,6.269,11.067
Thu Dec 05 12:56:08 2024,640,-27.298,27.298,32.052,32.052,-0.692,14.178,11.730,1.188,15.151,12.176,-1.964,14.477,11.346,13.660,6.240,11.064
Thu Dec 05 12:56:08 2024,645,-27.386,27.386,32.073,32.073,-0.678,14.331,11.738,1.175,15.175,12.131,-1.944,14.564,11.332,13.711,6.196,11.058
Thu Dec 05 12:56:08 2024,650,-27.414,27.414,32.164,32.164,-0.670,14.418,11.790,1.136,15.083,12.082,-1.952,14.564,11.331,13.734,6.175,11.061
Thu Dec 05 12:56:08 2024,655,-27.406,27.406,32.299,32.299,-0.665,14.471,11.873,1.078,14.916,12.030,-1.976,14.510,11.339,13.739,6.165,11.070
Thu Dec 05 12:56:08 2024,660,-27.381,27.381,32.297,32.297,-0.680,14.534,11.876,1.048,14.930,12.032,-1.982,14.530,11.356,13.726,6.178,11.076
Thu Dec 05 12:56:08 2024,665,-27.344,27.344,32.201,32.201,-0.708,14.607,11.826,1.036,15.072,12.073,-1.976,14.601,11.380,13.699,6.207,11.081
Thu Dec 05 12:56:08 2024,670,-27.315,27.315,32.120,32.120,-0.720,14.626,11.797,1.032,15.124,12.088,-1.981,14.616,11.388,13.684,6.219,11.078
Thu Dec 05 12:56:08 2024,675,-27.298,27.298,32.057,32.057,-0.693,14.507,11.817,1.046,14.953,12.039,-2.018,14.484,11.356,13.698,6.189,11.054
Thu Dec 05 12:56:08 2024,680,-27.256,27.256,32.013,32.013,-0.665,14.380,11.835,1.063,14.783,11.990,-2.054,14.346,11.318,13.710,6.161,11.029
Thu Dec 05 12:56:08 2024,685,-27.084,27.084,32.129,32.129,-0.652,14.327,11.814,1.082,14.782,11.985,-2.042,14.304,11.279,13.696,6.168,11.016
Thu Dec 05 12:56:08 2024,690,-26.922,26.922,32.242,32.242,-0.639,14.276,11.794,1.099,14.781,11.980,-2.032,14.264,11.242,13.683,6.176,11.003
Thu Dec 05 12:56:08 2024,695,-26.482,26.482,32.546,32.546,-0.598,14.152,11.816,1.175,14.757,12.034,-2.126,14.063,11.202,13.646,6.190,11.023
Thu Dec 05 12:56:08 2024,700,-26.080,26.080,32.831,32.831,-0.560,14.036,11.838,1.246,14.733,12.086,-2.216,13.873,11.166,13.611,6.201,11.044
Thu Dec 05 12:56:08 2024,705,-25.701,25.701,33.272,33.272,-0.554,13.896,11.936,1.341,14.703,12.193,-2.337,13.611,11.087,13.665,6.135,11.114
Thu Dec 05 12:56:08 2024,710,-25.289,25.289,33.852,33.852,-0.562,13.723,12.086,1.461,14.664,12.342,-2.491,13.276,10.980,13.769,6.022,11.219
Thu Dec 05 12:56:08 2024,715,-24.842,24.842,34.333,34.333,-0.522,13.619,12.024,1.587,14.702,12.333,-2.666,13.080,10.808,13.830,5.973,11.244
Thu Dec 05 12:56:08 2024,720,-24.264,24.264,34.894,34.894,-0.439,13.529,11.807,1.751,14.797,12.219,-2.905,12.914,10.543,13.879,5.951,11.223
Thu Dec 05 12:56:08 2024,725,-23.753,23.753,35.600,35.600,-0.318,13.512,11.696,1.945,14.791,12.163,-2.949,12.727,10.317,13.882,5.926,11.088
Thu Dec 05 12:56:08 2024,730,-23.411,23.411,36.278,36.278,-0.191,13.573,11.722,2.124,14.679,12.182,-2.776,12.555,10.185,13.833,5.896,10.862
Thu Dec 05 12:56:08 2024,735,-23.087,23.087,37.007,37.007,-0.103,13.628,11.783,2.314,14.561,12.236,-2.580,12.346,10.063,13.780,5.848,10.651
Thu Dec 05 12:56:08 2024,740,-23.221,23.221,37.412,37.412,0.119,13.591,12.063,2.364,14.583,12.522,-2.419,12.156,10.178,13.780,5.790,10.837
Thu Dec 05 12:56:08 2024,745,-23.347,23.347,37.789,37.789,0.155,13.554,12.331,2.413,14.604,12.796,-2.268,11.967,10.288,13.779,5.733,11.017
Thu Dec 05 12:56:08 2024,750,-23.144,23.144,37.892,37.892,0.224,13.465,12.436,2.461,14.574,13.004,-2.523,11.639,10.299,13.622,5.793,11.073
Thu Dec 05 12:56:08 2024,755,-22.955,22.955,37.940,37.940,0.285,13.390,12.498,2.499,14.546,13.156,-2.765,11.371,10.297,13.483,5.848,11.102
Thu Dec 05 12:56:08 2024,760,-22.375,22.375,37.095,37.095,0.337,13.548,12.508,2.586,14.591,13.183,-2.834,11.390,10.307,13.442,5.947,11.136
Thu Dec 05 12:56:08 2024,765,-21.782,21.782,36.183,36.183,0.385,13.733,12.508,2.675,14.644,13.186,-2.869,11.456,10.317,13.420,6.044,11.169
Thu Dec 05 12:56:08 2024,770,-21.229,21.229,35.095,35.095,0.398,14.204,12.609,2.756,14.859,13.350,-2.907,11.468,10.280,13.373,6.183,11.199
Thu Dec 05 12:56:08 2024,775,-20.757,20.757,34.044,34.044,0.397,14.757,12.743,2.829,15.115,13.570,-2.943,11.457,10.228,13.320,6.321,11.225
Thu Dec 05 12:56:08 2024,780,-21.059,21.059,32.716,32.716,0.532,15.672,12.856,2.917,15.682,13.626,-3.038,11.820,9.918,13.211,6.493,10.898
Thu Dec 05 12:56:08 2024,785,-21.941,21.941,31.278,31.278,0.785,16.775,12.940,3.030,16.325,13.550,-3.161,12.451,9.424,13.069,6.679,10.312
Thu Dec 05 12:56:08 2024,790,-22.407,22.407,29.175,29.175,0.694,17.865,12.726,2.840,16.924,12.971,-3.341,13.290,8.826,12.991,6.854,9.572
Thu Dec 05 12:56:08 2024,795,-22.161,22.161,27.173,27.173,0.196,18.525,12.246,2.332,17.486,12.026,-3.534,13.975,8.365,13.017,6.919,8.966
Thu Dec 05 12:56:08 2024,800,-21.990,21.990,24.348,24.348,-0.332,19.267,11.595,1.876,18.072,11.044,-3.688,14.789,7.871,13.064,6.930,8.155
Thu Dec 05 12:56:08 2024,805,-22.243,22.243,21.486,21.486,-0.364,20.395,11.049,2.108,17.853,10.995,-3.522,15.454,7.785,13.149,6.850,7.510
Thu Dec 05 12:56:08 2024,810,-22.582,22.582,18.486,18.486,-0.420,21.100,10.513,2.361,22.683,10.985,-3.327,16.095,7.739,13.269,6.714,6.872
Thu Dec 05 12:56:08 2024,815,-23.523,23.523,15.543,15.543,-0.711,22.004,10.457,2.595,23.132,11.350,-3.024,16.587,8.111,13.591,6.346,6.773
Thu Dec 05 12:56:08 2024,820,-24.301,24.301,13.098,13.098,-0.949,22.749,10.409,2.787,23.519,11.653,-2.774,16.976,8.421,13.857,6.022,6.689
Thu Dec 05 12:56:08 2024,825,-24.845,24.845,10.266,10.266,-1.088,23.379,10.245,3.045,23.889,11.871,-2.404,17.435,8.693,14.172,5.656,6.688
Thu Dec 05 12:56:08 2024,830,-25.318,25.318,7.606,7.606,-1.201,23.944,10.078,3.290,24.227,12.062,-2.048,17.860,8.940,14.469,5.310,6.697
Thu Dec 05 12:56:08 2024,835,-25.707,25.707,6.118,6.118,-1.146,23.958,9.941,3.382,24.303,11.994,-1.924,17.999,8.941,14.592,5.176,6.670
Thu Dec 05 12:56:08 2024,840,-26.190,26.190,4.398,4.398,-1.052,23.897,9.772,3.476,24.364,11.872,-1.801,18.135,8.907,14.722,5.038,6.632
Thu Dec 05 12:56:08 2024,845,-26.373,26.373,-2.848,2.848,-0.774,24.033,9.566,3.529,24.416,11.657,-1.632,21.654,8.856,14.862,4.872,6.590
Thu Dec 05 12:56:08 2024,850,-26.453,26.453,-1.584,1.584,-0.468,24.241,9.368,3.564,24.462,11.438,-1.466,21.466,8.806,14.990,4.714,6.550
Thu Dec 05 12:56:08 2024,855,-26.391,26.391,-0.807,0.807,-0.248,24.406,9.193,3.602,24.554,11.371,-1.381,21.414,8.846,15.017,4.673,6.551
Thu Dec 05 12:56:08 2024,860,-26.234,26.234,-1.030,-1.030,-0.120,24.508,9.054,3.637,24.675,11.433,-1.371,21.518,8.954,14.957,4.733,6.582
Thu Dec 05 12:56:08 2024,865,-26.168,26.168,-1.485,-1.485,-0.069,24.642,8.986,3.673,24.794,11.483,-1.351,21.610,9.015,14.931,4.740,6.650
Thu Dec 05 12:56:08 2024,870,-26.171,26.171,-1.967,-1.967,-0.066,24.887,8.965,3.729,24.974,11.546,-1.309,21.692,9.051,14.931,4.685,6.797
Thu Dec 05 12:56:08 2024,875,-26.192,26.192,-2.394,-2.394,-0.069,25.100,8.947,3.777,25.133,11.601,-1.272,21.778,9.082,14.932,35.367,6.924
Thu Dec 05 12:56:08 2024,880,-25.754,25.754,-2.247,-2.247,-0.160,25.334,8.978,3.815,25.272,11.632,-1.370,21.952,9.075,14.846,35.257,6.884
Thu Dec 05 12:56:08 2024,885,-25.480,25.480,-2.204,-2.204,-0.248,25.509,8.993,3.838,25.364,11.660,-1.441,22.078,9.079,14.770,4.832,6.865
Thu Dec 05 12:56:08 2024,890,-25.023,25.023,-2.257,-2.257,-0.384,25.577,8.985,3.782,25.264,11.697,-1.597,22.181,9.128,14.543,5.100,6.798
Thu Dec 05 12:56:08 2024,895,-24.750,24.750,-2.292,-2.292,-0.481,25.627,8.978,3.742,25.193,11.722,-1.706,22.256,9.163,14.383,5.286,6.752
Thu Dec 05 12:56:08 2024,900,-24.408,-24.408,-2.345,-2.345,-0.510,25.636,8.996,3.735,25.133,11.696,-1.827,22.243,9.086,14.172,5.559,6.685
Thu Dec 05 12:56:08 2024,905,-24.116,-24.116,-2.410,-2.410,-0.515,25.647,9.002,3.741,25.092,11.673,-1.928,22.230,9.000,13.992,5.790,6.619
Thu Dec 05 12:56:08 2024,910,-23.675,-23.675,-2.547,-2.547,-0.454,25.700,8.950,3.794,25.088,11.675,-2.012,22.180,8.864,13.837,5.990,6.507
Thu Dec 05 12:56:08 2024,915,-23.246,-23.246,-2.698,-2.698,-0.375,25.762,8.882,3.857,25.099,11.686,-2.081,22.156,8.726,13.709,6.154,6.392
Thu Dec 05 12:56:08 2024,920,-22.580,-22.580,-2.781,-2.781,-0.308,25.882,8.908,3.893,25.021,11.683,-2.101,22.139,8.691,13.551,6.354,6.276
Thu Dec 05 12:56:08 2024,925,-22.010,-22.010,-2.818,-2.818,-0.262,25.993,8.960,3.908,24.934,11.675,-2.097,22.123,8.703,13.421,6.512,6.191
Thu Dec 05 12:56:08 2024,930,-21.268,-21.268,-2.876,-2.876,-0.206,26.140,8.917,3.893,24.820,11.581,-2.097,22.106,8.595,13.221,6.741,5.988
Thu Dec 05 12:56:08 2024,935,-20.642,-20.642,-2.929,-2.929,-0.160,26.264,8.836,3.866,24.725,11.470,-2.099,22.100,8.456,13.040,6.940,5.782
Thu Dec 05 12:56:08 2024,940,-19.827,-19.827,-2.914,-2.914,-0.122,26.378,8.809,3.854,24.637,11.430,-2.100,22.100,8.374,12.864,7.127,5.630
Thu Dec 05 12:56:08 2024,945,-19.112,-19.112,-2.813,-2.813,-0.105,26.430,8.866,3.866,24.596,11.501,-2.100,22.104,8.403,12.771,7.223,5.612
Thu Dec 05 12:56:08 2024,950,-18.282,-18.282,-2.726,-2.726,0.105,26.514,8.935,3.868,24.535,11.535,-2.084,22.094,8.426,12.686,7.312,5.556
Thu Dec 05 12:56:08 2024,955,-17.630,-17.630,-2.695,-2.695,0.114,26.611,8.994,3.853,24.471,11.504,-2.053,22.065,8.432,12.647,7.353,5.466
Thu Dec 05 12:56:08 2024,960,-16.916,-16.916,-2.674,-2.674,0.125,26.701,9.067,3.838,24.395,11.481,-2.020,22.035,8.445,12.605,7.393,5.372
Thu Dec 05 12:56:08 2024,965,-16.258,-16.258,-2.781,-2.781,0.108,26.592,9.178,3.834,24.300,11.571,-2.009,17.945,8.524,12.601,7.391,5.353
Thu Dec 05 12:56:08 2024,970,-15.762,-15.762,-2.871,-2.871,-0.105,26.534,9.266,3.836,24.242,11.636,-1.993,17.930,8.579,12.602,7.382,5.335
Thu Dec 05 12:56:08 2024,975,-15.295,-15.295,-3.011,-3.011,0.114,26.813,9.369,3.903,24.335,11.643,-1.880,18.055,8.547,12.665,7.323,5.264
Thu Dec 05 12:56:08 2024,980,-14.868,-14.868,-3.143,-3.143,0.127,27.077,9.467,3.966,24.423,11.648,-1.774,18.173,8.516,12.724,7.267,5.197
Thu Dec 05 12:56:08 2024,985,-14.457,-14.457,-3.248,-3.248,0.130,27.255,9.577,4.012,24.518,11.707,-1.686,21.710,8.593,12.708,7.285,5.225
Thu Dec 05 12:56:08 2024,990,-14.137,-14.137,-3.331,-3.331,-0.138,27.390,9.670,4.049,24.598,11.762,-1.617,21.623,8.669,12.686,7.310,5.259
Thu Dec 05 12:56:08 2024,995,-13.806,-13.806,-3.421,-3.421,-0.156,27.534,9.692,4.080,24.647,11.760,-1.588,21.590,8.665,12.576,7.418,5.178
Thu Dec 05 12:56:09 2024,0,-13.520,-13.520,-3.504,-3.504,-0.181,27.666,9.684,4.108,24.679,11.737,-1.577,21.578,8.630,12.444,7.547,5.059
Thu Dec 05 12:56:09 2024,5,-13.309,-13.309,-3.515,-3.515,-0.228,27.835,9.742,4.120,24.755,11.794,-1.532,21.532,8.693,12.386,7.609,5.099
Thu Dec 05 12:56:09 2024,10,-13.125,-13.125,-3.488,-3.488,-0.302,28.046,9.842,4.125,24.868,11.898,-1.466,21.484,8.814,12.358,7.642,5.225
Thu Dec 05 12:56:09 2024,15,-12.976,-12.976,-3.476,-3.476,-0.337,28.242,9.900,4.162,24.966,11.969,-1.413,21.455,8.896,12.307,7.693,5.300
Thu Dec 05 12:56:09 2024,20,-12.824,-12.824,-3.482,-3.482,-0.326,28.466,9.917,4.249,25.061,12.009,-1.365,21.422,8.944,12.219,7.781,5.330
Thu Dec 05 12:56:09 2024,25,-12.720,-12.720,-3.525,-3.525,-0.309,28.732,9.955,4.318,25.180,12.042,-1.308,21.408,8.997,12.183,7.816,5.366
Thu Dec 05 12:56:09 2024,30,-12.628,-12.628,-3.651,-3.651,-0.282,29.209,10.051,4.393,25.405,12.080,-1.208,21.454,9.084,12.216,7.778,5.433
Thu Dec 05 12:56:09 2024,35,-12.588,-12.588,-3.739,-3.739,-0.278,29.515,10.121,4.424,25.521,12.104,-1.161,21.506,9.136,12.213,7.775,5.476
Thu Dec 05 12:56:09 2024,40,-12.615,-12.615,-3.796,-3.796,-0.308,29.603,10.174,4.368,25.431,12.115,-1.214,21.488,9.132,12.124,7.864,5.488
Thu Dec 05 12:56:09 2024,45,-12.641,-12.641,-3.840,-3.840,-0.333,29.671,10.215,4.325,25.362,12.122,-1.253,21.480,9.129,12.055,7.932,5.498
Thu Dec 05 12:56:09 2024,50,-12.682,-12.682,-3.811,-3.811,-0.338,29.807,10.292,4.379,25.453,12.247,-1.227,21.410,9.158,12.077,7.906,5.595
Thu Dec 05 12:56:09 2024,55,-12.715,-12.715,-3.789,-3.789,-0.338,29.917,10.355,4.422,25.522,12.343,-1.206,21.357,9.180,12.093,7.884,5.672
Thu Dec 05 12:56:09 2024,60,-12.698,-12.698,-3.798,-3.798,-0.293,30.062,10.454,4.470,25.560,12.414,-1.176,21.306,9.203,12.109,7.866,5.733
Thu Dec 05 12:56:09 2024,65,-12.674,-12.674,-3.810,-3.810,-0.264,30.205,10.553,4.518,25.591,12.478,-1.146,21.257,9.226,12.123,7.849,5.790
Thu Dec 05 12:56:09 2024,70,-12.668,-12.668,-3.771,-3.771,-0.262,30.258,10.601,4.555,25.672,12.503,-1.092,21.249,9.241,12.132,7.839,5.782
Thu Dec 05 12:56:09 2024,75,-12.667,-12.667,-3.726,-3.726,-0.263,30.284,10.631,4.586,25.753,12.517,-1.040,21.263,9.253,12.138,7.833,5.760
Thu Dec 05 12:56:09 2024,80,-12.691,-12.691,-3.725,-3.725,-0.262,30.305,10.610,4.586,25.780,12.542,-1.010,21.285,9.282,12.126,7.840,5.783
Thu Dec 05 12:56:09 2024,85,-12.734,-12.734,-3.755,-3.755,-0.087,30.321,10.555,4.567,25.766,12.572,-0.998,21.309,9.320,12.102,7.856,5.836
Thu Dec 05 12:56:09 2024,90,-12.724,-12.724,-3.782,-3.782,0.262,30.346,10.559,4.586,25.822,12.602,-0.968,21.335,9.330,12.131,7.826,5.838
Thu Dec 05 12:56:09 2024,95,-12.663,-12.663,-3.809,-3.809,0.026,30.381,10.618,4.639,25.950,12.632,-0.919,21.375,9.315,12.208,7.750,5.791
Thu Dec 05 12:56:09 2024,100,-12.598,-12.598,-3.836,-3.836,-0.268,30.418,10.680,4.695,26.084,12.664,-0.868,21.418,9.299,12.290,7.670,5.741
Thu Dec 05 12:56:09 2024,105,-12.620,-12.620,-3.713,-3.713,0.092,30.500,10.694,4.713,26.156,12.692,-0.814,21.435,9.325,12.276,7.679,5.782
Thu Dec 05 12:56:09 2024,110,-12.663,-12.663,-3.544,-3.544,0.282,30.602,10.698,4.725,26.225,12.722,-0.754,21.449,9.362,12.240,7.708,5.848
Thu Dec 05 12:56:09 2024,115,-12.624,-12.624,-3.436,-3.436,0.321,30.717,10.746,4.776,26.320,12.757,-0.671,21.475,9.399,12.226,7.721,5.865
Thu Dec 05 12:56:09 2024,120,-12.355,-12.355,-3.417,-3.417,0.537,30.953,10.903,4.943,26.461,12.802,-0.505,21.508,9.464,12.211,7.752,5.782
Thu Dec 05 12:56:09 2024,125,-12.294,-12.294,-3.334,-3.334,0.666,31.123,10.902,4.974,26.489,12.781,-0.464,21.513,9.436,12.206,7.757,5.798
Thu Dec 05 12:56:09 2024,130,-12.219,-12.219,-3.241,-3.241,0.818,31.320,10.910,5.006,26.514,12.760,-0.419,21.522,9.408,12.198,7.766,5.816
Thu Dec 05 12:56:09 2024,135,-12.113,-12.113,-3.168,-3.168,0.950,31.519,11.007,4.978,26.489,12.772,-0.404,21.559,9.432,12.164,7.797,5.824
Thu Dec 05 12:56:09 2024,140,-12.009,-12.009,-3.103,-3.103,1.069,31.706,11.114,4.941,26.455,12.789,-0.397,21.599,9.463,12.127,7.830,5.829
Thu Dec 05 12:56:09 2024,145,-11.866,-11.866,-3.031,-3.031,1.221,31.906,11.224,4.978,26.466,12.838,-0.363,21.615,9.497,12.156,7.800,5.826
Thu Dec 05 12:56:09 2024,150,-11.753,-11.753,-2.977,-2.977,1.339,32.052,11.301,5.028,26.490,12.882,-0.331,21.621,9.522,12.199,7.759,5.820
Thu Dec 05 12:56:09 2024,155,-11.625,-11.625,-2.925,-2.925,1.398,32.207,11.341,5.043,26.555,12.939,-0.347,21.614,9.471,12.212,7.746,5.751
Thu Dec 05 12:56:09 2024,160,-11.544,-11.544,-2.897,-2.897,1.392,32.297,11.339,5.029,26.617,12.978,-0.384,21.602,9.395,12.200,7.757,5.674
Thu Dec 05 12:56:09 2024,165,-11.468,-11.468,-2.872,-2.872,1.436,32.442,11.400,5.028,26.664,13.027,-0.364,21.616,9.398,12.267,7.686,5.689
Thu Dec 05 12:56:09 2024,170,-11.426,-11.426,-2.859,-2.859,1.511,32.585,11.501,5.043,26.678,13.066,-0.295,21.650,9.478,12.388,7.560,5.788
Thu Dec 05 12:56:09 2024,175,-11.388,-11.388,-2.838,-2.838,1.556,32.672,11.555,5.038,26.672,13.092,-0.246,21.689,9.541,12.456,7.490,5.838
Thu Dec 05 12:56:09 2024,180,-11.352,-11.352,-2.798,-2.798,1.551,32.668,11.528,5.001,26.631,13.097,-0.224,21.737,9.580,12.436,7.512,5.802
Thu Dec 05 12:56:09 2024,185,-11.310,-11.310,-2.774,-2.774,1.560,32.701,11.526,4.983,26.617,13.094,-0.205,21.778,9.592,12.439,7.507,5.771
Thu Dec 05 12:56:09 2024,190,-11.239,-11.239,-2.789,-2.789,1.610,32.844,11.592,5.019,26.676,13.063,-0.181,21.812,9.528,12.511,7.424,5.750
Thu Dec 05 12:56:09 2024,195,-11.184,-11.184,-2.802,-2.802,1.650,32.959,11.647,5.048,26.725,13.038,-0.163,21.838,9.476,12.569,7.357,5.735
Thu Dec 05 12:56:09 2024,200,-11.157,-11.157,-2.782,-2.782,1.718,32.882,11.607,5.041,26.671,13.038,-0.119,21.811,9.489,12.567,7.366,5.735
Thu Dec 05 12:56:09 2024,205,-11.131,-11.131,-2.759,-2.759,1.799,32.841,11.592,5.042,26.629,13.044,-0.077,21.788,9.501,12.569,7.370,5.737
Thu Dec 05 12:56:09 2024,210,-11.069,-11.069,-2.717,-2.717,2.023,33.045,11.751,5.106,26.661,13.075,-0.019,21.788,9.496,12.618,7.323,5.757
Thu Dec 05 12:56:09 2024,215,-11.010,-11.010,-2.669,-2.669,2.276,33.314,11.959,5.173,26.690,13.108,0.042,21.806,9.492,12.667,7.276,5.782
Thu Dec 05 12:56:09 2024,220,-11.016,-11.016,-2.578,-2.578,2.585,33.744,12.335,5.163,26.565,13.106,0.109,21.920,9.536,12.634,7.312,5.815
Thu Dec 05 12:56:09 2024,225,-11.038,-11.038,-2.489,-2.489,2.870,34.162,12.709,5.134,26.418,13.094,0.164,22.045,9.587,12.586,7.364,5.846
Thu Dec 05 12:56:09 2024,230,-11.020,-11.020,-2.418,-2.418,3.296,34.831,13.250,5.151,26.354,13.098,0.253,22.222,9.640,12.583,7.373,5.891
Thu Dec 05 12:56:09 2024,235,-10.984,-10.984,-2.372,-2.372,3.710,35.497,13.769,5.189,26.346,13.108,0.341,22.391,9.683,12.605,7.355,5.934
Thu Dec 05 12:56:09 2024,240,-10.918,-10.918,-2.328,-2.328,4.125,36.140,14.291,5.193,26.265,13.095,0.367,22.411,9.679,12.554,7.413,5.942
Thu Dec 05 12:56:09 2024,245,-10.805,-10.805,-2.279,-2.279,4.592,36.828,14.878,5.153,26.080,13.049,0.311,22.239,9.612,12.403,7.576,5.905
Thu Dec 05 12:56:09 2024,250,-10.726,-10.726,-2.216,-2.216,4.914,37.305,15.296,5.137,25.986,13.043,0.291,22.128,9.593,12.285,7.701,5.920
Thu Dec 05 12:56:09 2024,255,-10.666,-10.666,-2.125,-2.125,5.125,37.624,15.595,5.146,25.972,13.081,0.308,22.062,9.626,12.183,7.806,5.996
Thu Dec 05 12:56:09 2024,260,-10.561,-10.561,-2.050,-2.050,5.349,38.001,15.962,5.152,25.956,13.120,0.314,22.015,9.660,12.081,7.912,6.057
Thu Dec 05 12:56:09 2024,265,-10.337,-10.337,-2.066,-2.066,5.520,38.428,16.417,5.143,25.938,13.142,0.279,22.051,9.684,12.022,7.974,6.039
Thu Dec 05 12:56:09 2024,270,-10.185,-10.185,-2.078,-2.078,5.647,38.745,16.755,5.136,25.924,13.159,0.253,22.078,9.702,11.978,8.019,6.026
Thu Dec 05 12:56:09 2024,275,-10.068,-10.068,-1.926,-1.926,5.685,38.824,17.024,5.100,25.855,13.101,0.211,22.004,9.655,11.798,8.201,5.939
Thu Dec 05 12:56:09 2024,280,-10.021,-10.021,-1.755,-1.755,5.734,38.892,17.263,5.072,25.794,13.058,0.173,21.943,9.617,11.654,8.346,5.870
Thu Dec 05 12:56:09 2024,285,-10.149,-10.149,-1.296,-1.296,5.882,38.926,17.531,5.061,25.719,13.049,0.138,21.883,9.589,11.562,8.436,5.828
Thu Dec 05 12:56:09 2024,290,-10.414,-10.414,-0.817,-0.817,6.057,38.947,17.792,5.058,25.646,13.045,0.098,21.806,9.555,11.484,8.507,5.794
Thu Dec 05 12:56:09 2024,295,-10.992,-10.992,-0.558,0.558,6.270,38.944,17.973,5.099,25.602,13.020,0.004,21.564,9.442,11.408,8.571,5.760
Thu Dec 05 12:56:09 2024,300,-11.662,-11.662,-0.909,0.909,6.477,38.936,18.125,5.146,25.572,12.990,-0.091,21.309,9.320,11.337,8.626,5.729
Thu Dec 05 12:56:09 2024,305,-12.617,-12.617,-1.703,1.703,6.653,38.788,18.140,5.198,25.568,13.000,-0.135,21.146,9.223,11.217,8.721,5.661
Thu Dec 05 12:56:09 2024,310,-13.617,-13.617,2.554,2.554,6.791,38.577,18.077,5.247,25.577,13.030,-0.140,21.047,9.152,11.080,8.825,5.580
Thu Dec 05 12:56:09 2024,315,-14.523,-14.523,3.275,3.275,6.837,38.443,17.976,5.305,25.659,13.046,-0.093,21.112,9.114,11.066,8.840,5.587
Thu Dec 05 12:56:09 2024,320,-15.413,-15.413,3.946,3.946,6.832,38.347,17.847,5.368,25.787,13.055,-0.020,21.280,9.093,11.124,8.805,5.646
Thu Dec 05 12:56:09 2024,325,-16.300,-16.300,4.483,4.483,6.773,38.213,17.668,5.388,25.885,13.048,0.040,21.505,9.102,11.214,8.737,5.721
Thu Dec 05 12:56:09 2024,330,-16.940,-16.940,4.700,4.700,6.657,38.065,17.468,5.342,25.911,13.022,0.069,21.742,9.147,11.324,8.643,5.796
Thu Dec 05 12:56:09 2024,335,-17.536,-17.536,4.923,4.923,6.514,37.850,17.266,5.262,25.894,13.038,0.055,21.861,9.178,11.448,8.528,5.876
Thu Dec 05 12:56:09 2024,340,-18.020,-18.020,5.124,5.124,6.368,37.611,17.088,5.168,25.843,13.087,0.016,21.871,9.194,11.568,8.414,5.950
Thu Dec 05 12:56:09 2024,345,-18.401,-18.401,5.363,5.363,6.208,37.360,16.899,5.088,25.807,13.137,-0.034,21.901,9.224,11.656,8.330,6.025
Thu Dec 05 12:56:09 2024,350,-18.592,-18.592,5.894,5.894,5.911,36.960,16.563,5.046,25.845,13.198,-0.037,22.090,9.343,11.654,8.338,6.146
Thu Dec 05 12:56:09 2024,355,-18.762,-18.762,6.481,6.481,5.643,36.582,16.264,5.001,25.867,13.246,-0.055,22.250,9.445,11.636,8.359,6.250
Thu Dec 05 12:56:09 2024,360,-18.999,-18.999,7.752,7.752,5.413,36.126,16.042,4.893,25.760,13.221,-0.178,22.266,9.457,11.541,8.450,6.285
Thu Dec 05 12:56:09 2024,365,-19.213,-19.213,9.001,9.001,5.226,35.731,15.884,4.786,25.644,13.174,-0.300,22.272,9.445,11.446,8.541,6.300
Thu Dec 05 12:56:09 2024,370,-19.438,-19.438,10.602,10.602,5.032,35.352,15.806,4.654,25.533,13.025,-0.388,22.385,9.398,11.349,8.640,6.304
Thu Dec 05 12:56:09 2024,375,-19.643,-19.643,12.134,12.134,4.854,35.011,15.751,4.526,25.435,12.870,-0.460,22.510,9.347,11.261,8.731,6.305
Thu Dec 05 12:56:09 2024,380,-19.837,-19.837,13.578,13.578,4.687,34.691,15.700,4.407,25.344,12.725,-0.529,22.629,9.300,11.178,8.817,6.306
Thu Dec 05 12:56:09 2024,385,-19.927,-19.927,14.256,14.256,4.608,34.542,15.676,4.351,25.302,12.657,-0.560,22.685,9.277,11.139,8.856,6.306
Thu Dec 05 12:56:09 2024,390,-21.051,-21.051,19.632,19.632,4.529,33.745,16.128,4.361,25.420,12.751,-0.277,22.541,9.266,11.091,8.903,6.604
Thu Dec 05 12:56:09 2024,395,-21.540,-21.540,22.220,22.220,4.428,33.324,16.271,4.317,25.431,12.729,-0.200,22.539,9.242,11.040,8.954,6.717
Thu Dec 05 12:56:09 2024,400,-22.178,-22.178,24.845,24.845,4.149,32.636,16.348,4.260,25.562,12.770,-0.190,22.580,9.217,11.033,8.965,6.893
Thu Dec 05 12:56:09 2024,405,-22.802,22.802,26.829,26.829,3.766,31.858,16.331,4.203,25.795,12.862,-0.251,22.653,9.199,11.072,8.928,7.087
Thu Dec 05 12:56:09 2024,410,-23.334,23.334,28.584,28.584,3.420,31.144,16.253,4.163,26.052,12.922,-0.307,22.632,9.126,11.127,8.868,7.242
Thu Dec 05 12:56:09 2024,415,-23.665,23.665,29.762,29.762,3.175,30.619,16.111,4.148,26.285,12.929,-0.351,22.495,8.993,11.193,8.791,7.322
Thu Dec 05 12:56:09 2024,420,-24.009,24.009,31.112,31.112,2.908,29.957,15.891,4.141,26.547,12.982,-0.395,22.334,8.893,11.272,8.694,7.455
Thu Dec 05 12:56:09 2024,425,-24.018,24.018,31.638,31.638,2.846,29.502,15.634,4.171,26.613,13.148,-0.397,22.251,9.014,11.314,8.643,7.639
Thu Dec 05 12:56:09 2024,430,-24.030,24.030,32.195,32.195,2.784,29.030,15.365,4.202,26.682,13.321,-0.397,22.164,9.139,11.357,8.590,7.830
Thu Dec 05 12:56:09 2024,435,-23.865,23.865,32.559,32.559,2.599,28.362,15.275,4.043,26.346,13.448,-0.391,21.966,9.409,11.347,8.598,8.129
Thu Dec 05 12:56:09 2024,440,-23.706,23.706,32.911,32.911,2.425,27.717,15.193,3.890,26.016,13.569,-0.384,21.774,9.671,11.336,8.607,8.418
Thu Dec 05 12:56:09 2024,445,-23.711,23.711,33.264,33.264,2.240,27.239,15.244,3.713,25.753,13.736,-0.316,21.739,9.932,11.339,8.591,8.636
Thu Dec 05 12:56:09 2024,450,-23.763,23.763,33.569,33.569,2.083,26.879,15.319,3.558,25.550,13.887,-0.244,21.753,10.152,11.346,8.569,8.802
Thu Dec 05 12:56:09 2024,455,-23.862,23.862,33.916,33.916,1.886,26.437,15.322,3.432,25.374,13.956,-0.380,21.669,10.224,11.300,8.622,8.876
Thu Dec 05 12:56:09 2024,460,-23.969,23.969,34.249,34.249,1.696,26.008,15.303,3.325,25.220,13.993,-0.564,21.585,10.246,11.243,8.692,8.918
Thu Dec 05 12:56:09 2024,465,-24.074,24.074,34.553,34.553,1.547,25.559,15.271,3.246,25.050,14.082,-0.742,21.458,10.286,11.220,8.734,8.995
Thu Dec 05 12:56:09 2024,470,-24.170,24.170,34.814,34.814,1.439,25.130,15.233,3.194,24.882,14.200,-0.902,21.341,10.335,11.221,8.750,9.091
Thu Dec 05 12:56:09 2024,475,-24.236,24.236,35.019,35.019,1.360,24.853,15.192,3.177,24.816,14.264,-1.027,21.322,10.342,11.304,8.680,9.115
Thu Dec 05 12:56:09 2024,480,-24.276,24.276,35.193,35.193,1.303,24.699,15.144,3.196,24.850,14.285,-1.131,21.361,10.306,11.483,8.509,9.069
Thu Dec 05 12:56:09 2024,485,-24.334,24.334,35.290,35.290,1.276,24.664,15.093,3.228,24.906,14.299,-1.226,21.392,10.258,11.670,8.328,9.028
Thu Dec 05 12:56:09 2024,490,-24.409,24.409,35.289,35.289,1.290,24.776,15.042,3.273,24.985,14.306,-1.305,21.412,10.194,11.855,8.143,8.995
Thu Dec 05 12:56:09 2024,495,-24.477,24.477,35.289,35.289,1.331,24.948,14.978,3.330,25.083,14.276,-1.386,21.450,10.101,12.109,7.891,8.912
Thu Dec 05 12:56:09 2024,500,-24.434,24.434,35.296,35.296,1.454,25.213,14.927,3.374,25.164,14.113,-1.384,21.463,9.974,12.392,7.604,8.692
Thu Dec 05 12:56:09 2024,505,-24.405,-8.130,35.257,35.257,1.570,25.496,14.892,3.413,25.231,13.966,-1.404,21.489,9.840,12.620,7.366,8.485
Thu Dec 05 12:56:09 2024,510,-24.392,-24.392,35.061,35.061,1.686,25.886,14.906,3.443,25.264,13.852,-1.501,21.562,9.660,12.700,7.276,8.290
Thu Dec 05 12:56:09 2024,515,-24.397,-24.397,34.835,34.835,1.803,26.295,14.930,3.475,25.301,13.734,-1.606,21.649,9.462,12.753,7.210,8.077
Thu Dec 05 12:56:09 2024,520,-24.485,-24.485,34.600,34.600,1.890,26.637,14.991,3.509,25.394,13.597,-1.671,21.738,9.245,12.733,7.218,7.801
Thu Dec 05 12:56:09 2024,525,-24.601,-24.601,34.343,34.343,1.981,26.997,15.067,3.550,25.508,13.442,-1.733,21.840,9.003,12.695,7.243,7.484
Thu Dec 05 12:56:09 2024,530,-24.568,-24.568,33.703,33.703,1.906,27.210,15.202,3.555,25.622,13.415,-1.710,21.880,8.928,12.672,7.249,7.306
Thu Dec 05 12:56:09 2024,535,-24.513,-24.513,33.048,33.048,1.806,27.381,15.338,3.554,25.729,13.416,-1.670,21.916,8.891,12.653,7.250,7.167
Thu Dec 05 12:56:09 2024,540,-24.373,-24.373,31.783,31.783,1.842,27.658,15.378,3.548,25.742,13.407,-1.618,22.108,8.976,12.672,7.228,7.084
Thu Dec 05 12:56:09 2024,545,-24.212,-24.212,30.404,30.404,1.963,27.940,15.340,3.539,25.685,13.393,-1.568,22.422,9.130,12.714,7.193,7.063
Thu Dec 05 12:56:09 2024,550,-24.022,-24.022,28.910,28.910,2.074,28.128,15.224,3.542,25.636,13.294,-1.505,22.657,9.186,12.726,7.192,6.946
Thu Dec 05 12:56:09 2024,555,-23.788,-23.788,27.196,27.196,2.187,28.260,15.039,3.555,25.590,13.123,-1.425,22.829,9.170,12.717,7.215,6.746
Thu Dec 05 12:56:09 2024,560,-23.540,-23.540,24.960,24.960,2.275,28.528,14.831,3.631,25.683,12.990,-1.342,23.065,9.168,12.766,7.189,6.540
Thu Dec 05 12:56:09 2024,565,-23.350,-23.350,22.645,22.645,2.295,28.915,14.656,3.775,25.956,12.957,-1.282,23.310,9.183,12.887,7.092,6.389
Thu Dec 05 12:56:09 2024,570,-23.167,-23.167,20.455,20.455,2.311,29.221,14.438,3.913,26.199,12.943,-1.215,23.489,9.194,12.996,6.996,6.242
Thu Dec 05 12:56:09 2024,575,-22.916,-22.916,17.708,17.708,2.322,29.304,13.931,4.077,26.406,12.988,-1.088,23.436,9.186,13.090,6.906,6.034
Thu Dec 05 12:56:09 2024,580,-22.588,13.443,14.784,14.784,2.342,29.352,13.390,4.235,26.587,13.039,-0.975,23.392,9.195,13.230,6.768,5.831
Thu Dec 05 12:56:09 2024,585,-22.060,22.060,11.481,11.481,2.385,29.313,12.782,4.370,26.694,13.101,-0.896,23.366,9.247,13.479,6.521,5.652
Thu Dec 05 12:56:09 2024,590,-21.591,21.591,8.709,8.709,2.425,29.265,12.273,4.476,26.768,13.155,-0.838,23.349,9.297,13.703,6.297,5.509
Thu Dec 05 12:56:09 2024,595,-21.018,21.018,6.705,6.705,2.479,29.296,11.983,4.528,26.995,13.260,-0.861,23.446,9.326,13.965,6.034,5.508
Thu Dec 05 12:56:09 2024,600,-20.429,20.429,4.708,4.708,2.534,29.331,11.702,4.576,27.230,13.369,-0.889,23.548,9.354,14.228,5.768,5.513
Thu Dec 05 12:56:09 2024,605,-19.738,10.077,3.113,3.113,2.496,29.292,11.496,4.600,27.335,13.502,-1.114,23.466,9.384,14.414,5.582,5.598
Thu Dec 05 12:56:09 2024,610,-19.061,-19.061,-1.739,1.739,2.436,29.234,11.323,4.615,27.394,13.636,-1.381,23.358,9.413,14.568,5.429,5.703
Thu Dec 05 12:56:09 2024,615,-18.457,-18.457,-0.780,0.780,2.383,29.183,11.223,4.620,27.430,13.742,-1.544,23.289,9.435,14.701,5.298,5.789
Thu Dec 05 12:56:09 2024,620,-17.846,-17.846,-0.772,-0.772,2.331,29.132,11.161,4.617,27.452,13.839,-1.654,23.230,9.453,14.834,5.166,5.871
Thu Dec 05 12:56:09 2024,625,-17.214,-17.214,-1.470,-1.470,2.294,29.132,11.195,4.598,27.390,13.912,-1.739,23.254,9.490,14.925,5.074,5.856
Thu Dec 05 12:56:09 2024,630,-16.522,-16.522,-2.215,-2.215,2.265,29.173,11.307,4.563,27.255,13.968,-1.809,23.343,9.547,14.989,5.010,5.762
Thu Dec 05 12:56:09 2024,635,-15.652,-15.652,-3.061,-3.061,2.160,29.156,11.436,4.512,27.176,14.035,-1.874,23.412,9.574,15.068,4.930,5.670
Thu Dec 05 12:56:09 2024,640,-14.798,-14.798,-3.743,-3.743,1.971,29.057,11.548,4.454,27.208,14.095,-1.909,23.426,9.549,15.144,4.854,5.610
Thu Dec 05 12:56:09 2024,645,-13.992,-13.992,-4.289,-4.289,1.785,28.943,11.633,4.380,27.192,14.151,-1.971,23.439,9.532,15.164,4.833,5.538
Thu Dec 05 12:56:09 2024,650,-13.168,-13.168,-4.620,-4.620,1.574,28.776,11.680,4.263,27.073,14.209,-2.099,23.454,9.526,15.071,4.925,5.431
Thu Dec 05 12:56:09 2024,655,-12.285,-12.285,-4.901,-4.901,1.330,28.638,11.721,4.142,26.990,14.259,-2.218,23.492,9.507,14.970,5.024,5.309
Thu Dec 05 12:56:09 2024,660,-11.572,-11.572,-4.871,-4.871,1.086,28.687,11.727,4.082,27.116,14.249,-2.223,23.581,9.442,14.914,5.082,5.198
Thu Dec 05 12:56:09 2024,665,-11.045,-11.045,-4.828,-4.828,0.865,28.746,11.730,4.029,27.244,14.237,-2.222,23.666,9.382,14.867,5.132,5.099
Thu Dec 05 12:56:09 2024,670,-10.832,-10.832,-4.706,-4.706,0.732,28.691,11.758,4.029,27.249,14.258,-2.143,23.579,9.305,14.872,5.124,4.960
Thu Dec 05 12:56:09 2024,675,-10.818,-10.818,-4.596,-4.596,0.627,28.634,11.785,4.034,27.240,14.280,-2.067,23.487,9.239,14.882,5.111,4.838
Thu Dec 05 12:56:09 2024,680,-11.028,-11.028,-4.463,-4.463,0.454,28.707,11.829,3.986,27.241,14.306,-2.139,23.566,9.227,14.888,5.107,4.858
Thu Dec 05 12:56:09 2024,685,-11.344,-11.344,-4.331,-4.331,0.293,28.803,11.875,3.930,27.246,14.330,-2.234,23.673,9.224,14.894,5.104,4.902
Thu Dec 05 12:56:09 2024,690,-11.717,-11.717,-4.078,-4.078,0.215,28.870,11.950,3.934,27.303,14.325,-2.226,23.700,9.201,14.948,5.050,4.910
Thu Dec 05 12:56:09 2024,695,-12.069,-12.069,-3.828,-3.828,0.198,28.911,12.023,3.962,27.372,14.308,-2.178,23.689,9.173,15.011,4.987,4.901
Thu Dec 05 12:56:09 2024,700,-12.433,-12.433,-3.649,-3.649,-0.214,28.920,11.998,3.939,27.401,14.298,-2.183,23.669,9.156,14.998,4.998,4.870
Thu Dec 05 12:56:09 2024,705,-12.794,-12.794,-3.532,-3.532,-0.273,28.910,11.912,3.885,27.402,14.295,-2.223,23.646,9.150,14.937,5.054,4.829
Thu Dec 05 12:56:09 2024,710,-13.185,-13.185,-3.370,-3.370,-0.383,28.947,11.891,3.865,27.461,14.321,-2.237,23.699,9.160,14.944,5.045,4.786
Thu Dec 05 12:56:09 2024,715,-13.593,-13.593,-3.155,-3.155,-0.554,29.044,11.948,3.884,27.590,14.382,-2.220,23.850,9.191,15.034,4.956,4.744
Thu Dec 05 12:56:09 2024,720,-13.944,-13.944,-2.980,-2.980,-0.674,29.098,11.995,3.902,27.661,14.418,-2.215,23.933,9.219,15.111,4.878,4.746
Thu Dec 05 12:56:09 2024,725,-4.671,-14.222,-2.849,-2.849,-0.718,29.086,12.029,3.917,27.650,14.418,-2.228,23.919,9.245,15.175,4.814,4.816
Thu Dec 05 12:56:09 2024,730,14.524,-14.524,-2.731,-2.731,-0.770,29.057,12.049,3.917,27.620,14.413,-2.267,23.907,9.255,15.244,4.745,4.885
Thu Dec 05 12:56:09 2024,735,14.803,-14.803,2.687,-2.687,-0.879,29.004,12.006,3.851,27.562,14.404,-2.399,23.966,9.196,15.312,4.677,4.882
Thu Dec 05 12:56:09 2024,740,15.126,-15.126,2.619,-2.619,-1.004,28.939,11.962,3.778,27.501,14.402,-2.541,24.035,9.139,15.389,4.601,4.882
Thu Dec 05 12:56:09 2024,745,15.395,-15.395,2.387,-2.387,-1.085,28.830,11.977,3.742,27.498,14.459,-2.550,24.060,9.186,15.433,4.552,4.912
Thu Dec 05 12:56:09 2024,750,15.654,-15.654,2.169,-2.169,-1.168,28.726,11.989,3.709,27.496,14.517,-2.558,24.088,9.239,15.479,4.502,4.950
Thu Dec 05 12:56:09 2024,755,15.869,-15.869,2.010,-2.010,-1.296,28.621,11.984,3.686,27.528,14.605,-2.574,24.142,9.356,15.549,4.430,5.073
Thu Dec 05 12:56:09 2024,760,16.043,-16.043,1.897,-1.897,-1.428,28.532,11.974,3.670,27.569,14.692,-2.590,24.202,9.487,15.621,4.357,5.215
Thu Dec 05 12:56:09 2024,765,16.155,-16.155,1.718,-1.718,-1.577,28.491,11.954,3.600,27.540,14.707,-2.606,24.286,9.555,15.610,4.363,5.254
Thu Dec 05 12:56:09 2024,770,16.239,-16.239,1.529,-1.529,-1.723,28.471,11.933,3.516,27.490,14.696,-2.620,24.373,9.598,15.572,4.395,5.255
Thu Dec 05 12:56:09 2024,775,16.355,-16.355,1.265,-1.265,-1.827,28.440,11.886,3.464,27.471,14.676,-2.654,24.366,9.591,15.558,4.407,5.278
Thu Dec 05 12:56:09 2024,780,16.463,-16.463,1.042,-1.042,-1.888,28.411,11.838,3.437,27.472,14.655,-2.688,24.319,9.564,15.557,4.406,5.306
Thu Dec 05 12:56:09 2024,785,16.548,-16.548,0.803,-0.803,-1.984,28.399,11.818,3.418,27.493,14.619,-2.687,24.310,9.557,15.538,4.425,5.334
Thu Dec 05 12:56:09 2024,790,16.570,-16.570,0.690,-0.690,-2.073,28.413,11.835,3.414,27.526,14.582,-2.649,24.347,9.573,15.506,4.455,5.351
Thu Dec 05 12:56:09 2024,795,16.581,-16.581,0.679,0.679,-2.171,28.404,11.823,3.411,27.596,14.559,-2.619,24.349,9.575,15.469,4.493,5.366
Thu Dec 05 12:56:09 2024,800,16.554,-16.554,0.779,0.779,-2.272,28.331,11.724,3.409,27.756,14.580,-2.622,24.249,9.537,15.421,4.544,5.376
Thu Dec 05 12:56:09 2024,805,16.538,-16.538,0.916,0.916,-2.353,28.260,11.639,3.398,27.856,14.572,-2.632,24.181,9.499,15.382,4.584,5.370
Thu Dec 05 12:56:09 2024,810,16.541,-16.541,1.060,1.060,-2.404,28.153,11.555,3.345,27.788,14.458,-2.675,24.181,9.442,15.352,4.609,5.305
Thu Dec 05 12:56:09 2024,815,16.515,-16.515,1.196,1.196,-2.439,28.066,11.489,3.317,27.758,14.373,-2.706,24.176,9.394,15.342,4.616,5.255
Thu Dec 05 12:56:09 2024,820,16.360,-16.360,1.284,1.284,-2.425,28.047,11.478,3.396,27.925,14.415,-2.689,24.125,9.375,15.400,4.558,5.272
Thu Dec 05 12:56:09 2024,825,16.171,-16.171,1.388,1.388,-2.406,28.030,11.470,3.494,28.128,14.473,-2.666,24.064,9.357,15.472,4.487,5.296
Thu Dec 05 12:56:09 2024,830,16.160,-16.160,1.464,1.464,-2.483,27.809,11.345,3.437,28.118,14.418,-2.674,24.074,9.328,15.422,4.534,5.267
Thu Dec 05 12:56:09 2024,835,16.163,-16.163,1.545,1.545,-2.574,27.554,11.198,3.360,28.088,14.348,-2.686,24.092,9.296,15.356,4.594,5.230
Thu Dec 05 12:56:09 2024,840,16.151,-16.151,1.700,1.700,-2.623,27.344,11.136,3.388,28.134,14.337,-2.747,24.048,9.237,15.339,4.605,5.193
Thu Dec 05 12:56:09 2024,845,16.133,-16.133,1.881,1.881,-2.663,27.141,11.092,3.443,28.200,14.341,-2.823,23.993,9.169,15.334,4.600,5.156
Thu Dec 05 12:56:09 2024,850,16.051,-16.051,2.023,2.023,-2.724,26.935,11.000,3.442,28.245,14.282,-2.818,23.947,9.110,15.315,4.607,5.076
Thu Dec 05 12:56:09 2024,855,15.930,-15.930,2.137,2.137,-2.798,26.734,10.878,3.405,28.274,14.188,-2.762,23.908,9.057,15.287,4.618,4.972
Thu Dec 05 12:56:09 2024,860,15.761,-15.761,2.198,2.198,-2.852,26.514,10.767,3.388,28.257,14.129,-2.761,23.852,8.987,15.266,4.626,4.887
Thu Dec 05 12:56:09 2024,865,15.543,-15.543,2.205,2.205,-2.891,26.273,10.666,3.389,28.192,14.105,-2.813,23.783,8.900,15.252,4.627,4.821
Thu Dec 05 12:56:09 2024,870,15.336,-15.336,2.224,2.224,-2.915,26.091,10.579,3.414,28.194,14.077,-2.833,23.729,8.823,15.264,4.606,4.757
Thu Dec 05 12:56:09 2024,875,15.183,-15.183,2.264,2.264,-2.902,26.053,10.538,3.486,28.334,14.042,-2.780,23.704,8.774,15.334,4.538,4.705
Thu Dec 05 12:56:09 2024,880,15.004,-15.004,2.378,2.378,-2.879,25.956,10.503,3.549,28.428,14.004,-2.744,23.685,8.739,15.379,4.493,4.678
Thu Dec 05 12:56:09 2024,885,14.874,-14.874,2.574,2.574,-2.851,25.795,10.502,3.558,28.372,13.979,-2.764,23.689,8.749,15.349,4.520,4.717
Thu Dec 05 12:56:09 2024,890,14.718,-14.718,2.795,2.795,-2.818,25.615,10.501,3.568,28.307,13.949,-2.786,23.693,8.758,15.314,4.550,4.757
Thu Dec 05 12:56:09 2024,895,14.356,-14.356,2.812,2.812,-2.774,25.524,10.494,3.580,28.242,13.875,-2.784,23.666,8.681,15.270,4.591,4.664
Thu Dec 05 12:56:09 2024,900,14.042,-14.042,2.822,2.822,-2.733,25.440,10.488,3.592,28.189,13.820,-2.785,23.647,8.621,15.230,4.629,4.594
Thu Dec 05 12:56:09 2024,905,13.560,-13.560,2.785,2.785,-2.638,25.258,10.502,3.612,28.151,13.831,-2.825,23.654,8.601,15.149,4.708,4.585
Thu Dec 05 12:56:09 2024,910,13.023,-13.023,2.739,2.739,-2.528,25.047,10.519,3.635,28.116,13.855,-2.876,23.669,8.586,15.058,4.799,4.589
Thu Dec 05 12:56:09 2024,915,12.061,-12.061,2.819,2.819,-2.332,24.778,10.570,3.649,27.944,13.903,-2.928,23.738,8.650,14.910,4.944,4.548
Thu Dec 05 12:56:09 2024,920,11.199,-11.199,2.914,2.914,-2.153,24.548,10.619,3.658,27.772,13.948,-2.970,23.808,8.722,14.776,5.076,4.504
Thu Dec 05 12:56:09 2024,925,0.222,-10.115,3.448,3.448,-1.876,24.121,10.742,3.648,27.410,13.934,-3.021,23.790,8.730,14.561,5.254,4.411
Thu Dec 05 12:56:09 2024,930,-9.181,-9.181,4.181,4.181,-1.566,23.615,10.896,3.625,26.973,13.891,-3.074,23.736,8.703,14.315,5.441,4.299
Thu Dec 05 12:56:09 2024,935,-8.567,-8.567,4.612,4.612,-1.166,22.999,10.960,3.664,26.578,13.788,-3.141,23.639,8.546,14.137,5.544,4.086
Thu Dec 05 12:56:09 2024,940,-8.572,-8.572,4.751,4.751,-0.771,22.416,10.948,3.740,26.286,13.659,-3.208,23.548,8.323,14.038,5.571,3.839
Thu Dec 05 12:56:09 2024,945,-9.147,-9.147,4.727,4.727,-0.446,21.791,10.909,3.735,25.887,13.507,-3.332,23.514,8.109,13.918,5.605,3.634
Thu Dec 05 12:56:09 2024,950,-9.940,-9.940,4.486,4.486,-0.252,21.146,10.833,3.614,25.364,13.335,-3.527,23.584,7.924,13.784,5.650,3.510
Thu Dec 05 12:56:09 2024,955,-10.993,-10.993,4.203,4.203,-0.079,20.397,10.703,3.481,24.787,13.119,-3.713,23.712,7.739,13.677,5.657,3.422
Thu Dec 05 12:56:09 2024,960,-11.950,-11.950,3.960,3.960,-0.077,19.716,10.472,3.397,24.340,12.887,-3.753,23.767,7.663,13.725,5.561,3.506
Thu Dec 05 12:56:09 2024,965,-12.768,-12.768,3.712,3.712,-0.114,19.226,10.278,3.296,23.989,12.664,-3.770,16.175,7.590,13.767,5.481,3.547
Thu Dec 05 12:56:09 2024,970,-13.686,-13.686,3.156,3.156,-0.397,19.069,10.079,2.957,23.589,12.238,-3.682,23.719,7.446,13.809,5.418,3.382
Thu Dec 05 12:56:09 2024,975,-14.544,-14.544,2.648,2.648,-0.654,18.878,9.894,2.650,23.226,11.854,-3.604,23.627,7.316,13.841,5.368,3.235
Thu Dec 05 12:56:09 2024,980,-15.616,-15.616,2.128,2.128,-0.802,18.757,9.702,2.406,22.942,11.571,-3.562,23.575,7.215,13.789,5.426,3.163
Thu Dec 05 12:56:09 2024,985,-16.678,-16.678,1.626,1.626,-0.938,18.639,9.511,2.170,22.668,11.301,-3.524,23.529,7.119,13.728,5.495,3.099
Thu Dec 05 12:56:09 2024,990,-18.028,-18.028,1.426,1.426,-1.000,18.586,9.504,2.031,22.578,11.258,-3.511,23.510,7.120,13.766,5.514,3.125
Thu Dec 05 12:56:09 2024,995,-19.562,-19.562,1.259,1.259,-1.056,18.539,9.528,1.893,22.516,11.250,-3.501,23.501,7.139,13.825,5.522,3.172
Thu Dec 05 12:56:10 2024,0,-21.259,-21.259,1.376,1.376,-1.042,18.558,9.672,1.845,22.552,11.298,-3.440,23.449,7.223,13.925,5.490,3.296
Thu Dec 05 12:56:10 2024,5,-23.160,-23.160,1.640,1.640,-0.994,18.610,9.886,1.837,22.638,11.377,-3.348,23.378,7.347,14.053,5.430,3.472
Thu Dec 05 12:56:10 2024,10,-25.065,-25.065,2.047,2.047,-1.062,18.402,10.175,1.936,22.812,11.597,-3.258,23.292,7.542,14.266,5.291,3.757
Thu Dec 05 12:56:10 2024,15,-26.773,-26.773,2.509,2.509,-1.203,18.029,10.483,2.096,23.023,11.888,-3.181,23.202,7.765,14.513,5.111,4.089
Thu Dec 05 12:56:10 2024,20,-28.229,-28.229,3.082,3.082,-1.505,17.376,10.781,2.255,23.137,12.066,-2.984,23.003,7.960,14.833,4.871,4.402
Thu Dec 05 12:56:10 2024,25,-29.214,-29.214,3.617,3.617,-1.853,16.663,11.005,2.380,23.166,12.127,-2.743,22.766,8.094,15.135,4.638,4.635
Thu Dec 05 12:56:10 2024,30,-30.212,-30.212,4.048,4.048,-2.424,15.712,11.145,2.418,23.098,12.176,-2.546,22.572,8.265,15.430,4.414,4.928
Thu Dec 05 12:56:10 2024,35,-30.673,-30.673,3.954,3.954,-3.252,14.674,11.002,2.208,22.796,12.171,-2.574,22.593,8.431,15.542,4.355,5.211
Thu Dec 05 12:56:10 2024,40,-31.127,-31.127,3.725,3.725,-4.206,13.482,10.806,1.929,22.374,12.144,-2.626,22.633,8.597,15.638,4.298,5.482
Thu Dec 05 12:56:10 2024,45,-31.214,-31.214,3.131,3.131,-5.044,12.537,10.572,1.548,21.772,12.048,-2.742,22.743,8.648,15.624,4.311,5.515
Thu Dec 05 12:56:10 2024,50,-31.298,-31.298,2.515,2.515,-5.860,11.594,10.322,1.176,21.230,11.944,-2.850,22.880,8.693,15.610,4.324,5.546
Thu Dec 05 12:56:10 2024,55,-31.348,-31.348,1.822,1.822,-6.444,10.892,10.029,0.882,20.050,11.822,-2.916,17.025,8.682,15.599,4.345,5.558
Thu Dec 05 12:56:10 2024,60,-31.391,-31.391,1.155,1.155,-6.970,10.244,9.741,0.610,19.389,11.700,-2.973,16.936,8.665,15.588,4.367,5.565
Thu Dec 05 12:56:10 2024,65,-31.598,-31.598,0.331,0.331,-7.244,9.706,9.644,0.536,19.401,11.749,-2.794,17.066,8.817,15.680,4.272,5.645
Thu Dec 05 12:56:10 2024,70,-31.795,-31.795,0.425,-0.425,-7.392,9.327,9.614,0.527,19.244,11.824,-2.607,17.205,8.970,15.773,4.176,5.721
Thu Dec 05 12:56:10 2024,75,-31.998,-31.998,-1.056,-1.056,-7.442,8.963,9.507,0.475,18.944,11.697,-2.484,17.304,9.094,15.860,4.093,5.769
Thu Dec 05 12:56:10 2024,80,-32.161,-32.161,-1.551,-1.551,-7.451,8.679,9.398,0.422,18.636,11.536,-2.408,17.371,9.182,15.926,4.033,5.798
Thu Dec 05 12:56:10 2024,85,-32.299,-32.299,-2.038,-2.038,-7.505,8.311,9.306,0.443,18.254,11.434,-2.288,17.426,9.234,15.991,3.966,5.778
Thu Dec 05 12:56:10 2024,90,-32.413,-32.413,-2.483,-2.483,-7.584,7.921,9.229,0.503,17.868,11.374,-2.153,17.456,9.261,16.049,3.901,5.733
Thu Dec 05 12:56:10 2024,95,-32.587,-32.587,-2.974,-2.974,-7.680,7.437,9.153,0.539,17.375,11.294,-2.036,17.401,9.295,16.115,3.830,5.706
Thu Dec 05 12:56:10 2024,100,-32.754,-32.754,-3.299,-3.299,-7.755,7.058,9.108,0.531,16.975,11.227,-1.992,17.280,9.321,16.160,3.784,5.711
Thu Dec 05 12:56:10 2024,105,-32.944,-32.944,-3.691,-3.691,-7.841,6.599,9.044,0.509,16.442,11.106,-1.909,17.129,9.326,16.186,3.757,5.700
Thu Dec 05 12:56:10 2024,110,-33.058,33.058,-4.024,-4.024,-7.898,6.212,8.958,0.455,15.850,10.892,-1.754,17.021,9.254,16.129,3.816,5.639
Thu Dec 05 12:56:10 2024,115,-33.171,33.171,-4.331,-4.331,-7.953,5.851,8.876,0.404,15.302,10.695,-1.611,16.897,9.188,16.076,3.871,5.582
Thu Dec 05 12:56:10 2024,120,-33.337,33.337,-4.632,-4.632,-7.920,5.576,8.765,0.469,14.763,10.500,-1.253,16.953,9.192,16.061,3.897,5.582
Thu Dec 05 12:56:10 2024,125,-33.501,33.501,-4.909,-4.909,-7.902,5.317,8.664,0.520,14.282,10.326,-0.942,16.966,9.197,16.040,3.928,5.581
Thu Dec 05 12:56:10 2024,130,-33.648,33.648,-5.159,-5.159,-7.932,5.158,8.588,0.575,14.026,10.241,-0.674,17.134,9.285,15.993,3.994,5.617
Thu Dec 05 12:56:10 2024,135,-33.800,33.800,-5.398,-5.398,-7.960,5.004,8.515,0.628,13.782,10.160,-0.419,17.279,9.371,15.947,4.050,5.651
Thu Dec 05 12:56:10 2024,140,-33.924,33.924,-5.770,-5.770,-8.068,4.740,8.362,0.672,13.565,10.074,-0.240,17.233,9.406,15.912,4.088,5.730
Thu Dec 05 12:56:10 2024,145,-34.064,34.064,-6.184,-6.184,-8.190,4.444,8.190,0.719,13.333,9.980,-0.058,17.157,9.439,15.874,4.123,5.818
Thu Dec 05 12:56:10 2024,150,-34.243,34.243,-6.557,-6.557,-8.305,4.258,8.042,0.698,13.087,9.802,0.000,17.038,9.377,15.718,4.273,5.829
Thu Dec 05 12:56:10 2024,155,-34.406,34.406,-6.847,-6.847,-8.396,4.146,7.930,0.657,12.879,9.629,-0.020,16.928,9.292,15.547,4.438,5.810
Thu Dec 05 12:56:10 2024,160,-34.592,34.592,-7.224,-7.224,-8.477,3.947,7.831,0.631,12.656,9.514,0.071,16.868,9.276,15.412,4.561,5.837
Thu Dec 05 12:56:10 2024,165,-34.735,34.735,-7.544,-7.544,-8.521,3.745,7.774,0.627,12.495,9.484,0.187,16.865,9.320,15.351,4.610,5.890
Thu Dec 05 12:56:10 2024,170,-34.898,34.898,-7.806,-7.806,-8.522,3.531,7.694,0.636,12.313,9.418,0.300,16.765,9.309,15.256,4.692,5.936
Thu Dec 05 12:56:10 2024,175,-35.093,35.093,-7.991,-7.991,-8.460,3.287,7.575,0.663,12.093,9.299,0.415,16.523,9.216,15.110,4.829,5.971
Thu Dec 05 12:56:10 2024,180,-35.269,35.269,-8.194,-8.194,-8.392,3.050,7.416,0.693,11.911,9.174,0.509,16.310,9.106,14.979,4.949,5.967
Thu Dec 05 12:56:10 2024,185,-35.361,35.361,-8.402,-8.402,-8.322,2.881,7.192,0.721,11.855,9.059,0.528,16.212,8.971,14.909,5.004,5.872
Thu Dec 05 12:56:10 2024,190,-35.466,35.466,-8.674,-8.674,-8.260,2.745,6.987,0.760,11.813,8.943,0.570,16.143,8.849,14.864,5.030,5.802
Thu Dec 05 12:56:10 2024,195,-35.658,35.658,-9.327,-9.327,-8.207,2.699,6.781,0.853,11.807,8.777,0.726,16.170,8.736,14.905,4.946,5.816
Thu Dec 05 12:56:10 2024,200,-35.844,35.844,-9.921,-9.921,-8.158,2.656,6.595,0.939,11.800,8.627,0.867,16.188,8.633,14.941,4.867,5.828
Thu Dec 05 12:56:10 2024,205,-36.146,36.146,-10.350,-10.350,-7.982,2.754,6.385,1.090,11.986,8.540,0.963,16.305,8.602,15.200,4.504,5.988
Thu Dec 05 12:56:10 2024,210,-36.452,36.452,-10.706,-10.706,-7.804,2.838,6.190,1.231,12.157,8.466,1.054,16.422,8.588,15.452,4.139,6.154
Thu Dec 05 12:56:10 2024,215,-36.407,36.407,-10.537,-10.537,-7.568,2.524,6.031,1.279,11.952,8.399,1.282,16.590,8.767,15.538,36.018,6.272
Thu Dec 05 12:56:10 2024,220,-36.334,36.334,-10.274,-10.274,-7.293,2.122,5.869,1.323,11.674,8.329,1.546,16.749,8.991,15.607,36.159,6.393
Thu Dec 05 12:56:10 2024,225,-36.515,36.515,-10.452,-10.452,-6.947,2.146,5.693,1.407,11.708,8.294,1.722,16.969,9.197,15.529,36.202,6.515
Thu Dec 05 12:56:10 2024,230,-36.765,36.765,-10.729,-10.729,-6.606,2.270,5.526,1.496,11.814,8.270,1.864,17.168,9.389,15.419,36.227,6.630
Thu Dec 05 12:56:10 2024,235,-36.772,36.772,-10.775,-10.775,-6.499,2.269,5.406,1.495,11.859,8.196,1.954,17.305,9.488,15.152,36.097,6.727
Thu Dec 05 12:56:10 2024,240,-36.579,36.579,-10.632,-10.632,-6.582,2.168,5.331,1.427,11.852,8.088,1.998,17.395,9.506,14.790,35.859,6.799
Thu Dec 05 12:56:10 2024,245,-36.566,36.566,-10.567,-10.567,-6.705,2.159,5.289,1.421,11.919,7.988,2.089,17.434,9.464,14.496,35.660,6.786
Thu Dec 05 12:56:10 2024,250,-36.748,36.748,-10.587,-10.587,-6.878,2.249,5.284,1.480,12.070,7.892,2.233,17.409,9.357,14.272,35.496,6.681
Thu Dec 05 12:56:10 2024,255,-36.850,36.850,-10.598,-10.598,-6.999,2.276,5.275,1.522,12.166,7.843,2.337,17.364,9.288,14.129,35.403,6.612
Thu Dec 05 12:56:10 2024,260,-36.845,36.845,-10.595,-10.595,-7.082,2.193,5.251,1.551,12.209,7.860,2.420,17.282,9.260,14.076,35.397,6.575
Thu Dec 05 12:56:10 2024,265,-36.837,36.837,-10.594,-10.594,-7.126,2.156,5.233,1.610,12.266,7.865,2.524,17.201,9.234,14.031,35.406,6.523
Thu Dec 05 12:56:10 2024,270,-36.820,36.820,-10.598,-10.598,-7.013,2.297,5.244,1.755,12.354,7.831,2.677,17.135,9.226,14.025,35.455,6.431
Thu Dec 05 12:56:10 2024,275,-36.806,36.806,-10.603,-10.603,-6.918,2.413,5.253,1.876,12.424,7.801,2.806,17.065,9.219,14.020,35.497,6.355
Thu Dec 05 12:56:10 2024,280,-36.653,36.653,-10.659,-10.659,-6.683,2.756,5.221,2.040,12.648,7.882,2.872,17.042,9.203,14.132,35.664,6.250
Thu Dec 05 12:56:10 2024,285,-36.530,36.530,-10.706,-10.706,-6.491,3.037,5.194,2.177,12.825,7.947,2.929,17.014,9.190,14.223,35.800,6.162
Thu Dec 05 12:56:10 2024,290,-36.218,36.218,-10.829,-10.829,-6.426,3.199,5.180,2.244,12.905,7.932,2.980,16.979,9.199,14.319,35.926,6.226
Thu Dec 05 12:56:10 2024,295,-35.906,35.906,-10.954,-10.954,-6.402,3.308,5.171,2.284,12.950,7.899,3.022,16.946,9.211,14.403,36.032,6.320
Thu Dec 05 12:56:10 2024,300,-35.440,35.440,-11.094,-11.094,-6.333,3.430,5.158,2.285,12.972,7.892,3.014,16.964,9.253,14.487,36.079,6.393
Thu Dec 05 12:56:10 2024,305,-34.956,34.956,-11.229,-11.229,-6.253,3.544,5.146,2.269,12.981,7.897,2.986,16.999,9.304,14.562,36.096,6.450
Thu Dec 05 12:56:10 2024,310,-34.604,34.604,-11.491,-11.491,-6.332,3.686,5.130,2.181,13.059,7.923,2.872,17.120,9.350,14.665,36.173,6.555
Thu Dec 05 12:56:10 2024,315,-34.416,34.416,-11.740,-11.740,-6.462,3.799,5.116,2.084,13.146,7.951,2.749,17.247,9.382,14.751,36.255,6.652
Thu Dec 05 12:56:10 2024,320,-34.135,34.135,-12.074,-12.074,-6.563,4.067,5.132,2.010,13.256,7.964,2.627,17.371,9.372,14.852,36.312,6.679
Thu Dec 05 12:56:10 2024,325,-33.906,33.906,-12.319,-12.319,-6.581,4.363,5.171,1.997,13.336,7.954,2.568,17.431,9.325,14.915,36.314,6.616
Thu Dec 05 12:56:10 2024,330,-33.451,33.451,-12.520,-12.520,-6.635,4.728,5.299,1.979,13.457,8.018,2.447,17.553,9.334,14.963,36.280,6.565
Thu Dec 05 12:56:10 2024,335,-32.905,32.905,-12.521,-12.521,-6.714,4.980,5.501,1.962,13.574,8.169,2.296,17.701,9.432,14.954,36.205,6.565
Thu Dec 05 12:56:10 2024,340,-32.195,32.195,-12.376,-12.376,-6.791,5.249,5.725,1.906,13.707,8.322,2.114,17.873,9.524,14.933,36.090,6.556
Thu Dec 05 12:56:10 2024,345,-31.447,31.447,-11.883,-11.883,-6.798,5.358,5.828,1.767,13.786,8.354,1.972,18.004,9.521,14.890,35.931,6.527
Thu Dec 05 12:56:10 2024,350,-30.766,30.766,-11.399,-11.399,-6.804,5.462,5.930,1.632,13.861,8.386,1.836,19.986,9.518,14.846,35.781,6.499
Thu Dec 05 12:56:10 2024,355,-30.240,30.240,-11.035,-11.035,-6.556,5.680,6.071,1.569,13.997,8.468,1.756,18.230,9.430,14.640,35.415,6.390
Thu Dec 05 12:56:10 2024,360,-29.817,29.817,-10.710,-10.710,-6.341,5.866,6.195,1.514,14.114,8.537,1.684,18.314,9.356,14.459,35.105,6.297
Thu Dec 05 12:56:10 2024,365,-29.089,29.089,-10.036,-10.036,-6.167,6.040,6.525,1.394,14.065,8.678,1.539,18.450,9.358,14.272,34.748,6.338
Thu Dec 05 12:56:10 2024,370,-28.528,28.528,-9.462,-9.462,-6.041,6.168,6.816,1.289,13.995,8.798,1.412,18.524,9.374,14.121,34.476,6.396
Thu Dec 05 12:56:10 2024,375,-27.611,27.611,-8.693,-8.693,-5.743,6.300,6.905,1.146,13.960,8.799,1.283,18.501,9.198,13.818,5.975,6.213
Thu Dec 05 12:56:10 2024,380,-26.718,-26.718,-7.902,-7.902,-5.401,6.417,6.921,0.999,13.935,8.759,1.158,18.379,8.968,13.474,6.434,5.961
Thu Dec 05 12:56:10 2024,385,-25.798,-25.798,-7.349,-7.349,-5.262,6.314,6.910,0.749,13.694,8.679,0.969,18.185,8.816,13.087,6.897,5.800
Thu Dec 05 12:56:10 2024,390,-24.795,-24.795,-6.813,-6.813,-5.198,6.084,6.885,0.405,13.288,8.566,0.712,17.850,8.673,12.604,7.386,5.655
Thu Dec 05 12:56:10 2024,395,-23.686,-23.686,-6.459,-6.459,-5.328,5.890,6.778,0.130,13.034,8.448,0.534,17.469,8.440,12.149,7.754,5.286
Thu Dec 05 12:56:10 2024,400,-22.614,-22.614,-6.271,-6.271,-5.587,5.736,6.621,-0.294,12.906,8.338,0.428,17.117,8.160,11.750,7.999,4.797
Thu Dec 05 12:56:10 2024,405,-21.450,-21.450,-6.397,-6.397,-5.849,5.688,6.433,-0.414,13.016,8.207,0.421,16.919,7.811,11.501,8.106,4.285
Thu Dec 05 12:56:10 2024,410,-20.211,-20.211,-6.805,-6.805,-6.080,5.747,6.239,-0.353,13.349,8.070,0.515,16.896,7.437,11.430,8.115,3.807
Thu Dec 05 12:56:10 2024,415,-18.782,-18.782,-7.111,-7.111,-6.256,5.845,6.091,-0.229,13.712,7.988,0.602,16.816,7.087,11.343,8.156,3.364
Thu Dec 05 12:56:10 2024,420,-17.251,-17.251,-7.052,-7.052,-6.248,6.019,6.098,0.101,14.056,8.070,0.651,16.630,6.893,11.247,8.266,3.104
Thu Dec 05 12:56:10 2024,425,-15.573,-15.573,-6.914,-6.914,-6.189,6.229,6.117,0.373,14.374,8.151,0.722,16.401,6.680,11.152,8.362,2.831
Thu Dec 05 12:56:10 2024,430,-14.598,-14.598,-6.612,-6.612,-5.954,6.418,6.176,0.648,14.346,8.158,0.836,16.182,6.563,11.142,8.309,2.692
Thu Dec 05 12:56:10 2024,435,-13.615,-13.615,-6.291,-6.291,-5.706,6.612,6.236,0.937,14.299,8.164,0.954,15.949,6.439,11.131,8.250,2.548
Thu Dec 05 12:56:10 2024,440,-13.446,-13.446,-5.749,-5.749,-5.559,6.555,6.385,1.042,14.254,8.331,0.942,15.810,6.477,11.149,8.173,2.598
Thu Dec 05 12:56:10 2024,445,-13.356,-13.356,-5.313,-5.313,-5.441,6.508,6.506,1.128,14.215,8.466,0.932,15.696,6.508,11.163,8.110,2.638
Thu Dec 05 12:56:10 2024,450,-13.390,-13.390,-4.741,-4.741,-5.264,6.589,6.574,1.162,14.216,8.513,0.837,15.631,6.501,11.175,8.033,2.658
Thu Dec 05 12:56:10 2024,455,-13.500,-13.500,-4.131,-4.131,-5.069,6.718,6.620,1.173,14.234,8.525,0.712,15.583,6.479,11.186,7.950,2.668
Thu Dec 05 12:56:10 2024,460,-13.485,-13.485,-3.464,-3.464,-4.984,6.791,6.636,1.120,14.239,8.524,0.635,15.508,6.473,11.208,7.907,2.752
Thu Dec 05 12:56:10 2024,465,-13.468,-13.468,-2.762,-2.762,-4.932,6.848,6.644,1.046,14.239,8.520,0.570,15.421,6.471,11.234,7.876,2.861
Thu Dec 05 12:56:10 2024,470,-13.334,-13.334,-2.284,-2.284,-5.050,6.844,6.597,0.904,14.332,8.474,0.426,15.428,6.455,11.229,7.871,2.934
Thu Dec 05 12:56:10 2024,475,-13.083,-13.083,-1.971,-1.971,-5.314,6.784,6.504,0.701,14.499,8.391,0.208,15.506,6.427,11.199,7.888,2.979
Thu Dec 05 12:56:10 2024,480,-12.852,-12.852,-1.674,-1.674,-5.491,6.848,6.494,0.570,14.704,8.360,0.069,15.602,6.421,11.210,7.861,3.014
Thu Dec 05 12:56:10 2024,485,-12.594,-12.594,1.357,-1.357,-5.593,7.063,6.579,0.504,14.986,8.384,-0.059,15.741,6.441,11.267,7.780,3.041
Thu Dec 05 12:56:10 2024,490,-12.436,-12.436,1.091,-1.091,-5.671,7.209,6.617,0.428,15.169,8.392,-0.180,15.808,6.452,11.296,7.724,3.080
Thu Dec 05 12:56:10 2024,495,-12.424,-12.424,0.895,-0.895,-5.719,7.268,6.589,0.339,15.216,8.379,-0.378,15.771,6.451,11.284,7.698,3.139
Thu Dec 05 12:56:10 2024,500,-12.418,-12.418,0.670,-0.670,-5.774,7.336,6.555,0.233,15.268,8.364,-0.612,15.714,6.450,11.270,7.666,3.209
Thu Dec 05 12:56:10 2024,505,-12.348,-12.348,0.552,-0.552,-5.724,7.503,6.608,0.250,15.470,8.404,-0.698,15.756,6.427,11.235,7.742,3.216
Thu Dec 05 12:56:10 2024,510,-12.299,-12.299,0.451,-0.451,-5.690,7.634,6.646,0.256,15.626,8.433,-0.780,15.779,6.409,11.207,7.797,3.227
Thu Dec 05 12:56:10 2024,515,-12.262,-12.262,0.450,-0.450,-5.683,7.706,6.598,0.259,15.716,8.394,-0.827,15.756,6.343,11.190,7.758,3.146
Thu Dec 05 12:56:10 2024,520,-12.230,-12.230,0.459,-0.459,-5.678,7.766,6.547,0.261,15.792,8.353,-0.867,15.731,6.279,11.176,7.713,3.065
Thu Dec 05 12:56:10 2024,525,-12.222,-12.222,0.287,-0.287,-5.565,7.854,6.595,0.336,15.878,8.413,-0.914,15.728,6.309,11.238,7.689,3.166
Thu Dec 05 12:56:10 2024,530,-12.216,-12.216,0.248,0.013,-5.448,7.942,6.647,0.414,15.962,8.478,-0.961,15.726,6.344,11.302,7.666,3.277
Thu Dec 05 12:56:10 2024,535,-12.202,-12.202,0.290,0.290,-5.380,8.018,6.635,0.455,16.019,8.493,-1.008,15.665,6.329,11.250,7.715,3.264
Thu Dec 05 12:56:10 2024,540,-12.185,-12.185,0.348,0.348,-5.314,8.109,6.596,0.492,16.080,8.494,-1.066,15.571,6.293,11.144,7.799,3.203
Thu Dec 05 12:56:10 2024,545,-12.106,-12.106,0.425,0.425,-5.219,8.196,6.650,0.534,16.076,8.546,-1.089,15.503,6.318,11.135,7.775,3.188
Thu Dec 05 12:56:10 2024,550,-12.020,-12.020,0.487,0.487,-5.136,8.255,6.733,0.566,16.041,8.607,-1.090,15.467,6.364,11.174,7.707,3.198
Thu Dec 05 12:56:10 2024,555,-12.021,-12.021,0.493,0.493,-5.038,8.318,6.753,0.592,16.029,8.639,-1.089,15.450,6.399,11.173,7.711,3.223
Thu Dec 05 12:56:10 2024,560,-12.128,-12.128,0.429,0.429,-4.984,8.345,6.685,0.595,16.051,8.614,-1.086,15.467,6.399,11.123,7.801,3.248
Thu Dec 05 12:56:10 2024,565,-12.199,-12.199,0.396,0.396,-4.918,8.378,6.653,0.588,16.037,8.586,-1.080,15.480,6.397,11.091,7.854,3.273
Thu Dec 05 12:56:10 2024,570,-12.194,-12.194,0.416,0.416,-4.838,8.418,6.691,0.564,15.954,8.556,-1.068,15.484,6.394,11.094,7.833,3.294
Thu Dec 05 12:56:10 2024,575,-12.203,-12.203,0.435,0.435,-4.774,8.438,6.724,0.544,15.890,8.544,-1.048,15.493,6.404,11.108,7.808,3.319
Thu Dec 05 12:56:10 2024,580,-12.281,-12.281,0.441,0.441,-4.784,8.374,6.729,0.551,15.916,8.608,-0.998,15.534,6.478,11.171,7.765,3.364
Thu Dec 05 12:56:10 2024,585,-12.337,-12.337,0.447,0.447,-4.791,8.327,6.733,0.556,15.934,8.654,-0.962,15.563,6.531,11.216,7.734,3.397
Thu Dec 05 12:56:10 2024,590,-12.353,-12.353,0.430,0.430,-4.824,8.401,6.735,0.564,16.030,8.642,-0.959,15.586,6.495,11.193,7.768,3.387
Thu Dec 05 12:56:10 2024,595,-12.364,-12.364,0.416,0.416,-4.857,8.479,6.736,0.572,16.125,8.626,-0.958,15.607,6.454,11.166,7.805,3.374
Thu Dec 05 12:56:10 2024,600,-12.365,-12.365,0.486,0.486,-4.866,8.658,6.780,0.484,16.146,8.611,-0.992,15.637,6.475,11.134,7.851,3.365
Thu Dec 05 12:56:10 2024,605,-12.365,-12.365,0.573,0.573,-4.872,8.837,6.826,0.391,16.155,8.598,-1.027,15.666,6.501,11.103,7.895,3.357
Thu Dec 05 12:56:10 2024,610,-12.322,-12.322,0.514,0.514,-4.868,8.990,6.836,0.403,16.282,8.599,-1.030,15.758,6.478,11.131,7.875,3.312
Thu Dec 05 12:56:10 2024,615,-12.261,-12.261,0.412,0.412,-4.862,9.163,6.837,0.444,16.458,8.603,-1.027,15.879,6.440,11.177,7.835,3.251
Thu Dec 05 12:56:10 2024,620,-12.227,-12.227,0.328,0.328,-4.860,9.161,6.817,0.438,16.421,8.601,-1.076,15.813,6.430,11.183,7.812,3.276
Thu Dec 05 12:56:10 2024,625,-12.216,-12.216,0.289,0.289,-4.860,9.072,6.792,0.410,16.287,8.597,-1.137,15.669,6.438,11.166,7.803,3.338
Thu Dec 05 12:56:10 2024,630,-12.228,-12.228,0.288,0.288,-4.843,9.078,6.785,0.425,16.274,8.613,-1.190,15.610,6.444,11.173,7.797,3.370
Thu Dec 05 12:56:10 2024,635,-12.273,-12.273,0.332,0.332,-4.798,9.223,6.805,0.502,16.434,8.663,-1.239,15.665,6.451,11.213,7.795,3.361
Thu Dec 05 12:56:10 2024,640,-12.266,-12.266,0.334,0.334,-4.756,9.284,6.802,0.541,16.480,8.694,-1.273,15.682,6.464,11.234,7.792,3.374
Thu Dec 05 12:56:10 2024,645,-12.186,-12.186,0.286,0.005,-4.697,9.254,6.764,0.546,16.391,8.710,-1.300,15.654,6.492,11.241,7.788,3.419
Thu Dec 05 12:56:10 2024,650,-12.123,-12.123,0.278,-0.278,-4.665,9.222,6.716,0.544,16.327,8.706,-1.339,15.633,6.501,11.234,7.802,3.449
Thu Dec 05 12:56:10 2024,655,-12.123,-12.123,0.310,-0.310,-4.728,9.180,6.634,0.518,16.352,8.634,-1.417,15.640,6.447,11.184,7.880,3.426
Thu Dec 05 12:56:10 2024,660,-12.124,-12.124,0.361,-0.361,-4.784,9.144,6.562,0.495,16.374,8.571,-1.485,15.643,6.400,11.141,7.948,3.406
Thu Dec 05 12:56:10 2024,665,-11.937,-11.937,0.565,-0.565,-4.678,9.159,6.583,0.537,16.357,8.600,-1.449,15.621,6.409,11.107,7.977,3.386
Thu Dec 05 12:56:10 2024,670,-11.771,-11.771,0.774,-0.774,-4.582,9.175,6.604,0.574,16.343,8.629,-1.416,15.604,6.419,11.076,8.003,3.369
Thu Dec 05 12:56:10 2024,675,-11.595,-11.595,1.029,-1.029,-4.528,9.257,6.682,0.564,16.404,8.667,-1.439,15.736,6.441,11.029,8.098,3.357
Thu Dec 05 12:56:10 2024,680,-11.444,-11.444,1.259,-1.259,-4.481,9.329,6.751,0.557,16.457,8.701,-1.458,15.852,6.461,10.987,8.181,3.347
Thu Dec 05 12:56:10 2024,685,-11.279,-11.279,-1.446,-1.446,-4.389,9.296,6.814,0.532,16.369,8.756,-1.519,15.720,6.458,10.921,8.205,3.337
Thu Dec 05 12:56:10 2024,690,-11.169,-11.169,-1.570,-1.570,-4.310,9.239,6.858,0.508,16.263,8.802,-1.575,15.553,6.450,10.867,8.203,3.331
Thu Dec 05 12:56:10 2024,695,-11.050,-11.050,-1.740,-1.740,-4.204,9.225,6.903,0.502,16.217,8.800,-1.636,15.472,6.409,10.812,8.228,3.302
Thu Dec 05 12:56:10 2024,700,-10.972,-10.972,-1.931,-1.931,-4.086,9.239,6.948,0.506,16.212,8.766,-1.694,15.452,6.352,10.762,8.269,3.258
Thu Dec 05 12:56:10 2024,705,-11.047,-11.047,-2.104,-2.104,-3.949,9.318,7.029,0.454,16.155,8.738,-1.733,15.431,6.307,10.774,8.227,3.192
Thu Dec 05 12:56:10 2024,710,-11.224,-11.224,-2.255,-2.255,-3.806,9.434,7.129,0.366,16.066,8.716,-1.758,15.412,6.271,10.825,8.134,3.114
Thu Dec 05 12:56:10 2024,715,-11.544,-11.544,-2.600,-2.600,-3.660,9.541,7.211,0.255,15.961,8.701,-1.841,15.333,6.233,10.872,8.038,3.049
Thu Dec 05 12:56:10 2024,720,-12.099,-12.099,-3.312,-3.312,-3.514,9.627,7.252,0.107,15.828,8.698,-2.039,15.135,6.189,10.905,7.936,3.014
Thu Dec 05 12:56:10 2024,725,-12.489,-12.489,-4.008,-4.008,-3.424,9.701,7.277,0.014,15.756,8.690,-2.142,15.089,6.184,10.995,7.821,2.992
Thu Dec 05 12:56:10 2024,730,-12.940,-12.940,-5.194,-5.194,-3.340,9.816,7.299,-0.040,15.714,8.668,-2.198,15.202,6.223,11.221,7.608,2.970
Thu Dec 05 12:56:10 2024,735,-13.390,-13.390,-6.289,-6.289,-3.273,9.921,7.316,-0.052,15.689,8.647,-2.229,15.337,6.267,11.445,7.404,2.953
Thu Dec 05 12:56:10 2024,740,-14.046,-14.046,-6.992,-6.992,-3.414,9.809,7.429,-0.222,15.506,8.717,-2.391,15.275,6.335,11.614,7.256,2.999
Thu Dec 05 12:56:10 2024,745,-14.664,-14.664,-7.652,-7.652,-3.532,9.718,7.527,-0.387,15.342,8.775,-2.531,15.226,6.396,11.773,7.115,3.038
Thu Dec 05 12:56:10 2024,750,-15.388,-15.388,-8.372,-8.372,-3.541,9.577,7.574,-0.485,15.091,8.829,-2.603,15.026,6.479,11.878,6.923,3.150
Thu Dec 05 12:56:10 2024,755,-16.243,-16.243,-9.163,-9.163,-3.542,9.413,7.622,-0.589,14.801,8.889,-2.676,14.788,6.574,11.990,6.699,3.287
Thu Dec 05 12:56:10 2024,760,-17.235,-17.235,-9.282,-9.282,-3.374,9.575,7.821,-0.628,14.756,8.986,-2.741,14.758,6.662,12.125,6.513,3.362
Thu Dec 05 12:56:10 2024,765,-17.977,-17.977,-9.273,-9.273,-3.232,9.734,7.984,-0.646,14.757,9.061,-2.786,14.765,6.723,12.224,6.387,3.409
Thu Dec 05 12:56:10 2024,770,-19.182,-19.182,-8.883,-8.883,-3.058,9.849,8.232,-0.611,14.764,9.228,-2.850,14.681,6.845,12.294,6.276,3.556
Thu Dec 05 12:56:10 2024,775,-20.336,-20.336,-8.356,-8.356,-2.914,9.898,8.462,-0.551,14.773,9.406,-2.908,14.561,6.972,12.323,6.210,3.728
Thu Dec 05 12:56:10 2024,780,-21.479,-21.479,-7.948,-7.948,-2.748,9.833,8.683,-0.510,14.697,9.561,-2.900,14.442,7.098,12.366,6.115,3.862
Thu Dec 05 12:56:10 2024,785,-22.882,-22.882,-7.514,-7.514,-2.526,9.666,8.952,-0.471,14.545,9.738,-2.845,14.292,7.256,12.428,5.977,4.005
Thu Dec 05 12:56:10 2024,790,-24.201,-24.201,-7.240,-7.240,-2.422,9.472,9.127,-0.409,14.429,9.869,-2.747,14.215,7.418,12.567,5.863,4.226
Thu Dec 05 12:56:10 2024,795,-25.274,-25.274,-7.153,-7.153,-2.437,9.285,9.190,-0.329,14.361,9.939,-2.619,14.218,7.564,12.759,5.784,4.489
Thu Dec 05 12:56:10 2024,800,-26.678,-26.678,-6.831,-6.831,-2.495,9.033,9.314,-0.224,14.321,10.039,-2.419,14.326,7.777,12.978,5.689,4.807
Thu Dec 05 12:56:10 2024,805,-28.114,-28.114,-6.029,-6.029,-2.640,8.766,9.537,-0.122,14.396,10.156,-2.138,14.690,8.047,13.124,5.623,5.066
Thu Dec 05 12:56:10 2024,810,-29.649,-29.649,-5.170,-5.170,-2.792,8.477,9.773,0.079,14.473,10.282,-1.840,15.077,8.339,13.280,5.550,5.344
Thu Dec 05 12:56:10 2024,815,-30.939,-30.939,-4.592,-4.592,-3.472,7.505,9.602,0.088,14.159,10.272,-1.644,14.946,8.546,13.271,5.693,5.754
Thu Dec 05 12:56:10 2024,820,-31.824,-31.824,-4.190,-4.190,-3.911,6.857,9.496,0.095,13.958,10.270,-1.506,14.868,8.690,13.266,5.782,6.027
Thu Dec 05 12:56:10 2024,825,-32.360,-32.360,-4.303,-4.303,-4.976,5.810,9.151,0.112,13.820,10.349,-1.522,14.680,8.840,13.353,5.820,6.194
Thu Dec 05 12:56:10 2024,830,-32.759,-32.759,-4.500,-4.500,-5.987,4.809,8.813,0.133,13.712,10.431,-1.561,14.500,8.965,13.438,5.839,6.314
Thu Dec 05 12:56:10 2024,835,-32.970,-32.970,-4.932,-4.932,-6.836,4.101,8.722,0.162,13.445,10.499,-1.436,14.426,9.155,13.612,5.699,6.487
Thu Dec 05 12:56:10 2024,840,-33.167,-33.167,-5.409,-5.409,-7.684,3.392,8.657,0.199,13.151,10.568,-1.285,14.359,9.358,13.802,5.534,6.672
Thu Dec 05 12:56:10 2024,845,-33.312,-33.312,-5.751,-5.751,-8.140,2.932,8.573,0.176,12.972,10.605,-1.249,14.371,9.499,13.921,5.444,6.767
Thu Dec 05 12:56:10 2024,850,-33.411,-33.411,-5.978,-5.978,-8.376,2.651,8.501,0.147,12.867,10.624,-1.257,14.405,9.590,13.993,5.396,6.812
Thu Dec 05 12:56:10 2024,855,-33.586,-33.586,-6.406,-6.406,-8.442,2.324,8.354,0.136,12.684,10.661,-1.296,14.298,9.687,14.000,5.393,6.847
Thu Dec 05 12:56:10 2024,860,-33.766,-33.766,-6.858,-6.858,-8.302,2.088,8.195,-0.159,12.500,10.700,-1.348,14.091,9.751,13.938,5.436,6.854
Thu Dec 05 12:56:10 2024,865,-33.927,-33.927,-7.316,-7.316,-8.167,1.833,8.108,-0.215,12.254,10.704,-1.458,13.815,9.757,13.918,5.424,6.870
Thu Dec 05 12:56:10 2024,870,-34.051,-34.051,-7.720,-7.720,-8.051,1.594,8.095,-0.287,11.983,10.674,-1.607,13.511,9.711,13.941,5.362,6.893
Thu Dec 05 12:56:10 2024,875,-34.130,-34.130,-8.070,-8.070,-8.026,1.363,8.054,-0.354,11.776,10.638,-1.740,13.254,9.662,13.963,5.317,6.916
Thu Dec 05 12:56:10 2024,880,-34.145,-34.145,-8.468,-8.468,-8.204,1.044,7.925,-0.438,11.621,10.568,-1.906,12.983,9.583,13.998,5.298,6.947
Thu Dec 05 12:56:10 2024,885,-34.156,-34.156,-8.779,-8.779,-8.344,0.795,7.824,-0.506,11.500,10.513,-2.036,12.771,9.522,14.025,5.283,6.972
Thu Dec 05 12:56:10 2024,890,-34.180,-34.180,-8.949,-8.949,-8.442,0.648,7.794,-0.414,11.375,10.477,-1.960,12.670,9.514,14.056,5.240,6.933
Thu Dec 05 12:56:10 2024,895,-34.201,-34.201,-9.128,-9.128,-8.542,0.494,7.758,-0.345,11.253,10.440,-1.907,12.559,9.501,14.085,5.202,6.901
Thu Dec 05 12:56:10 2024,900,-34.270,-34.270,-9.400,-9.400,-8.678,0.167,7.656,-0.336,10.979,10.311,-1.798,12.504,9.533,14.132,5.154,6.960
Thu Dec 05 12:56:10 2024,905,-34.323,-34.323,-9.592,-9.592,-8.775,-0.069,7.582,-0.336,10.780,10.215,-1.719,12.471,9.559,14.166,5.120,7.009
Thu Dec 05 12:56:10 2024,910,-34.304,-34.304,-9.824,-9.824,-8.914,-0.399,7.489,-0.367,10.700,10.216,-1.730,12.550,9.613,14.190,5.141,7.042
Thu Dec 05 12:56:10 2024,915,-34.278,-34.278,-10.007,-10.007,-9.026,-0.664,7.415,-0.397,10.658,10.231,-1.754,12.627,9.658,14.206,5.164,7.064
Thu Dec 05 12:56:10 2024,920,-34.240,-34.240,-10.180,-10.180,-9.137,-0.798,7.402,-0.395,10.559,10.240,-1.703,12.605,9.675,14.167,5.227,7.091
Thu Dec 05 12:56:10 2024,925,-34.208,-34.208,-10.308,-10.308,-9.221,-0.862,7.409,-0.384,10.468,10.244,-1.644,12.560,9.679,14.121,5.286,7.113
Thu Dec 05 12:56:10 2024,930,-34.194,-34.194,-10.452,-10.452,-9.309,-0.968,7.389,-0.389,10.388,10.249,-1.589,12.620,9.735,14.110,5.329,7.173
Thu Dec 05 12:56:10 2024,935,-34.191,-34.191,-10.596,-10.596,-9.392,-1.093,7.352,-0.405,10.322,10.255,-1.544,12.744,9.821,14.121,5.356,7.252
Thu Dec 05 12:56:10 2024,940,-34.197,-34.197,-10.712,-10.712,-9.493,-1.262,7.307,-0.433,10.249,10.262,-1.489,12.801,9.891,14.117,5.369,7.272
Thu Dec 05 12:56:10 2024,945,-34.208,-34.208,-10.791,-10.791,-9.602,-1.453,7.260,-0.471,10.177,10.270,-1.432,12.791,9.940,14.098,5.368,7.235
Thu Dec 05 12:56:10 2024,950,-34.217,-34.217,-10.852,-10.852,-9.685,-1.599,7.223,-0.501,10.122,10.277,-1.387,12.782,9.977,14.084,5.368,7.207
Thu Dec 05 12:56:10 2024,955,-34.219,-34.219,-10.952,-10.952,-9.613,-1.553,7.215,-0.436,10.112,10.244,-1.316,12.866,9.946,14.138,5.310,7.201
Thu Dec 05 12:56:10 2024,960,-34.215,-34.215,-11.045,-11.045,-9.573,-1.559,7.196,-0.396,10.083,10.209,-1.251,12.908,9.908,14.170,5.274,7.186
Thu Dec 05 12:56:10 2024,965,-34.189,-34.189,-11.094,-11.094,-9.564,-1.619,7.163,-0.390,10.031,10.158,-1.215,12.844,9.813,14.154,5.298,7.163
Thu Dec 05 12:56:10 2024,970,-34.168,-34.168,-11.136,-11.136,-9.557,-1.670,7.135,-0.385,9.987,10.114,-1.186,12.789,9.733,14.140,5.319,7.143
Thu Dec 05 12:56:10 2024,975,-34.212,-34.212,-11.091,-11.091,-9.675,-1.814,7.110,-0.399,10.033,10.148,-1.128,12.945,9.816,14.154,5.304,7.149
Thu Dec 05 12:56:10 2024,980,-34.250,-34.250,-11.055,-11.055,-9.773,-1.934,7.088,-0.411,10.071,10.176,-1.080,13.073,9.885,14.165,5.292,7.153
Thu Dec 05 12:56:10 2024,985,-34.289,-34.289,-11.073,-11.073,-9.767,-1.972,7.090,-0.403,10.021,10.189,-1.056,13.010,9.935,14.195,5.239,7.178
Thu Dec 05 12:56:10 2024,990,-34.330,-34.330,-11.097,-11.097,-9.750,-2.003,7.094,-0.394,9.958,10.202,-1.034,12.924,9.986,14.228,5.179,7.208
Thu Dec 05 12:56:10 2024,995,-34.332,-34.332,-11.097,-11.097,-9.701,-1.987,7.088,-0.419,9.908,10.175,-1.055,12.962,9.978,14.200,5.223,7.228
Thu Dec 05 12:56:11 2024,0,-34.320,-34.320,-11.089,-11.089,-9.644,-1.956,7.078,-0.457,9.865,10.136,-1.089,13.038,9.953,14.153,5.299,7.246
Thu Dec 05 12:56:11 2024,5,-34.335,-34.335,-11.088,-11.088,-9.633,-1.902,7.084,-0.462,9.861,10.092,-1.084,13.081,9.940,14.126,5.337,7.260
Thu Dec 05 12:56:11 2024,10,-34.365,-34.365,-11.089,-11.089,-9.643,-1.826,7.100,-0.452,9.875,10.037,-1.060,13.115,9.933,14.104,5.362,7.275
Thu Dec 05 12:56:11 2024,15,-34.335,-34.335,-11.109,-11.109,-9.665,-1.815,7.087,-0.454,9.860,10.006,-1.064,13.105,9.918,14.084,5.374,7.281
Thu Dec 05 12:56:11 2024,20,-34.244,-34.244,-11.147,-11.147,-9.696,-1.872,7.045,-0.469,9.817,10.002,-1.099,13.049,9.897,14.069,5.370,7.278
Thu Dec 05 12:56:11 2024,25,-34.164,-34.164,-11.180,-11.180,-9.724,-1.924,7.008,-0.483,9.778,9.999,-1.130,12.999,9.878,14.056,5.366,7.275
Thu Dec 05 12:56:11 2024,30,-34.272,-34.272,-11.069,-11.069,-9.715,-1.947,7.179,-0.551,9.564,10.126,-1.167,13.006,10.053,14.019,5.365,7.302
Thu Dec 05 12:56:11 2024,35,-34.345,-34.345,-11.014,-11.014,-9.705,-1.960,7.237,-0.588,9.488,10.172,-1.195,13.000,10.119,13.980,5.390,7.319
Thu Dec 05 12:56:11 2024,40,-34.419,-34.419,-11.018,-11.018,-9.677,-1.939,7.149,-0.581,9.619,10.109,-1.204,12.994,10.042,13.929,5.469,7.329
Thu Dec 05 12:56:11 2024,45,-34.500,-34.500,-11.023,-11.023,-9.646,-1.917,7.053,-0.574,9.764,10.040,-1.215,12.988,9.958,13.873,5.556,7.339
