Timestamp,Millis,thumb_tm_aa,thumb_tm_flex,thumb_mcp_aa,thumb_mcp_flex,thumb_ip,index_mcp_aa,index_mcp_flex,index_pip,middle_mcp_aa,middle_mcp_flex,middle_pip,ring_mcp_aa,ring_mcp_flex,ring_pip,little_mcp_aa,little_mcp_flex,little_pip
Fri Nov 22 21:09:53 2024,390,-25.897,-25.897,3.232,3.232,0.882,-0.726,15.472,6.670,5.241,14.157,9.669,-1.116,12.359,7.106,12.455,6.349,6.007
Fri Nov 22 21:09:53 2024,395,-25.825,-25.825,3.156,3.156,0.898,-0.799,15.303,6.755,5.227,14.089,9.773,-1.226,12.163,7.215,12.480,6.337,6.120
Fri Nov 22 21:09:53 2024,400,-25.822,-25.822,3.192,3.192,0.929,-0.796,15.288,6.783,5.251,14.065,9.747,-1.242,12.147,7.193,12.440,6.352,6.088
Fri Nov 22 21:09:53 2024,405,-25.826,-25.826,3.255,3.255,0.973,-0.781,15.294,6.815,5.291,14.039,9.701,-1.250,12.148,7.151,12.386,6.368,6.029
Fri Nov 22 21:09:53 2024,410,-25.838,-25.838,3.285,3.285,0.980,-0.778,15.352,6.836,5.320,14.023,9.690,-1.236,12.117,7.123,12.386,6.334,5.978
Fri Nov 22 21:09:53 2024,415,-25.854,-25.854,3.285,3.285,0.959,-0.784,15.437,6.846,5.335,14.019,9.707,-1.207,12.068,7.110,12.425,6.272,5.943
Fri Nov 22 21:09:53 2024,420,-25.859,-25.859,3.263,3.263,0.941,-0.796,15.498,6.871,5.329,14.029,9.739,-1.198,12.052,7.134,12.451,6.246,5.958
Fri Nov 22 21:09:53 2024,425,-25.831,-25.831,3.194,3.194,0.934,-0.819,15.466,6.924,5.268,14.073,9.794,-1.245,12.127,7.243,12.431,6.327,6.097
Fri Nov 22 21:09:53 2024,430,-25.805,-25.805,3.129,3.129,0.927,-0.840,15.436,6.973,5.211,14.113,9.847,-1.289,12.198,7.345,12.411,6.402,6.229
Fri Nov 22 21:09:53 2024,435,-25.772,-25.772,3.171,3.171,0.957,-0.823,15.392,6.923,5.224,14.100,9.828,-1.282,12.120,7.307,12.419,6.398,6.246
Fri Nov 22 21:09:53 2024,440,-25.736,-25.736,3.216,3.216,0.991,-0.803,15.345,6.871,5.238,14.087,9.808,-1.275,12.037,7.266,12.428,6.394,6.263
Fri Nov 22 21:09:53 2024,445,-25.757,-25.757,3.213,3.213,0.965,-0.807,15.381,6.846,5.229,14.128,9.763,-1.294,12.065,7.196,12.426,6.412,6.224
Fri Nov 22 21:09:53 2024,450,-25.781,-25.781,3.206,3.206,0.936,-0.812,15.421,6.827,5.219,14.170,9.720,-1.314,12.099,7.129,12.424,6.431,6.184
Fri Nov 22 21:09:53 2024,455,-25.795,-25.795,3.200,3.200,0.918,-0.847,15.416,6.794,5.216,14.210,9.709,-1.324,12.150,7.105,12.411,6.433,6.121
Fri Nov 22 21:09:53 2024,460,-25.799,-25.799,3.195,3.195,0.913,-0.897,15.376,6.758,5.218,14.240,9.726,-1.324,12.203,7.120,12.393,6.421,6.054
Fri Nov 22 21:09:53 2024,465,-25.803,-25.803,3.190,3.190,0.908,-0.950,15.333,6.719,5.220,14.270,9.743,-1.325,12.259,7.136,12.373,6.408,5.983
Fri Nov 22 21:09:53 2024,470,-25.870,-25.870,3.302,3.302,1.037,-0.997,15.262,6.726,5.106,14.326,9.712,-1.428,12.162,7.098,12.253,6.550,6.032
Fri Nov 22 21:09:53 2024,475,-25.911,-25.911,3.368,3.368,1.120,-1.037,15.211,6.722,5.038,14.364,9.696,-1.488,12.115,7.079,12.177,6.633,6.047
Fri Nov 22 21:09:53 2024,480,-25.967,-25.967,3.374,3.374,1.101,-1.089,15.249,6.855,5.049,14.393,9.824,-1.480,12.257,7.244,12.237,6.603,6.160
Fri Nov 22 21:09:53 2024,485,-26.018,-26.018,3.380,3.380,1.084,-1.137,15.284,6.980,5.061,14.418,9.946,-1.473,12.390,7.400,12.295,6.573,6.266
Fri Nov 22 21:09:53 2024,490,-26.067,-26.067,3.385,3.385,1.104,-1.104,15.319,7.020,5.092,14.361,9.902,-1.465,12.387,7.407,12.303,6.552,6.255
Fri Nov 22 21:09:53 2024,495,-26.116,-26.116,3.390,3.390,1.133,-1.054,15.353,7.041,5.129,14.284,9.821,-1.458,12.352,7.381,12.299,6.534,6.217
Fri Nov 22 21:09:53 2024,500,-26.156,-26.156,3.394,3.394,1.158,-1.012,15.382,7.059,5.160,14.219,9.754,-1.453,12.324,7.359,12.296,6.518,6.186
Fri Nov 22 21:09:53 2024,505,-26.276,-26.276,3.560,3.560,1.296,-1.070,15.298,7.072,5.087,14.338,9.865,-1.486,12.419,7.448,12.202,6.608,6.276
Fri Nov 22 21:09:53 2024,510,-26.345,-26.345,3.643,3.643,1.374,-1.087,15.266,7.083,5.060,14.378,9.900,-1.502,12.457,7.486,12.155,6.648,6.311
Fri Nov 22 21:09:53 2024,515,-26.404,-26.404,3.654,3.654,1.402,-1.157,15.131,7.083,5.040,14.377,9.879,-1.528,12.496,7.514,12.244,6.682,6.421
Fri Nov 22 21:09:53 2024,520,-26.454,-26.454,3.676,3.676,1.434,-1.204,15.039,7.084,5.023,14.383,9.872,-1.548,12.527,7.538,12.291,6.708,6.497
Fri Nov 22 21:09:53 2024,525,-26.550,-26.550,3.731,3.731,1.460,-1.238,15.033,7.068,5.025,14.398,9.862,-1.560,12.423,7.453,12.247,6.714,6.445
Fri Nov 22 21:09:53 2024,530,-26.653,-26.653,3.793,3.793,1.482,-1.265,15.052,7.047,5.033,14.414,9.852,-1.570,12.285,7.341,12.178,6.711,6.357
Fri Nov 22 21:09:53 2024,535,-26.741,-26.741,3.914,3.914,1.547,-1.295,15.080,7.072,5.022,14.445,9.829,-1.613,12.265,7.304,12.152,6.722,6.313
Fri Nov 22 21:09:53 2024,540,-26.825,-26.825,4.056,4.056,1.628,-1.328,15.110,7.114,5.002,14.482,9.802,-1.670,12.286,7.293,12.140,6.738,6.284
Fri Nov 22 21:09:53 2024,545,-26.885,-26.885,4.094,4.094,1.675,-1.332,15.093,7.092,4.990,14.526,9.812,-1.673,12.292,7.278,12.120,6.786,6.299
Fri Nov 22 21:09:53 2024,550,-26.917,-26.917,4.076,4.076,1.694,-1.324,15.062,7.050,4.983,14.560,9.835,-1.654,12.291,7.265,12.101,6.835,6.328
Fri Nov 22 21:09:53 2024,555,-26.984,-26.984,4.162,4.162,1.761,-1.342,15.058,7.046,4.982,14.570,9.828,-1.658,12.314,7.252,12.057,6.894,6.329
Fri Nov 22 21:09:53 2024,560,-27.080,-27.080,4.357,4.357,1.874,-1.391,15.089,7.093,4.987,14.548,9.785,-1.694,12.362,7.241,11.992,6.953,6.295
Fri Nov 22 21:09:53 2024,565,-27.155,-27.155,4.512,4.512,1.964,-1.429,15.113,7.130,4.991,14.530,9.750,-1.722,12.400,7.232,11.941,7.000,6.267
Fri Nov 22 21:09:53 2024,570,-27.196,-27.196,4.511,4.511,2.006,-1.411,14.909,7.094,4.977,14.533,9.801,-1.705,12.302,7.270,12.024,6.907,6.318
Fri Nov 22 21:09:53 2024,575,-27.232,-27.232,4.531,4.531,2.046,-1.403,14.777,7.076,4.969,14.533,9.830,-1.698,12.242,7.293,12.072,6.851,6.348
Fri Nov 22 21:09:53 2024,580,-27.351,-27.351,4.727,4.727,2.171,-1.440,14.842,7.101,4.973,14.542,9.849,-1.682,12.272,7.328,12.071,6.875,6.371
Fri Nov 22 21:09:53 2024,585,-27.470,-27.470,4.927,4.927,2.298,-1.480,14.919,7.128,4.978,14.551,9.867,-1.666,12.307,7.362,12.066,6.903,6.392
Fri Nov 22 21:09:53 2024,590,-27.540,-27.540,5.066,5.066,2.376,-1.478,14.977,7.136,4.982,14.555,9.852,-1.659,12.352,7.364,12.046,6.926,6.380
Fri Nov 22 21:09:53 2024,595,-27.570,-27.570,5.190,5.190,2.423,-1.416,15.039,7.120,4.987,14.553,9.782,-1.663,12.434,7.317,11.995,6.952,6.313
Fri Nov 22 21:09:53 2024,600,-27.590,-27.590,5.263,5.263,2.474,-1.406,15.026,7.125,4.990,14.538,9.782,-1.641,12.457,7.334,12.009,6.941,6.318
Fri Nov 22 21:09:53 2024,605,-27.596,-27.596,5.317,5.317,2.541,-1.417,14.948,7.142,4.993,14.505,9.825,-1.593,12.450,7.396,12.073,6.898,6.370
Fri Nov 22 21:09:53 2024,610,-27.602,-27.602,5.366,5.366,2.601,-1.427,14.876,7.157,4.996,14.474,9.864,-1.548,12.444,7.454,12.131,6.858,6.418
Fri Nov 22 21:09:53 2024,615,-27.677,-27.677,5.480,5.480,2.661,-1.353,14.960,7.150,5.039,14.458,9.824,-1.554,12.419,7.411,12.114,6.873,6.431
Fri Nov 22 21:09:53 2024,620,-27.734,-27.734,5.573,5.573,2.716,-1.298,15.012,7.147,5.072,14.440,9.800,-1.552,12.399,7.388,12.109,6.878,6.448
Fri Nov 22 21:09:53 2024,625,-27.766,-27.766,5.640,5.640,2.748,-1.314,14.958,7.125,5.016,14.471,9.809,-1.581,12.413,7.420,12.086,6.895,6.416
Fri Nov 22 21:09:53 2024,630,-27.798,-27.798,5.705,5.705,2.778,-1.326,14.910,7.106,4.966,14.497,9.816,-1.608,12.424,7.448,12.064,6.909,6.387
Fri Nov 22 21:09:53 2024,635,-27.858,-27.858,5.779,5.779,2.847,-1.314,14.931,7.148,4.996,14.459,9.831,-1.578,12.409,7.458,12.105,6.891,6.420
Fri Nov 22 21:09:53 2024,640,-27.921,-27.921,5.852,5.852,2.922,-1.299,14.963,7.200,5.039,14.410,9.847,-1.541,12.389,7.463,12.157,6.865,6.464
Fri Nov 22 21:09:53 2024,645,-27.982,-27.982,5.931,5.931,2.986,-1.285,14.977,7.216,5.075,14.378,9.849,-1.501,12.394,7.456,12.186,6.845,6.462
Fri Nov 22 21:09:53 2024,650,-28.018,-28.018,6.002,6.002,3.006,-1.277,14.931,7.127,5.081,14.398,9.813,-1.469,12.467,7.416,12.142,6.846,6.337
Fri Nov 22 21:09:53 2024,655,-28.045,-28.045,6.075,6.075,3.026,-1.277,14.927,7.095,5.079,14.418,9.800,-1.434,12.530,7.414,12.116,6.859,6.293
Fri Nov 22 21:09:53 2024,660,-28.043,-28.043,6.132,6.132,3.029,-1.293,14.977,7.134,5.056,14.445,9.818,-1.407,12.581,7.467,12.104,6.894,6.360
Fri Nov 22 21:09:53 2024,665,-28.040,-28.040,6.194,6.194,3.032,-1.310,15.031,7.177,5.031,14.474,9.837,-1.377,12.637,7.525,12.090,6.931,6.434
Fri Nov 22 21:09:53 2024,670,-28.055,-28.055,6.247,6.247,3.074,-1.267,15.044,7.151,5.050,14.444,9.746,-1.356,12.520,7.356,12.100,6.872,6.310
Fri Nov 22 21:09:53 2024,675,-28.071,-28.071,6.303,6.303,3.122,-1.216,15.055,7.116,5.073,14.406,9.638,-1.335,12.378,7.155,12.112,6.798,6.162
Fri Nov 22 21:09:53 2024,680,-28.066,-28.066,6.370,6.370,3.172,-1.210,15.027,7.085,5.090,14.410,9.652,-1.339,12.414,7.160,12.094,6.831,6.156
Fri Nov 22 21:09:53 2024,685,-28.056,-28.056,6.458,6.458,3.237,-1.212,14.985,7.045,5.111,14.421,9.692,-1.348,12.492,7.204,12.066,6.893,6.175
Fri Nov 22 21:09:53 2024,690,-28.049,-28.049,6.522,6.522,3.285,-1.213,14.955,7.016,5.126,14.428,9.721,-1.356,12.550,7.236,12.045,6.938,6.189
Fri Nov 22 21:09:53 2024,695,-28.141,-28.141,6.521,6.521,3.219,-1.229,15.025,7.060,5.054,14.453,9.673,-1.348,12.486,7.213,12.027,6.870,6.089
Fri Nov 22 21:09:53 2024,700,-28.179,-28.179,6.581,6.581,3.243,-1.221,15.011,7.061,5.036,14.448,9.650,-1.337,12.433,7.191,12.020,6.827,6.045
Fri Nov 22 21:09:53 2024,705,-28.177,-28.177,6.696,6.696,3.343,-1.186,14.922,7.032,5.060,14.407,9.631,-1.315,12.348,7.148,12.033,6.776,6.034
Fri Nov 22 21:09:53 2024,710,-28.176,-28.176,6.789,6.789,3.423,-1.160,14.853,7.010,5.079,14.376,9.616,-1.296,12.285,7.115,12.045,6.737,6.030
Fri Nov 22 21:09:53 2024,715,-28.178,-28.178,6.800,6.800,3.405,-1.191,14.900,7.046,5.068,14.405,9.643,-1.270,12.388,7.156,12.079,6.783,6.100
Fri Nov 22 21:09:53 2024,720,-28.181,-28.181,6.810,6.810,3.387,-1.223,14.948,7.083,5.057,14.435,9.670,-1.245,12.491,7.197,12.114,6.826,6.170
Fri Nov 22 21:09:53 2024,725,-28.183,-28.183,6.820,6.820,3.371,-1.250,14.988,7.113,5.047,14.460,9.693,-1.223,12.578,7.231,12.143,6.861,6.229
Fri Nov 22 21:09:53 2024,730,-28.166,-28.166,6.806,6.806,3.463,-1.166,14.855,7.120,5.027,14.429,9.725,-1.273,12.446,7.253,12.082,6.798,6.178
Fri Nov 22 21:09:53 2024,735,-28.167,-28.167,6.819,6.819,3.485,-1.150,14.829,7.131,5.026,14.409,9.719,-1.276,12.430,7.251,12.049,6.832,6.177
Fri Nov 22 21:09:53 2024,740,-28.171,-28.171,6.840,6.840,3.497,-1.142,14.817,7.140,5.030,14.383,9.700,-1.274,12.424,7.238,12.012,6.889,6.177
Fri Nov 22 21:09:53 2024,745,-28.173,-28.173,6.865,6.865,3.512,-1.125,14.852,7.152,5.048,14.354,9.695,-1.254,12.434,7.244,12.003,6.908,6.180
Fri Nov 22 21:09:53 2024,750,-28.170,-28.170,6.892,6.892,3.529,-1.092,14.972,7.169,5.088,14.323,9.717,-1.202,12.475,7.287,12.050,6.849,6.189
Fri Nov 22 21:09:53 2024,755,-28.167,-28.167,6.922,6.922,3.547,-1.057,15.099,7.186,5.131,14.290,9.741,-1.147,12.518,7.332,12.101,6.787,6.199
Fri Nov 22 21:09:53 2024,760,-28.185,-28.185,6.967,6.967,3.548,-1.088,15.058,7.176,5.072,14.341,9.709,-1.215,12.557,7.290,12.064,6.834,6.175
Fri Nov 22 21:09:53 2024,765,-28.203,-28.203,7.015,7.015,3.550,-1.113,15.036,7.169,5.021,14.386,9.682,-1.273,12.599,7.258,12.036,6.870,6.153
Fri Nov 22 21:09:53 2024,770,-28.193,-28.193,6.999,6.999,3.505,-1.103,15.114,7.217,5.037,14.363,9.708,-1.265,12.626,7.287,12.066,6.861,6.185
Fri Nov 22 21:09:53 2024,775,-28.180,-28.180,6.978,6.978,3.454,-1.089,15.204,7.272,5.058,14.336,9.738,-1.253,12.652,7.322,12.102,6.848,6.222
Fri Nov 22 21:09:53 2024,780,-28.163,-28.163,6.973,6.973,3.437,-1.040,15.268,7.298,5.115,14.288,9.762,-1.214,12.665,7.349,12.151,6.823,6.276
Fri Nov 22 21:09:53 2024,785,-28.148,-28.148,6.976,6.976,3.441,-0.986,15.303,7.304,5.174,14.243,9.777,-1.174,12.667,7.366,12.193,6.799,6.324
Fri Nov 22 21:09:53 2024,790,-28.146,-28.146,6.991,6.991,3.465,-0.933,15.319,7.292,5.209,14.215,9.792,-1.144,12.649,7.377,12.201,6.793,6.359
Fri Nov 22 21:09:53 2024,795,-28.169,-28.169,7.024,7.024,3.518,-0.893,15.297,7.252,5.189,14.226,9.806,-1.140,12.602,7.377,12.144,6.821,6.358
Fri Nov 22 21:09:53 2024,800,-28.190,-28.190,7.060,7.060,3.556,-0.871,15.276,7.236,5.166,14.240,9.826,-1.132,12.602,7.400,12.100,6.842,6.360
Fri Nov 22 21:09:53 2024,805,-28.212,-28.212,7.117,7.117,3.559,-0.902,15.253,7.299,5.122,14.264,9.876,-1.101,12.769,7.511,12.087,6.851,6.370
Fri Nov 22 21:09:53 2024,810,-28.234,-28.234,7.176,7.176,3.561,-0.933,15.230,7.362,5.078,14.288,9.927,-1.071,12.936,7.621,12.073,6.859,6.379
Fri Nov 22 21:09:53 2024,815,-28.232,-28.232,7.158,7.158,3.564,-0.944,15.225,7.331,5.062,14.320,9.910,-1.122,12.864,7.580,12.064,6.896,6.419
Fri Nov 22 21:09:53 2024,820,-28.228,-28.228,7.131,7.131,3.567,-0.951,15.224,7.291,5.054,14.348,9.885,-1.179,12.765,7.521,12.056,6.931,6.459
Fri Nov 22 21:09:53 2024,825,-28.233,-28.233,7.124,7.124,3.550,-0.941,15.219,7.313,5.035,14.370,9.926,-1.201,12.688,7.527,12.026,6.945,6.490
Fri Nov 22 21:09:53 2024,830,-28.241,-28.241,7.120,7.120,3.530,-0.926,15.214,7.353,5.012,14.392,9.984,-1.216,12.614,7.550,11.990,6.953,6.520
Fri Nov 22 21:09:53 2024,835,-28.248,-28.248,7.118,7.118,3.511,-0.913,15.209,7.388,4.994,14.411,10.036,-1.228,12.550,7.570,11.957,6.960,6.545
Fri Nov 22 21:09:53 2024,840,-28.338,-28.338,7.242,7.242,3.663,-0.895,15.232,7.365,5.080,14.301,10.012,-1.249,12.391,7.530,12.046,6.922,6.621
Fri Nov 22 21:09:53 2024,845,-28.383,-28.383,7.301,7.301,3.736,-0.876,15.257,7.376,5.118,14.255,10.023,-1.250,12.341,7.543,12.093,6.906,6.689
Fri Nov 22 21:09:53 2024,850,-28.378,-28.378,7.298,7.298,3.740,-0.850,15.306,7.427,5.118,14.264,10.068,-1.208,12.481,7.642,12.129,6.912,6.774
Fri Nov 22 21:09:53 2024,855,-28.375,-28.375,7.291,7.291,3.741,-0.827,15.352,7.476,5.124,14.265,10.105,-1.169,12.596,7.730,12.166,6.909,6.855
Fri Nov 22 21:09:53 2024,860,-28.380,-28.380,7.261,7.261,3.721,-0.815,15.388,7.514,5.157,14.215,10.099,-1.149,12.574,7.751,12.212,6.869,6.907
Fri Nov 22 21:09:53 2024,865,-28.384,-28.384,7.233,7.233,3.704,-0.804,15.421,7.549,5.188,14.170,10.094,-1.131,12.554,7.770,12.253,6.833,6.956
Fri Nov 22 21:09:53 2024,870,-28.405,-28.405,7.236,7.236,3.716,-0.789,15.380,7.549,5.193,14.157,10.121,-1.124,12.537,7.800,12.234,6.821,6.947
Fri Nov 22 21:09:53 2024,875,-28.426,-28.426,7.249,7.249,3.736,-0.778,15.326,7.537,5.187,14.160,10.151,-1.123,12.526,7.823,12.199,6.822,6.922
Fri Nov 22 21:09:53 2024,880,-28.454,-28.454,7.310,7.310,3.787,-0.775,15.276,7.548,5.170,14.165,10.166,-1.118,12.512,7.837,12.189,6.819,6.922
Fri Nov 22 21:09:53 2024,885,-28.476,-28.476,7.393,7.393,3.848,-0.782,15.252,7.577,5.150,14.172,10.159,-1.110,12.501,7.836,12.208,6.814,6.948
Fri Nov 22 21:09:53 2024,890,-28.498,-28.498,7.478,7.478,3.910,-0.788,15.226,7.606,5.130,14.178,10.152,-1.102,12.489,7.836,12.228,6.810,6.975
Fri Nov 22 21:09:53 2024,895,-28.525,-28.525,7.340,7.340,3.772,-0.795,15.328,7.553,5.147,14.200,10.090,-1.143,12.535,7.779,12.233,6.827,6.930
Fri Nov 22 21:09:53 2024,900,-28.548,-28.548,7.258,7.258,3.685,-0.800,15.395,7.520,5.157,14.217,10.046,-1.170,12.565,7.739,12.239,6.838,6.902
Fri Nov 22 21:09:53 2024,905,-28.542,-28.542,7.381,7.381,3.792,-0.786,15.364,7.484,5.172,14.192,10.035,-1.121,12.528,7.725,12.180,6.831,6.820
Fri Nov 22 21:09:53 2024,910,-28.537,-28.537,7.479,7.479,3.877,-0.775,15.336,7.458,5.183,14.173,10.030,-1.081,12.498,7.717,12.135,6.823,6.759
Fri Nov 22 21:09:53 2024,915,-28.531,-28.531,7.522,7.522,3.881,-0.757,15.322,7.461,5.198,14.157,9.985,-1.067,12.506,7.686,12.171,6.780,6.744
Fri Nov 22 21:09:53 2024,920,-28.525,-28.525,7.541,7.541,3.854,-0.738,15.314,7.474,5.213,14.143,9.929,-1.063,12.528,7.650,12.232,6.729,6.747
Fri Nov 22 21:09:53 2024,925,-28.523,-28.523,7.549,7.549,3.852,-0.747,15.291,7.467,5.217,14.126,9.909,-1.074,12.487,7.630,12.237,6.721,6.744
Fri Nov 22 21:09:53 2024,930,-28.524,-28.524,7.547,7.547,3.867,-0.774,15.261,7.448,5.214,14.111,9.914,-1.095,12.415,7.624,12.208,6.743,6.739
Fri Nov 22 21:09:53 2024,935,-28.529,-28.529,7.558,7.558,3.888,-0.771,15.268,7.446,5.230,14.084,9.918,-1.087,12.374,7.624,12.195,6.751,6.728
Fri Nov 22 21:09:53 2024,940,-28.543,-28.543,7.591,7.591,3.918,-0.708,15.347,7.480,5.282,14.043,9.917,-1.024,12.414,7.635,12.220,6.728,6.710
Fri Nov 22 21:09:53 2024,945,-28.560,-28.560,7.628,7.628,3.942,-0.658,15.414,7.510,5.328,14.012,9.918,-0.970,12.448,7.642,12.248,6.704,6.699
Fri Nov 22 21:09:53 2024,950,-28.603,-28.603,7.669,7.669,3.918,-0.718,15.374,7.500,5.307,14.054,9.928,-1.010,12.428,7.624,12.285,6.692,6.741
Fri Nov 22 21:09:53 2024,955,-28.641,-28.641,7.706,7.706,3.894,-0.775,15.333,7.488,5.288,14.095,9.939,-1.046,12.408,7.607,12.320,6.682,6.780
Fri Nov 22 21:09:53 2024,960,-28.671,-28.671,7.735,7.735,3.877,-0.820,15.301,7.480,5.272,14.127,9.947,-1.076,12.393,7.593,12.347,6.674,6.810
Fri Nov 22 21:09:53 2024,965,-28.610,-28.610,7.710,7.710,3.886,-0.780,15.320,7.514,5.296,14.077,9.925,-1.034,12.375,7.587,12.285,6.685,6.721
Fri Nov 22 21:09:53 2024,970,-28.590,-28.590,7.709,7.709,3.883,-0.778,15.317,7.528,5.302,14.064,9.916,-1.024,12.358,7.577,12.264,6.687,6.687
Fri Nov 22 21:09:53 2024,975,-28.582,-28.582,7.730,7.730,3.947,-0.799,15.285,7.529,5.258,14.098,9.922,-1.051,12.378,7.614,12.232,6.739,6.751
Fri Nov 22 21:09:53 2024,980,-28.564,-28.564,7.737,7.737,4.012,-0.831,15.235,7.511,5.196,14.146,9.923,-1.099,12.376,7.635,12.208,6.799,6.839
Fri Nov 22 21:09:53 2024,985,-28.527,-28.527,7.705,7.705,3.978,-0.838,15.212,7.499,5.194,14.136,9.903,-1.110,12.310,7.581,12.207,6.790,6.803
Fri Nov 22 21:09:53 2024,990,-28.495,-28.495,7.685,7.685,3.947,-0.840,15.207,7.502,5.200,14.123,9.893,-1.122,12.259,7.534,12.211,6.772,6.756
Fri Nov 22 21:09:53 2024,995,-28.508,-28.508,7.726,7.726,3.953,-0.824,15.260,7.549,5.226,14.110,9.924,-1.127,12.310,7.554,12.228,6.741,6.722
Fri Nov 22 21:09:54 2024,0,-28.530,-28.530,7.772,7.772,3.972,-0.820,15.308,7.584,5.244,14.108,9.951,-1.126,12.337,7.566,12.248,6.714,6.698
Fri Nov 22 21:09:54 2024,5,-28.561,-28.561,7.814,7.814,4.007,-0.840,15.333,7.585,5.240,14.128,9.961,-1.115,12.312,7.561,12.268,6.702,6.702
Fri Nov 22 21:09:54 2024,10,-28.595,-28.595,7.849,7.849,4.054,-0.878,15.336,7.560,5.220,14.164,9.957,-1.096,12.248,7.542,12.287,6.704,6.726
Fri Nov 22 21:09:54 2024,15,-28.615,-28.615,7.869,7.869,4.062,-0.904,15.307,7.529,5.191,14.213,9.944,-1.115,12.313,7.539,12.264,6.737,6.717
Fri Nov 22 21:09:54 2024,20,-28.626,-28.626,7.881,7.881,4.059,-0.921,15.272,7.501,5.163,14.258,9.930,-1.143,12.405,7.540,12.232,6.773,6.699
Fri Nov 22 21:09:54 2024,25,-28.613,-28.613,7.877,7.877,4.013,-0.920,15.294,7.495,5.159,14.273,9.913,-1.151,12.476,7.534,12.213,6.783,6.659
Fri Nov 22 21:09:54 2024,30,-28.571,-28.571,7.852,7.852,3.926,-0.896,15.384,7.518,5.188,14.243,9.896,-1.131,12.495,7.519,12.218,6.753,6.601
Fri Nov 22 21:09:54 2024,35,-28.531,-28.531,7.834,7.834,3.870,-0.878,15.439,7.532,5.205,14.221,9.891,-1.111,12.495,7.509,12.218,6.730,6.555
Fri Nov 22 21:09:54 2024,40,-28.494,-28.494,7.841,7.841,3.922,-0.886,15.362,7.505,5.182,14.228,9.933,-1.090,12.424,7.525,12.196,6.731,6.548
Fri Nov 22 21:09:54 2024,45,-28.456,-28.456,7.847,7.847,3.975,-0.893,15.285,7.479,5.159,14.236,9.973,-1.070,12.352,7.540,12.175,6.732,6.541
Fri Nov 22 21:09:54 2024,50,-28.471,-28.471,7.945,7.945,4.062,-0.900,15.309,7.494,5.175,14.225,9.920,-1.084,12.356,7.508,12.155,6.768,6.554
Fri Nov 22 21:09:54 2024,55,-28.489,-28.489,8.052,8.052,4.157,-0.907,15.336,7.512,5.193,14.213,9.861,-1.101,12.361,7.473,12.133,6.808,6.569
Fri Nov 22 21:09:54 2024,60,-28.465,-28.465,8.073,8.073,4.140,-0.906,15.302,7.490,5.187,14.205,9.849,-1.108,12.428,7.479,12.147,6.795,6.540
Fri Nov 22 21:09:54 2024,65,-28.436,-28.436,8.068,8.068,4.098,-0.903,15.259,7.463,5.176,14.199,9.852,-1.112,12.494,7.495,12.167,6.771,6.506
Fri Nov 22 21:09:54 2024,70,-28.424,-28.424,8.076,8.076,4.100,-0.897,15.216,7.449,5.165,14.210,9.880,-1.100,12.518,7.515,12.165,6.774,6.493
Fri Nov 22 21:09:54 2024,75,-28.433,-28.433,8.101,8.101,4.154,-0.888,15.180,7.451,5.155,14.239,9.931,-1.073,12.490,7.536,12.137,6.808,6.507
Fri Nov 22 21:09:54 2024,80,-28.453,-28.453,8.120,8.120,4.180,-0.880,15.177,7.444,5.150,14.260,9.950,-1.050,12.457,7.537,12.139,6.812,6.531
Fri Nov 22 21:09:54 2024,85,-28.484,-28.484,8.124,8.124,4.140,-0.878,15.238,7.417,5.158,14.259,9.899,-1.041,12.432,7.496,12.201,6.756,6.561
Fri Nov 22 21:09:54 2024,90,-28.513,-28.513,8.126,8.126,4.100,-0.877,15.297,7.391,5.166,14.257,9.849,-1.035,12.411,7.457,12.260,6.701,6.588
Fri Nov 22 21:09:54 2024,95,-28.489,-28.489,8.068,8.068,4.085,-0.872,15.316,7.390,5.156,14.244,9.821,-1.042,12.386,7.428,12.235,6.730,6.552
Fri Nov 22 21:09:54 2024,100,-28.465,-28.465,8.016,8.016,4.078,-0.868,15.317,7.392,5.145,14.231,9.805,-1.047,12.362,7.411,12.203,6.764,6.523
Fri Nov 22 21:09:54 2024,105,-28.472,-28.472,8.027,8.027,4.108,-0.871,15.228,7.402,5.140,14.231,9.856,-1.047,12.368,7.462,12.168,6.794,6.566
Fri Nov 22 21:09:54 2024,110,-28.490,-28.490,8.060,8.060,4.150,-0.875,15.108,7.414,5.136,14.235,9.931,-1.045,12.383,7.537,12.132,6.824,6.634
Fri Nov 22 21:09:54 2024,115,-28.498,-28.498,8.092,8.092,4.164,-0.889,15.030,7.417,5.128,14.248,9.968,-1.040,12.450,7.586,12.110,6.842,6.644
Fri Nov 22 21:09:54 2024,120,-28.485,-28.485,8.115,8.115,4.115,-0.921,15.055,7.402,5.111,14.280,9.920,-1.031,12.617,7.576,12.122,6.831,6.532
Fri Nov 22 21:09:54 2024,125,-28.480,-28.480,8.148,8.148,4.102,-0.944,15.096,7.403,5.105,14.308,9.910,-1.018,12.752,7.586,12.133,6.835,6.478
Fri Nov 22 21:09:54 2024,130,-28.494,-28.494,8.197,8.197,4.182,-0.937,15.236,7.447,5.135,14.322,9.983,-0.992,12.784,7.627,12.153,6.865,6.571
Fri Nov 22 21:09:54 2024,135,-28.501,-28.501,8.234,8.234,4.242,-0.931,15.342,7.475,5.160,14.329,10.036,-0.974,12.802,7.653,12.170,6.887,6.637
Fri Nov 22 21:09:54 2024,140,-28.473,-28.473,8.208,8.208,4.219,-0.917,15.310,7.414,5.167,14.302,9.990,-0.992,12.716,7.598,12.178,6.868,6.583
Fri Nov 22 21:09:54 2024,145,-28.450,-28.450,8.187,8.187,4.199,-0.906,15.284,7.363,5.173,14.278,9.952,-1.006,12.646,7.553,12.184,6.852,6.538
Fri Nov 22 21:09:54 2024,150,-28.441,-28.441,8.192,8.192,4.176,-0.901,15.314,7.378,5.155,14.300,9.972,-1.002,12.713,7.589,12.150,6.886,6.553
Fri Nov 22 21:09:54 2024,155,-28.438,-28.438,8.207,8.207,4.157,-0.898,15.357,7.411,5.131,14.333,10.007,-0.993,12.815,7.646,12.109,6.930,6.585
Fri Nov 22 21:09:54 2024,160,-28.435,-28.435,8.258,8.258,4.200,-0.883,15.365,7.420,5.139,14.324,10.020,-0.981,12.834,7.676,12.119,6.924,6.624
Fri Nov 22 21:09:54 2024,165,-28.432,-28.432,8.313,8.313,4.263,-0.867,15.354,7.414,5.160,14.297,10.020,-0.970,12.809,7.686,12.153,6.896,6.657
Fri Nov 22 21:09:54 2024,170,-28.448,-28.448,8.354,8.354,4.285,-0.839,15.379,7.435,5.190,14.270,10.012,-0.960,12.782,7.669,12.194,6.856,6.674
Fri Nov 22 21:09:54 2024,175,-28.491,-28.491,8.348,8.348,4.224,-0.810,15.450,7.491,5.217,14.254,9.996,-0.959,12.764,7.614,12.226,6.818,6.652
Fri Nov 22 21:09:54 2024,180,-28.533,-28.533,8.341,8.341,4.163,-0.780,15.522,7.547,5.246,14.238,9.980,-0.957,12.746,7.558,12.257,6.780,6.631
Fri Nov 22 21:09:54 2024,185,-28.496,-28.496,8.299,8.299,4.168,-0.835,15.355,7.536,5.176,14.243,9.990,-1.014,12.610,7.595,12.210,6.792,6.668
Fri Nov 22 21:09:54 2024,190,-28.473,-28.473,8.266,8.266,4.164,-0.875,15.233,7.534,5.125,14.241,9.998,-1.058,12.503,7.617,12.177,6.796,6.693
Fri Nov 22 21:09:54 2024,195,-28.486,-28.486,8.284,8.284,4.190,-0.866,15.238,7.520,5.118,14.240,9.985,-1.071,12.509,7.634,12.184,6.812,6.736
Fri Nov 22 21:09:54 2024,200,-28.501,-28.501,8.304,8.304,4.213,-0.853,15.259,7.506,5.118,14.240,9.973,-1.078,12.528,7.647,12.195,6.827,6.771
Fri Nov 22 21:09:54 2024,205,-28.488,-28.488,8.296,8.296,4.210,-0.843,15.275,7.476,5.137,14.248,9.947,-1.096,12.518,7.614,12.231,6.835,6.816
Fri Nov 22 21:09:54 2024,210,-28.465,-28.465,8.276,8.276,4.194,-0.835,15.284,7.444,5.161,14.258,9.922,-1.116,12.495,7.566,12.271,6.836,6.855
Fri Nov 22 21:09:54 2024,215,-28.435,-28.435,8.267,8.267,4.185,-0.835,15.267,7.419,5.167,14.248,9.869,-1.115,12.465,7.509,12.275,6.823,6.816
Fri Nov 22 21:09:54 2024,220,-28.393,-28.393,8.271,8.271,4.182,-0.845,15.210,7.397,5.151,14.213,9.773,-1.086,12.419,7.434,12.231,6.789,6.668
Fri Nov 22 21:09:54 2024,225,-28.350,-28.350,8.274,8.274,4.178,-0.854,15.154,7.374,5.136,14.176,9.678,-1.058,12.374,7.358,12.187,6.752,6.522
Fri Nov 22 21:09:54 2024,230,-28.374,-28.374,8.232,8.232,4.147,-0.877,15.210,7.432,5.120,14.262,9.782,-1.106,12.453,7.422,12.196,6.818,6.614
Fri Nov 22 21:09:54 2024,235,-28.387,-28.387,8.202,8.202,4.124,-0.895,15.243,7.472,5.106,14.318,9.844,-1.138,12.506,7.459,12.197,6.860,6.661
Fri Nov 22 21:09:54 2024,240,-28.377,-28.377,8.177,8.177,4.143,-0.918,15.225,7.475,5.098,14.278,9.833,-1.130,12.506,7.464,12.213,6.844,6.636
Fri Nov 22 21:09:54 2024,245,-28.366,-28.366,8.158,8.158,4.163,-0.937,15.203,7.472,5.093,14.233,9.815,-1.118,12.500,7.464,12.229,6.824,6.608
Fri Nov 22 21:09:54 2024,250,-28.356,-28.356,8.160,8.160,4.182,-0.950,15.189,7.429,5.096,14.227,9.778,-1.104,12.514,7.432,12.224,6.832,6.570
Fri Nov 22 21:09:54 2024,255,-28.351,-28.351,8.195,8.195,4.193,-0.950,15.189,7.321,5.113,14.287,9.714,-1.087,12.561,7.351,12.183,6.883,6.522
Fri Nov 22 21:09:54 2024,260,-28.346,-28.346,8.217,8.217,4.203,-0.953,15.187,7.250,5.124,14.320,9.669,-1.074,12.592,7.296,12.158,6.915,6.486
Fri Nov 22 21:09:54 2024,265,-28.389,-28.389,8.248,8.248,4.196,-0.977,15.157,7.338,5.123,14.240,9.683,-1.063,12.451,7.313,12.227,6.809,6.450
Fri Nov 22 21:09:54 2024,270,-28.416,-28.416,8.273,8.273,4.194,-0.993,15.138,7.376,5.124,14.196,9.681,-1.053,12.368,7.310,12.265,6.749,6.417
Fri Nov 22 21:09:54 2024,275,-28.430,-28.430,8.319,8.319,4.229,-1.026,15.091,7.385,5.100,14.261,9.696,-1.079,12.422,7.335,12.242,6.759,6.439
Fri Nov 22 21:09:54 2024,280,-28.447,-28.447,8.363,8.363,4.259,-1.056,15.046,7.399,5.080,14.310,9.708,-1.101,12.454,7.357,12.228,6.758,6.453
Fri Nov 22 21:09:54 2024,285,-28.420,-28.420,8.303,8.303,4.192,-1.072,15.040,7.410,5.076,14.328,9.734,-1.083,12.512,7.381,12.226,6.744,6.425
Fri Nov 22 21:09:54 2024,290,-28.395,-28.395,8.246,8.246,4.129,-1.086,15.035,7.421,5.072,14.345,9.759,-1.065,12.567,7.405,12.225,6.732,6.398
Fri Nov 22 21:09:54 2024,295,-28.387,-28.387,8.222,8.222,4.100,-1.095,15.059,7.433,5.071,14.343,9.760,-1.052,12.576,7.402,12.229,6.701,6.352
Fri Nov 22 21:09:54 2024,300,-28.421,-28.421,8.273,8.273,4.150,-1.090,15.145,7.449,5.074,14.303,9.710,-1.052,12.487,7.342,12.248,6.634,6.264
Fri Nov 22 21:09:54 2024,305,-28.438,-28.438,8.294,8.294,4.169,-1.089,15.200,7.462,5.075,14.280,9.681,-1.048,12.440,7.308,12.260,6.586,6.201
Fri Nov 22 21:09:54 2024,310,-28.415,-28.415,8.319,8.319,4.147,-1.116,15.147,7.423,5.102,14.318,9.690,-1.038,12.601,7.352,12.222,6.665,6.228
Fri Nov 22 21:09:54 2024,315,-28.406,-28.406,8.340,8.340,4.138,-1.132,15.129,7.402,5.119,14.336,9.688,-1.031,12.690,7.371,12.201,6.701,6.228
Fri Nov 22 21:09:54 2024,320,-28.372,-28.372,8.335,8.335,4.146,-1.110,15.149,7.423,5.125,14.327,9.678,-1.013,12.647,7.362,12.221,6.702,6.275
Fri Nov 22 21:09:54 2024,325,-28.348,-28.348,8.334,8.334,4.156,-1.100,15.150,7.429,5.130,14.319,9.669,-1.009,12.603,7.344,12.228,6.707,6.303
Fri Nov 22 21:09:54 2024,330,-28.332,-28.332,8.332,8.332,4.190,-1.104,15.102,7.406,5.129,14.293,9.646,-1.046,12.458,7.274,12.210,6.710,6.312
Fri Nov 22 21:09:54 2024,335,-28.317,-28.317,8.329,8.329,4.227,-1.111,15.046,7.377,5.128,14.263,9.621,-1.089,12.292,7.195,12.188,6.712,6.320
Fri Nov 22 21:09:54 2024,340,-28.320,-28.320,8.335,8.335,4.215,-1.148,15.041,7.396,5.082,14.322,9.658,-1.085,12.378,7.263,12.145,6.769,6.334
Fri Nov 22 21:09:54 2024,345,-28.324,-28.324,8.341,8.341,4.200,-1.183,15.042,7.417,5.039,14.381,9.696,-1.077,12.476,7.335,12.107,6.822,6.347
Fri Nov 22 21:09:54 2024,350,-28.329,-28.329,8.346,8.346,4.186,-1.215,15.043,7.437,4.999,14.436,9.732,-1.069,12.568,7.404,12.072,6.871,6.359
Fri Nov 22 21:09:54 2024,355,-28.308,-28.308,8.391,8.391,4.168,-1.162,15.147,7.356,5.046,14.416,9.654,-0.960,12.638,7.353,12.122,6.851,6.337
Fri Nov 22 21:09:54 2024,360,-28.277,-28.277,8.380,8.380,4.136,-1.161,15.221,7.353,5.049,14.436,9.652,-0.927,12.735,7.378,12.111,6.894,6.360
Fri Nov 22 21:09:54 2024,365,-28.223,-28.223,8.319,8.319,4.087,-1.190,15.301,7.401,5.036,14.476,9.696,-0.944,12.859,7.446,12.062,6.985,6.423
Fri Nov 22 21:09:54 2024,370,-28.179,-28.179,8.269,8.269,4.045,-1.215,15.368,7.440,5.025,14.509,9.733,-0.958,12.962,7.503,12.021,7.060,6.475
Fri Nov 22 21:09:54 2024,375,-28.188,-28.188,8.301,8.301,4.039,-1.251,15.315,7.400,5.010,14.546,9.768,-0.956,12.917,7.483,12.068,7.090,6.540
Fri Nov 22 21:09:54 2024,380,-28.195,-28.195,8.325,8.325,4.034,-1.279,15.277,7.370,4.998,14.575,9.795,-0.955,12.884,7.469,12.104,7.112,6.589
Fri Nov 22 21:09:54 2024,385,-28.194,-28.194,8.403,8.403,4.099,-1.248,15.321,7.390,5.030,14.533,9.792,-0.939,12.892,7.469,12.070,7.120,6.555
Fri Nov 22 21:09:54 2024,390,-28.188,-28.188,8.528,8.528,4.224,-1.170,15.431,7.450,5.098,14.436,9.765,-0.912,12.935,7.479,11.980,7.116,6.453
Fri Nov 22 21:09:54 2024,395,-28.206,-28.206,8.535,8.535,4.222,-1.207,15.403,7.450,5.045,14.489,9.782,-0.928,12.939,7.496,11.970,7.171,6.501
Fri Nov 22 21:09:54 2024,400,-28.223,-28.223,8.542,8.542,4.220,-1.245,15.375,7.451,4.993,14.541,9.800,-0.944,12.943,7.514,11.959,7.227,6.549
Fri Nov 22 21:09:54 2024,405,-28.241,-28.241,8.538,8.538,4.208,-1.286,15.339,7.447,4.936,14.601,9.818,-0.961,12.944,7.529,11.957,7.279,6.603
Fri Nov 22 21:09:54 2024,410,-28.301,-28.301,8.612,8.612,4.303,-1.229,15.417,7.494,5.019,14.549,9.881,-0.874,13.046,7.596,11.971,7.269,6.670
Fri Nov 22 21:09:54 2024,415,-28.348,-28.348,8.663,8.663,4.366,-1.200,15.463,7.525,5.063,14.527,9.930,-0.818,13.117,7.648,11.980,7.274,6.731
Fri Nov 22 21:09:54 2024,420,-28.342,-28.342,8.662,8.662,4.377,-1.207,15.532,7.528,5.002,14.556,9.892,-0.892,13.048,7.642,11.920,7.318,6.700
Fri Nov 22 21:09:54 2024,425,-28.339,-28.339,8.665,8.665,4.390,-1.210,15.592,7.533,4.955,14.577,9.863,-0.948,12.996,7.641,11.870,7.355,6.679
Fri Nov 22 21:09:54 2024,430,-28.316,-28.316,8.655,8.655,4.368,-1.248,15.618,7.610,4.931,14.613,9.892,-0.980,13.115,7.700,11.837,7.426,6.754
Fri Nov 22 21:09:54 2024,435,-28.298,-28.298,8.646,8.646,4.348,-1.278,15.633,7.672,4.916,14.641,9.917,-0.999,13.217,7.749,11.815,7.479,6.816
Fri Nov 22 21:09:54 2024,440,-28.278,-28.278,8.636,8.636,4.328,-1.309,15.647,7.735,4.901,14.669,9.943,-1.018,13.322,7.798,11.793,7.532,6.880
Fri Nov 22 21:09:54 2024,445,-28.257,-28.257,8.588,8.588,4.364,-1.324,15.530,7.725,4.876,14.657,9.933,-1.123,13.047,7.711,11.726,7.570,6.870
Fri Nov 22 21:09:54 2024,450,-28.268,-28.268,8.609,8.609,4.423,-1.372,15.459,7.725,4.833,14.708,9.954,-1.207,12.991,7.701,11.669,7.635,6.894
Fri Nov 22 21:09:54 2024,455,-28.307,-28.307,8.681,8.681,4.512,-1.435,15.402,7.712,4.779,14.796,9.988,-1.279,13.033,7.722,11.620,7.706,6.920
Fri Nov 22 21:09:54 2024,460,-28.343,-28.343,8.726,8.726,4.571,-1.488,15.363,7.718,4.740,14.863,10.018,-1.337,13.057,7.733,11.585,7.755,6.940
Fri Nov 22 21:09:54 2024,465,-28.372,-28.372,8.678,8.678,4.520,-1.509,15.388,7.809,4.755,14.866,10.045,-1.351,13.019,7.708,11.597,7.725,6.935
Fri Nov 22 21:09:54 2024,470,-28.402,-28.402,8.628,8.628,4.470,-1.532,15.414,7.902,4.770,14.869,10.074,-1.368,12.980,7.682,11.610,7.694,6.930
Fri Nov 22 21:09:54 2024,475,-28.423,-28.423,8.683,8.683,4.575,-1.560,15.395,7.898,4.787,14.850,10.046,-1.391,12.967,7.651,11.576,7.703,6.850
Fri Nov 22 21:09:54 2024,480,-28.435,-28.435,8.727,8.727,4.656,-1.578,15.379,7.888,4.798,14.836,10.023,-1.408,12.960,7.629,11.550,7.710,6.792
Fri Nov 22 21:09:54 2024,485,-28.447,-28.447,8.717,8.717,4.692,-1.536,15.426,7.960,4.851,14.785,10.067,-1.384,12.897,7.652,11.570,7.673,6.814
Fri Nov 22 21:09:54 2024,490,-28.456,-28.456,8.684,8.684,4.696,-1.478,15.488,8.049,4.908,14.732,10.128,-1.348,12.826,7.690,11.606,7.625,6.868
Fri Nov 22 21:09:54 2024,495,-28.484,-28.484,8.624,8.624,4.688,-1.486,15.497,8.191,4.943,14.708,10.262,-1.363,12.784,7.775,11.618,7.602,6.936
Fri Nov 22 21:09:54 2024,500,-28.520,-28.520,8.560,8.560,4.673,-1.549,15.460,8.329,4.947,14.718,10.412,-1.413,12.780,7.873,11.606,7.606,6.995
Fri Nov 22 21:09:54 2024,505,-28.561,-28.561,8.486,8.486,4.656,-1.620,15.417,8.488,4.951,14.728,10.585,-1.471,12.775,7.987,11.593,7.611,7.063
Fri Nov 22 21:09:54 2024,510,-28.604,-28.604,8.421,8.421,4.631,-1.692,15.303,8.341,4.885,14.814,10.490,-1.524,12.772,7.934,11.548,7.655,7.004
Fri Nov 22 21:09:54 2024,515,-28.635,-28.635,8.371,8.371,4.613,-1.745,15.227,8.275,4.846,14.867,10.456,-1.565,12.769,7.919,11.518,7.682,6.977
Fri Nov 22 21:09:54 2024,520,-28.667,-28.667,8.345,8.345,4.604,-1.714,15.318,8.287,4.914,14.816,10.467,-1.547,12.675,7.859,11.584,7.586,6.909
Fri Nov 22 21:09:54 2024,525,-28.701,-28.701,8.316,8.316,4.596,-1.680,15.416,8.302,4.987,14.760,10.479,-1.527,12.574,7.796,11.657,7.480,6.836
Fri Nov 22 21:09:54 2024,530,-28.697,-28.697,8.152,8.152,4.502,-1.658,15.533,8.378,5.028,14.739,10.538,-1.488,12.611,7.847,11.704,7.433,6.867
Fri Nov 22 21:09:54 2024,535,-28.687,-28.687,8.000,8.000,4.414,-1.642,15.629,8.448,5.056,14.728,10.593,-1.453,12.664,7.908,11.736,7.405,6.909
Fri Nov 22 21:09:54 2024,540,-28.678,-28.678,7.866,7.866,4.338,-1.629,15.713,8.511,5.080,14.718,10.641,-1.421,12.712,7.962,11.766,7.380,6.947
Fri Nov 22 21:09:54 2024,545,-28.593,-28.593,7.562,7.562,4.173,-1.654,15.551,8.348,5.054,14.757,10.648,-1.520,12.578,7.912,11.749,7.386,6.945
Fri Nov 22 21:09:54 2024,550,-28.528,-28.528,7.281,7.281,4.023,-1.677,15.484,8.291,5.045,14.774,10.687,-1.575,12.495,7.911,11.750,7.364,6.943
Fri Nov 22 21:09:54 2024,555,-28.462,-28.462,6.930,6.930,3.848,-1.729,15.485,8.370,5.038,14.769,10.787,-1.612,12.400,7.971,11.757,7.276,6.891
Fri Nov 22 21:09:54 2024,560,-28.395,-28.395,6.579,6.579,3.673,-1.781,15.480,8.439,5.032,14.765,10.884,-1.652,12.303,8.027,11.763,7.189,6.843
Fri Nov 22 21:09:54 2024,565,-28.174,-28.174,6.190,6.190,3.389,-1.770,15.550,8.426,5.069,14.757,10.920,-1.633,12.286,8.038,11.781,7.146,6.830
Fri Nov 22 21:09:54 2024,570,-27.998,-27.998,5.877,5.877,3.163,-1.760,15.607,8.416,5.099,14.748,10.948,-1.618,12.272,8.046,11.795,7.113,6.820
Fri Nov 22 21:09:54 2024,575,-27.821,-27.821,5.625,5.625,3.015,-1.731,15.631,8.364,5.114,14.730,10.953,-1.612,12.218,8.038,11.804,7.071,6.795
Fri Nov 22 21:09:54 2024,580,-27.674,-27.674,5.424,5.424,2.907,-1.702,15.643,8.312,5.123,14.713,10.953,-1.608,12.163,8.027,11.810,7.034,6.771
Fri Nov 22 21:09:54 2024,585,-27.538,-27.538,5.262,5.262,2.816,-1.696,15.624,8.274,5.122,14.715,10.990,-1.600,12.127,8.054,11.825,7.002,6.782
Fri Nov 22 21:09:54 2024,590,-27.394,-27.394,5.134,5.134,2.734,-1.736,15.540,8.253,5.104,14.752,11.106,-1.582,12.120,8.156,11.858,6.972,6.860
Fri Nov 22 21:09:54 2024,595,-27.280,-27.280,5.023,5.023,2.670,-1.740,15.509,8.247,5.107,14.756,11.181,-1.570,12.090,8.202,11.881,6.938,6.884
Fri Nov 22 21:09:54 2024,600,-27.118,-27.118,4.866,4.866,2.598,-1.691,15.538,8.270,5.146,14.710,11.261,-1.558,11.996,8.200,11.909,6.870,6.844
Fri Nov 22 21:09:54 2024,605,-26.996,-26.996,4.746,4.746,2.544,-1.654,15.558,8.287,5.176,14.676,11.324,-1.548,11.926,8.201,11.930,6.818,6.816
Fri Nov 22 21:09:54 2024,610,-26.912,-26.912,4.710,4.710,2.520,-1.668,15.666,8.372,5.149,14.698,11.341,-1.579,11.928,8.210,11.900,6.824,6.811
Fri Nov 22 21:09:54 2024,615,-26.835,-26.835,4.670,4.670,2.498,-1.677,15.757,8.445,5.128,14.713,11.359,-1.604,11.925,8.218,11.875,6.826,6.805
Fri Nov 22 21:09:54 2024,620,-26.775,-26.775,4.594,4.594,2.449,-1.686,15.811,8.489,5.094,14.743,11.390,-1.660,11.931,8.243,11.854,6.879,6.865
Fri Nov 22 21:09:54 2024,625,-26.713,-26.713,4.504,4.504,2.391,-1.696,15.861,8.530,5.055,14.777,11.425,-1.727,11.939,8.273,11.832,6.945,6.945
Fri Nov 22 21:09:54 2024,630,-26.664,-26.664,4.447,4.447,2.350,-1.666,15.931,8.516,5.055,14.774,11.387,-1.714,11.998,8.252,11.845,6.970,6.955
Fri Nov 22 21:09:54 2024,635,-26.612,-26.612,4.394,4.394,2.310,-1.614,16.022,8.476,5.073,14.754,11.309,-1.663,12.090,8.205,11.875,6.980,6.937
Fri Nov 22 21:09:54 2024,640,-26.584,-26.584,4.352,4.352,2.267,-1.577,16.086,8.434,5.090,14.725,11.221,-1.626,12.133,8.150,11.900,6.975,6.917
Fri Nov 22 21:09:54 2024,645,-26.598,-26.598,4.329,4.329,2.218,-1.566,16.103,8.391,5.102,14.681,11.119,-1.612,12.091,8.084,11.918,6.946,6.894
Fri Nov 22 21:09:54 2024,650,-26.602,-26.602,4.291,4.291,2.162,-1.562,16.110,8.346,5.110,14.644,11.029,-1.602,12.064,8.024,11.933,6.932,6.876
Fri Nov 22 21:09:54 2024,655,-26.567,-26.567,4.187,4.187,2.070,-1.589,16.075,8.285,5.097,14.635,10.964,-1.614,12.085,7.982,11.939,6.967,6.868
Fri Nov 22 21:09:54 2024,660,-26.534,-26.534,4.089,4.089,1.985,-1.614,16.041,8.229,5.083,14.628,10.909,-1.627,12.107,7.946,11.943,7.002,6.862
Fri Nov 22 21:09:54 2024,665,-26.530,-26.530,4.096,4.096,1.965,-1.597,16.029,8.144,5.106,14.590,10.818,-1.627,12.012,7.822,11.987,6.995,6.839
Fri Nov 22 21:09:54 2024,670,-26.531,-26.531,4.117,4.117,1.955,-1.575,16.020,8.061,5.131,14.550,10.728,-1.627,11.907,7.695,12.034,6.982,6.817
Fri Nov 22 21:09:54 2024,675,-26.514,-26.514,4.120,4.120,1.927,-1.565,15.956,7.994,5.159,14.500,10.657,-1.603,11.885,7.642,12.066,6.972,6.802
Fri Nov 22 21:09:54 2024,680,-26.468,-26.468,4.091,4.091,1.871,-1.579,15.804,7.967,5.186,14.440,10.629,-1.543,12.015,7.728,12.068,6.969,6.802
Fri Nov 22 21:09:54 2024,685,-26.421,-26.421,4.043,4.043,1.802,-1.569,15.707,7.890,5.211,14.388,10.556,-1.494,12.110,7.742,12.080,6.962,6.796
Fri Nov 22 21:09:54 2024,690,-26.360,-26.360,3.945,3.945,1.698,-1.523,15.689,7.737,5.233,14.354,10.418,-1.455,12.193,7.675,12.098,6.953,6.783
Fri Nov 22 21:09:54 2024,695,-26.312,-26.312,3.868,3.868,1.616,-1.489,15.666,7.621,5.251,14.324,10.312,-1.422,12.263,7.629,12.112,6.947,6.773
Fri Nov 22 21:09:54 2024,700,-26.257,-26.257,3.832,3.832,1.644,-1.448,15.491,7.559,5.223,14.264,10.252,-1.464,12.074,7.591,12.067,6.970,6.773
Fri Nov 22 21:09:54 2024,705,-26.213,-26.213,3.801,3.801,1.660,-1.414,15.354,7.505,5.203,14.210,10.198,-1.495,11.936,7.559,12.035,6.988,6.773
Fri Nov 22 21:09:54 2024,710,-26.226,-26.226,3.813,3.813,1.632,-1.415,15.297,7.472,5.211,14.199,10.148,-1.476,11.941,7.528,12.051,6.950,6.747
Fri Nov 22 21:09:54 2024,715,-26.242,-26.242,3.826,3.826,1.604,-1.418,15.253,7.444,5.220,14.191,10.104,-1.455,11.957,7.501,12.069,6.913,6.723
Fri Nov 22 21:09:54 2024,720,-26.173,-26.173,3.800,3.800,1.569,-1.369,15.209,7.373,5.249,14.135,9.980,-1.401,12.083,7.469,12.084,6.910,6.674
Fri Nov 22 21:09:54 2024,725,-26.062,-26.062,3.754,3.754,1.528,-1.293,15.161,7.278,5.288,14.053,9.812,-1.328,12.268,7.432,12.099,6.922,6.610
Fri Nov 22 21:09:54 2024,730,-25.996,-25.996,3.722,3.722,1.494,-1.241,15.139,7.238,5.297,13.995,9.730,-1.303,12.290,7.389,12.096,6.914,6.542
Fri Nov 22 21:09:54 2024,735,-25.959,-25.959,3.695,3.695,1.447,-1.193,15.145,7.259,5.265,13.941,9.729,-1.338,12.075,7.310,12.062,6.873,6.426
Fri Nov 22 21:09:54 2024,740,-25.897,-25.897,3.675,3.675,1.408,-1.149,15.116,7.237,5.249,13.889,9.696,-1.347,11.950,7.254,12.057,6.853,6.375
Fri Nov 22 21:09:54 2024,745,-25.806,-25.806,3.672,3.672,1.381,-1.117,15.041,7.160,5.253,13.851,9.633,-1.328,11.926,7.228,12.091,6.861,6.423
Fri Nov 22 21:09:54 2024,750,-25.707,-25.707,3.670,3.670,1.353,-1.084,14.955,7.073,5.259,13.813,9.563,-1.304,11.911,7.206,12.132,6.872,6.486
Fri Nov 22 21:09:54 2024,755,-25.656,-25.656,3.758,3.758,1.387,-1.027,15.003,7.088,5.248,13.801,9.564,-1.277,12.014,7.228,12.153,6.842,6.454
Fri Nov 22 21:09:54 2024,760,-25.613,-25.613,3.840,3.840,1.419,-0.976,15.051,7.106,5.238,13.791,9.569,-1.253,12.108,7.251,12.171,6.814,6.423
Fri Nov 22 21:09:54 2024,765,-25.542,-25.542,3.856,3.856,1.375,-0.907,15.094,7.122,5.248,13.790,9.591,-1.213,12.215,7.290,12.226,6.762,6.405
Fri Nov 22 21:09:54 2024,770,-25.468,-25.468,3.848,3.848,1.311,-0.840,15.130,7.135,5.263,13.791,9.618,-1.172,12.316,7.331,12.287,6.706,6.393
Fri Nov 22 21:09:54 2024,775,-25.397,-25.397,3.855,3.855,1.301,-0.758,15.155,7.121,5.295,13.785,9.648,-1.113,12.406,7.377,12.373,6.651,6.437
Fri Nov 22 21:09:54 2024,780,-25.328,-25.328,3.875,3.875,1.336,-0.665,15.172,7.084,5.340,13.774,9.681,-1.042,12.488,7.428,12.480,6.598,6.529
Fri Nov 22 21:09:54 2024,785,-25.268,-25.268,3.912,3.912,1.368,-0.564,15.208,7.082,5.382,13.745,9.713,-0.978,12.543,7.472,12.531,6.565,6.585
Fri Nov 22 21:09:54 2024,790,-25.236,-25.236,3.975,3.975,1.391,-0.469,15.274,7.138,5.411,13.691,9.737,-0.939,12.544,7.497,12.475,6.577,6.570
Fri Nov 22 21:09:54 2024,795,-25.206,-25.206,4.036,4.036,1.412,-0.380,15.337,7.193,5.439,13.640,9.761,-0.902,12.543,7.520,12.419,6.589,6.552
Fri Nov 22 21:09:54 2024,800,-25.188,-25.188,3.918,3.918,1.330,-0.351,15.374,7.159,5.418,13.654,9.819,-0.884,12.316,7.499,12.458,6.503,6.593
Fri Nov 22 21:09:54 2024,805,-25.174,-25.174,3.813,3.813,1.260,-0.330,15.404,7.127,5.397,13.668,9.868,-0.870,12.118,7.480,12.494,6.427,6.629
Fri Nov 22 21:09:54 2024,810,-25.074,-25.074,3.785,3.785,1.228,-0.301,15.433,7.138,5.394,13.679,9.878,-0.891,12.132,7.515,12.520,6.414,6.690
Fri Nov 22 21:09:54 2024,815,-24.862,-24.862,3.842,3.842,1.236,-0.261,15.465,7.198,5.409,13.687,9.842,-0.954,12.398,7.619,12.538,6.472,6.788
Fri Nov 22 21:09:54 2024,820,-24.707,-24.707,3.850,3.850,1.230,-0.228,15.563,7.259,5.393,13.738,9.899,-0.978,12.517,7.717,12.539,6.494,6.854
Fri Nov 22 21:09:54 2024,825,-24.583,-24.583,3.843,3.843,1.223,-0.201,15.700,7.327,5.362,13.813,10.004,-0.980,12.583,7.819,12.524,6.508,6.900
Fri Nov 22 21:09:54 2024,830,-24.483,-24.483,3.837,3.837,1.218,-0.178,15.812,7.382,5.336,13.874,10.091,-0.983,12.637,7.902,12.512,6.519,6.937
Fri Nov 22 21:09:54 2024,835,-24.287,-24.287,3.922,3.922,1.261,-0.105,15.822,7.323,5.411,13.827,10.118,-0.960,12.644,7.954,12.531,6.591,7.121
Fri Nov 22 21:09:54 2024,840,-24.157,-24.157,3.971,3.971,1.286,-0.063,15.845,7.298,5.450,13.809,10.148,-0.947,12.657,7.998,12.541,6.633,7.235
Fri Nov 22 21:09:54 2024,845,-23.951,-23.951,4.066,4.066,1.314,0.060,15.933,7.280,5.458,13.788,10.115,-0.912,12.680,7.981,12.498,6.657,7.175
Fri Nov 22 21:09:54 2024,850,-23.791,-23.791,4.140,4.140,1.336,0.118,15.999,7.267,5.465,13.771,10.090,-0.884,12.699,7.967,12.463,6.675,7.127
Fri Nov 22 21:09:54 2024,855,-23.652,-23.652,4.189,4.189,1.352,0.184,15.948,7.238,5.522,13.757,10.163,-0.840,12.696,8.021,12.482,6.664,7.174
Fri Nov 22 21:09:54 2024,860,-23.521,-23.521,4.221,4.221,1.365,0.255,15.808,7.196,5.619,13.743,10.314,-0.785,12.675,8.128,12.542,6.629,7.297
Fri Nov 22 21:09:54 2024,865,-23.413,-23.413,4.252,4.252,1.383,0.344,15.812,7.228,5.691,13.703,10.396,-0.744,12.701,8.182,12.604,6.597,7.364
Fri Nov 22 21:09:54 2024,870,-23.325,-23.325,4.277,4.277,1.403,0.450,15.904,7.314,5.753,13.646,10.445,-0.712,12.759,8.207,12.681,6.561,7.406
Fri Nov 22 21:09:54 2024,875,-23.297,-23.297,4.316,4.316,1.424,0.500,15.954,7.370,5.797,13.606,10.484,-0.708,12.768,8.226,12.736,6.538,7.454
Fri Nov 22 21:09:54 2024,880,-23.352,-23.352,4.387,4.387,1.451,0.478,15.962,7.396,5.826,13.581,10.523,-0.749,12.706,8.239,12.772,6.528,7.521
Fri Nov 22 21:09:54 2024,885,-23.404,-23.404,4.459,4.459,1.480,0.461,15.973,7.425,5.858,13.553,10.563,-0.787,12.646,8.253,12.812,6.516,7.591
Fri Nov 22 21:09:54 2024,890,-23.427,-23.427,4.460,4.460,1.481,0.482,15.940,7.500,5.858,13.502,10.560,-0.762,12.691,8.232,12.780,6.509,7.501
Fri Nov 22 21:09:54 2024,895,-23.451,-23.451,4.467,4.467,1.485,0.500,15.912,7.569,5.860,13.454,10.561,-0.742,12.726,8.215,12.754,6.500,7.426
Fri Nov 22 21:09:54 2024,900,-23.452,-23.452,4.510,4.510,1.524,0.570,15.989,7.549,5.914,13.404,10.520,-0.735,12.734,8.182,12.768,6.508,7.472
Fri Nov 22 21:09:54 2024,905,-23.450,-23.450,4.549,4.549,1.560,0.634,16.064,7.521,5.963,13.362,10.480,-0.731,12.736,8.154,12.785,6.517,7.526
Fri Nov 22 21:09:54 2024,910,-23.440,-23.440,4.569,4.569,1.590,0.708,16.155,7.534,6.041,13.316,10.488,-0.693,12.751,8.145,12.821,6.520,7.574
Fri Nov 22 21:09:54 2024,915,-23.428,-23.428,4.576,4.576,1.610,0.771,16.234,7.563,6.116,13.275,10.516,-0.647,12.768,8.148,12.859,6.520,7.611
Fri Nov 22 21:09:54 2024,920,-23.424,-23.424,4.590,4.590,1.609,0.824,16.235,7.556,6.161,13.252,10.515,-0.623,12.726,8.099,12.870,6.506,7.570
Fri Nov 22 21:09:54 2024,925,-23.430,-23.430,4.612,4.612,1.582,0.858,16.133,7.500,6.158,13.256,10.477,-0.631,12.609,7.991,12.844,6.474,7.434
Fri Nov 22 21:09:54 2024,930,-23.436,-23.436,4.632,4.632,1.559,0.888,16.048,7.453,6.160,13.260,10.444,-0.637,12.509,7.897,12.823,6.444,7.316
Fri Nov 22 21:09:54 2024,935,-23.381,-23.381,4.770,4.770,1.665,0.936,16.123,7.474,6.268,13.143,10.418,-0.602,12.682,7.965,12.869,6.447,7.389
Fri Nov 22 21:09:54 2024,940,-23.342,-23.342,4.877,4.877,1.742,0.977,16.167,7.483,6.350,13.055,10.394,-0.576,12.797,8.002,12.900,6.444,7.426
Fri Nov 22 21:09:54 2024,945,-23.335,-23.335,5.239,5.239,1.938,0.970,16.128,7.535,6.296,13.070,10.337,-0.607,12.741,7.968,12.868,6.454,7.401
Fri Nov 22 21:09:54 2024,950,-23.330,-23.330,5.551,5.551,2.110,0.966,16.096,7.579,6.251,13.081,10.287,-0.632,12.695,7.939,12.841,6.462,7.380
Fri Nov 22 21:09:54 2024,955,-23.273,-23.273,6.100,6.100,2.389,0.891,16.084,7.593,6.214,13.116,10.289,-0.630,12.604,7.903,12.819,6.471,7.371
Fri Nov 22 21:09:54 2024,960,-23.210,-23.210,6.614,6.614,2.648,0.808,16.082,7.592,6.188,13.152,10.310,-0.618,12.518,7.871,12.804,6.480,7.369
Fri Nov 22 21:09:54 2024,965,-23.104,-23.104,7.145,7.145,2.940,0.756,16.059,7.621,6.137,13.186,10.345,-0.623,12.561,7.933,12.805,6.467,7.396
Fri Nov 22 21:09:54 2024,970,-22.968,-22.968,7.608,7.608,3.219,0.742,16.018,7.675,6.068,13.212,10.390,-0.645,12.730,8.081,12.820,6.437,7.449
Fri Nov 22 21:09:54 2024,975,-22.856,-22.856,7.999,7.999,3.456,0.730,15.984,7.719,6.011,13.232,10.428,-0.664,12.869,8.203,12.832,6.412,7.493
Fri Nov 22 21:09:54 2024,980,-22.608,-22.608,8.756,8.756,3.863,0.728,16.056,7.760,5.924,13.331,10.400,-0.653,12.874,8.119,12.814,6.404,7.419
Fri Nov 22 21:09:54 2024,985,-22.431,-22.431,9.301,9.301,4.164,0.726,16.100,7.792,5.860,13.399,10.385,-0.648,12.892,8.078,12.802,6.396,7.376
Fri Nov 22 21:09:54 2024,990,-22.242,-22.242,9.647,9.647,4.344,0.743,16.063,7.923,5.851,13.347,10.455,-0.612,12.839,8.160,12.861,6.359,7.481
Fri Nov 22 21:09:54 2024,995,-22.065,-22.065,9.983,9.983,4.522,0.758,16.026,8.051,5.842,13.295,10.524,-0.576,12.787,8.240,12.918,6.322,7.584
Fri Nov 22 21:09:55 2024,0,-22.018,-22.018,10.725,10.725,5.030,0.772,15.967,8.213,5.814,13.315,10.618,-0.579,12.760,8.312,12.957,6.252,7.596
Fri Nov 22 21:09:55 2024,5,-22.053,-22.053,10.862,10.862,5.139,0.825,16.081,8.366,5.868,13.476,10.744,-0.502,12.898,8.383,12.939,6.274,7.627
Fri Nov 22 21:09:55 2024,10,-22.088,-22.088,10.999,10.999,5.249,0.878,16.195,8.519,5.922,13.638,10.870,-0.426,13.037,8.454,12.921,6.297,7.658
Fri Nov 22 21:09:55 2024,15,-22.124,-22.124,11.136,11.136,5.358,0.930,16.308,8.672,5.976,13.799,10.996,-0.349,13.175,8.526,12.903,6.319,7.689
Fri Nov 22 21:09:55 2024,20,-22.159,-22.159,11.273,11.273,5.468,0.983,16.422,8.825,6.031,13.961,11.121,-0.273,13.313,8.597,12.885,6.342,7.720
Fri Nov 22 21:09:55 2024,25,-22.194,-22.194,11.410,11.410,5.577,1.036,16.536,8.978,6.085,14.122,11.247,-0.196,13.452,8.668,12.867,6.364,7.751
Fri Nov 22 21:09:55 2024,30,-22.229,-22.229,11.547,11.547,5.687,1.089,16.650,9.130,6.139,14.283,11.373,-0.119,13.590,8.739,12.848,6.387,7.781
Fri Nov 22 21:09:55 2024,35,-22.265,-22.265,11.684,11.684,5.796,1.142,16.764,9.283,6.193,14.445,11.499,-0.043,13.728,8.811,12.830,6.409,7.812
Fri Nov 22 21:09:55 2024,40,-22.300,-22.300,11.821,11.821,5.906,1.194,16.878,9.436,6.247,14.606,11.625,0.034,13.867,8.882,12.812,6.432,7.843
Fri Nov 22 21:09:55 2024,45,-22.335,-22.335,11.958,11.958,6.015,1.247,16.991,9.589,6.301,14.768,11.751,0.111,14.005,8.953,12.794,6.454,7.874
Fri Nov 22 21:09:55 2024,50,-22.370,-22.370,12.096,12.096,6.125,1.300,17.105,9.742,6.355,14.929,11.876,0.187,14.144,9.024,12.776,6.477,7.905
Fri Nov 22 21:09:55 2024,55,-22.406,-22.406,12.233,12.233,6.234,1.353,17.219,9.895,6.409,15.091,12.002,0.264,14.282,9.095,12.758,6.499,7.936
Fri Nov 22 21:09:55 2024,60,-22.441,-22.441,12.370,12.370,6.344,1.406,17.333,10.048,6.464,15.252,12.128,0.340,14.420,9.167,12.740,6.522,7.967
Fri Nov 22 21:09:55 2024,65,-22.476,-22.476,12.507,12.507,6.453,1.458,17.447,10.201,6.518,15.413,12.254,0.417,14.559,9.238,12.722,6.544,7.998
Fri Nov 22 21:09:55 2024,70,-22.511,-22.511,12.644,12.644,6.563,1.511,17.560,10.354,6.572,15.575,12.380,0.494,14.697,9.309,12.704,6.567,8.029
Fri Nov 22 21:09:55 2024,75,-22.547,-22.547,12.781,12.781,6.672,1.564,17.674,10.507,6.626,15.736,12.506,0.570,14.835,9.380,12.686,6.589,8.060
Fri Nov 22 21:09:55 2024,80,-22.582,-22.582,12.918,12.918,6.782,1.617,17.788,10.660,6.680,15.898,12.632,0.647,14.974,9.452,12.668,6.611,8.090
Fri Nov 22 21:09:55 2024,85,-22.617,-22.617,13.055,13.055,6.891,1.670,17.902,10.813,6.734,16.059,12.757,0.723,15.112,9.523,12.649,6.634,8.121
Fri Nov 22 21:09:55 2024,90,-22.652,-22.652,13.192,13.192,7.001,1.722,18.016,10.965,6.788,16.220,12.883,0.800,15.250,9.594,12.631,6.656,8.152
Fri Nov 22 21:09:55 2024,95,-22.687,-22.687,13.329,13.329,7.110,1.775,18.129,11.118,6.842,16.382,13.009,0.877,15.389,9.665,12.613,6.679,8.183
Fri Nov 22 21:09:55 2024,100,-22.723,-22.723,13.466,13.466,7.220,1.828,18.243,11.271,6.897,16.543,13.135,0.953,15.527,9.736,12.595,6.701,8.214
Fri Nov 22 21:09:55 2024,105,-22.758,-22.758,13.603,13.603,7.329,1.881,18.357,11.424,6.951,16.705,13.261,1.030,15.665,9.808,12.577,6.724,8.245
Fri Nov 22 21:09:55 2024,110,-22.793,-22.793,13.740,13.740,7.439,1.934,18.471,11.577,7.005,16.866,13.387,1.106,15.804,9.879,12.559,6.746,8.276
Fri Nov 22 21:09:55 2024,115,-22.828,-22.828,13.877,13.877,7.548,1.986,18.585,11.730,7.059,17.028,13.512,1.183,15.942,9.950,12.541,6.769,8.307
Fri Nov 22 21:09:55 2024,120,-22.864,-22.864,14.014,14.014,7.658,2.039,18.699,11.883,7.113,17.189,13.638,1.260,16.080,10.021,12.523,6.791,8.338
Fri Nov 22 21:09:55 2024,125,-22.899,-22.899,14.151,14.151,7.767,2.092,18.812,12.036,7.167,17.350,13.764,1.336,16.219,10.093,12.505,6.814,8.369
Fri Nov 22 21:09:55 2024,130,-22.934,-22.934,14.288,14.288,7.877,2.145,18.926,12.189,7.221,17.512,13.890,1.413,16.357,10.164,12.487,6.836,8.399
Fri Nov 22 21:09:55 2024,135,-22.969,-22.969,14.425,14.425,7.986,2.198,19.040,12.342,7.275,17.673,14.016,1.490,16.496,10.235,12.469,6.859,8.430
Fri Nov 22 21:09:55 2024,140,-23.005,-23.005,14.562,14.562,8.095,2.250,19.154,12.495,7.330,17.835,14.142,1.566,16.634,10.306,12.450,6.881,8.461
Fri Nov 22 21:09:55 2024,145,-23.040,-23.040,14.700,14.700,8.205,2.303,19.268,12.647,7.384,17.996,14.268,1.643,16.772,10.377,12.432,6.903,8.492
Fri Nov 22 21:09:55 2024,150,-23.075,-23.075,14.837,14.837,8.314,2.356,19.381,12.800,7.438,18.157,14.393,1.719,16.911,10.449,12.414,6.926,8.523
Fri Nov 22 21:09:55 2024,155,-23.110,-23.110,14.974,14.974,8.424,2.409,19.495,12.953,7.492,18.319,14.519,1.796,17.049,10.520,12.396,6.948,8.554
Fri Nov 22 21:09:55 2024,160,-23.146,-23.146,15.111,15.111,8.533,2.462,19.609,13.106,7.546,18.480,14.645,1.873,17.187,10.591,12.378,6.971,8.585
Fri Nov 22 21:09:55 2024,165,-23.181,-23.181,15.248,15.248,8.643,2.514,19.723,13.259,7.600,18.642,14.771,1.949,17.326,10.662,12.360,6.993,8.616
Fri Nov 22 21:09:55 2024,170,-23.216,-23.216,15.385,15.385,8.752,2.567,19.837,13.412,7.654,18.803,14.897,2.026,17.464,10.734,12.342,7.016,8.647
Fri Nov 22 21:09:55 2024,175,-23.251,-23.251,15.522,15.522,8.862,2.620,19.950,13.565,7.708,18.964,15.023,2.102,17.602,10.805,12.324,7.038,8.678
Fri Nov 22 21:09:55 2024,180,-23.286,-23.286,15.659,15.659,8.971,2.673,20.064,13.718,7.763,19.126,15.148,2.179,17.741,10.876,12.306,7.061,8.708
Fri Nov 22 21:09:55 2024,185,-23.322,-23.322,15.796,15.796,9.081,2.726,20.178,13.871,7.817,19.287,15.274,2.256,17.879,10.947,12.288,7.083,8.739
Fri Nov 22 21:09:55 2024,190,-23.357,-23.357,15.933,15.933,9.190,2.778,20.292,14.024,7.871,19.449,15.400,2.332,18.017,11.018,12.270,7.106,8.770
Fri Nov 22 21:09:55 2024,195,-23.392,-23.392,16.070,16.070,9.300,2.831,20.406,14.177,7.925,19.610,15.526,2.409,18.156,11.090,12.252,7.128,8.801
Fri Nov 22 21:09:55 2024,200,-23.427,-23.427,16.207,16.207,9.409,2.884,20.520,14.329,7.979,19.772,15.652,2.485,18.294,11.161,12.233,7.151,8.832
Fri Nov 22 21:09:55 2024,205,-23.463,-23.463,16.344,16.344,9.519,2.937,20.633,14.482,8.033,19.933,15.778,2.562,18.432,11.232,12.215,7.173,8.863
Fri Nov 22 21:09:55 2024,210,-23.498,-23.498,16.481,16.481,9.628,2.990,20.747,14.635,8.087,20.094,15.903,2.639,18.571,11.303,12.197,7.196,8.894
Fri Nov 22 21:09:55 2024,215,-23.533,-23.533,16.618,16.618,9.738,3.042,20.861,14.788,8.141,20.256,16.029,2.715,18.709,11.375,12.179,7.218,8.925
Fri Nov 22 21:09:55 2024,220,-23.568,-23.568,16.755,16.755,9.847,3.095,20.975,14.941,8.196,20.417,16.155,2.792,18.848,11.446,12.161,7.240,8.956
Fri Nov 22 21:09:55 2024,225,-23.604,-23.604,16.892,16.892,9.957,3.148,21.089,15.094,8.250,20.579,16.281,2.869,18.986,11.517,12.143,7.263,8.987
Fri Nov 22 21:09:55 2024,230,-23.639,-23.639,17.029,17.029,10.066,3.201,21.202,15.247,8.304,20.740,16.407,2.945,19.124,11.588,12.125,7.285,9.017
Fri Nov 22 21:09:55 2024,235,-23.674,-23.674,17.166,17.166,10.176,3.254,21.316,15.400,8.358,20.901,16.533,3.022,19.263,11.659,12.107,7.308,9.048
Fri Nov 22 21:09:55 2024,240,-23.709,-23.709,17.304,17.304,10.285,3.306,21.430,15.553,8.412,21.063,16.659,3.098,19.401,11.731,12.089,7.330,9.079
Fri Nov 22 21:09:55 2024,245,-23.744,-23.744,17.441,17.441,10.395,3.359,21.544,15.706,8.466,21.224,16.784,3.175,19.539,11.802,12.071,7.353,9.110
Fri Nov 22 21:09:55 2024,250,-23.780,-23.780,17.578,17.578,10.504,3.412,21.658,15.859,8.520,21.386,16.910,3.252,19.678,11.873,12.053,7.375,9.141
Fri Nov 22 21:09:55 2024,255,-23.815,-23.815,17.715,17.715,10.614,3.465,21.772,16.012,8.574,21.547,17.036,3.328,19.816,11.944,12.034,7.398,9.172
Fri Nov 22 21:09:55 2024,260,-23.850,-23.850,17.852,17.852,10.723,3.518,21.885,16.164,8.629,21.708,17.162,3.405,19.954,12.016,12.016,7.420,9.203
Fri Nov 22 21:09:55 2024,265,-23.885,-23.885,17.989,17.989,10.833,3.570,21.999,16.317,8.683,21.870,17.288,3.481,20.093,12.087,11.998,7.443,9.234
Fri Nov 22 21:09:55 2024,270,-23.921,-23.921,18.126,18.126,10.942,3.623,22.113,16.470,8.737,22.031,17.414,3.558,20.231,12.158,11.980,7.465,9.265
Fri Nov 22 21:09:55 2024,275,-23.956,-23.956,18.263,18.263,11.051,3.676,22.227,16.623,8.791,22.193,17.539,3.635,20.369,12.229,11.962,7.488,9.296
Fri Nov 22 21:09:55 2024,280,-23.991,-23.991,18.400,18.400,11.161,3.729,22.341,16.776,8.845,22.354,17.665,3.711,20.508,12.300,11.944,7.510,9.327
Fri Nov 22 21:09:55 2024,285,-24.026,-24.026,18.537,18.537,11.270,3.782,22.454,16.929,8.899,22.516,17.791,3.788,20.646,12.372,11.926,7.532,9.357
Fri Nov 22 21:09:55 2024,290,-24.062,-24.062,18.674,18.674,11.380,3.834,22.568,17.082,8.953,22.677,17.917,3.865,20.784,12.443,11.908,7.555,9.388
Fri Nov 22 21:09:55 2024,295,-24.097,-24.097,18.811,18.811,11.489,3.887,22.682,17.235,9.007,22.838,18.043,3.941,20.923,12.514,11.890,7.577,9.419
Fri Nov 22 21:09:55 2024,300,-24.132,-24.132,18.948,18.948,11.599,3.940,22.796,17.388,9.062,23.000,18.169,4.018,21.061,12.585,11.872,7.600,9.450
Fri Nov 22 21:09:55 2024,305,-24.167,-24.167,19.085,19.085,11.708,3.993,22.910,17.541,9.116,23.161,18.295,4.094,21.199,12.657,11.854,7.622,9.481
Fri Nov 22 21:09:55 2024,310,-24.203,-24.203,19.222,19.222,11.818,4.045,23.023,17.694,9.170,23.323,18.420,4.171,21.338,12.728,11.835,7.645,9.512
Fri Nov 22 21:09:55 2024,315,-24.238,-24.238,19.359,19.359,11.927,4.098,23.137,17.846,9.224,23.484,18.546,4.248,21.476,12.799,11.817,7.667,9.543
Fri Nov 22 21:09:55 2024,320,-24.273,-24.273,19.496,19.496,12.037,4.151,23.251,17.999,9.278,23.645,18.672,4.324,21.615,12.870,11.799,7.690,9.574
Fri Nov 22 21:09:55 2024,325,-24.308,-24.308,19.633,19.633,12.146,4.204,23.365,18.152,9.332,23.807,18.798,4.401,21.753,12.941,11.781,7.712,9.605
Fri Nov 22 21:09:55 2024,330,-24.343,-24.343,19.770,19.770,12.256,4.257,23.479,18.305,9.386,23.968,18.924,4.477,21.891,13.013,11.763,7.735,9.636
Fri Nov 22 21:09:55 2024,335,-24.379,-24.379,19.908,19.908,12.365,4.309,23.593,18.458,9.440,24.130,19.050,4.554,22.030,13.084,11.745,7.757,9.666
Fri Nov 22 21:09:55 2024,340,-24.414,-24.414,20.045,20.045,12.475,4.362,23.706,18.611,9.495,24.291,19.175,4.631,22.168,13.155,11.727,7.780,9.697
Fri Nov 22 21:09:55 2024,345,-24.449,-24.449,20.182,20.182,12.584,4.415,23.820,18.764,9.549,24.453,19.301,4.707,22.306,13.226,11.709,7.802,9.728
Fri Nov 22 21:09:55 2024,350,-24.484,-24.484,20.319,20.319,12.694,4.468,23.934,18.917,9.603,24.614,19.427,4.784,22.445,13.298,11.691,7.825,9.759
Fri Nov 22 21:09:55 2024,355,-24.520,-24.520,20.456,20.456,12.803,4.521,24.048,19.070,9.657,24.775,19.553,4.860,22.583,13.369,11.673,7.847,9.790
Fri Nov 22 21:09:55 2024,360,-24.555,-24.555,20.593,20.593,12.913,4.573,24.162,19.223,9.711,24.937,19.679,4.937,22.721,13.440,11.655,7.869,9.821
Fri Nov 22 21:09:55 2024,365,-24.590,-24.590,20.730,20.730,13.022,4.626,24.275,19.376,9.765,25.098,19.805,5.014,22.860,13.511,11.636,7.892,9.852
Fri Nov 22 21:09:55 2024,370,-24.625,-24.625,20.867,20.867,13.132,4.679,24.389,19.528,9.819,25.260,19.931,5.090,22.998,13.582,11.618,7.914,9.883
Fri Nov 22 21:09:55 2024,375,-24.661,-24.661,21.004,21.004,13.241,4.732,24.503,19.681,9.873,25.421,20.056,5.167,23.136,13.654,11.600,7.937,9.914
Fri Nov 22 21:09:55 2024,380,-24.696,-24.696,21.141,21.141,13.351,4.785,24.617,19.834,9.928,25.582,20.182,5.244,23.275,13.725,11.582,7.959,9.945
Fri Nov 22 21:09:55 2024,385,-24.731,-24.731,21.278,21.278,13.460,4.837,24.731,19.987,9.982,25.744,20.308,5.320,23.413,13.796,11.564,7.982,9.975
Fri Nov 22 21:09:55 2024,390,-24.766,-24.766,21.415,21.415,13.570,4.890,24.844,20.140,10.036,25.905,20.434,5.397,23.551,13.867,11.546,8.004,10.006
Fri Nov 22 21:09:55 2024,395,-24.802,-24.802,21.552,21.552,13.679,4.943,24.958,20.293,10.090,26.067,20.560,5.473,23.690,13.939,11.528,8.027,10.037
Fri Nov 22 21:09:55 2024,400,-24.837,-24.837,21.689,21.689,13.789,4.996,25.072,20.446,10.144,26.228,20.686,5.550,23.828,14.010,11.510,8.049,10.068
Fri Nov 22 21:09:55 2024,405,-24.872,-24.872,21.826,21.826,13.898,5.049,25.186,20.599,10.198,26.389,20.811,5.627,23.967,14.081,11.492,8.072,10.099
Fri Nov 22 21:09:55 2024,410,-24.907,-24.907,21.963,21.963,14.007,5.101,25.300,20.752,10.252,26.551,20.937,5.703,24.105,14.152,11.474,8.094,10.130
Fri Nov 22 21:09:55 2024,415,-24.942,-24.942,22.100,22.100,14.117,5.154,25.414,20.905,10.306,26.712,21.063,5.780,24.243,14.223,11.456,8.117,10.161
Fri Nov 22 21:09:55 2024,420,-24.978,-24.978,22.237,22.237,14.226,5.207,25.527,21.058,10.361,26.874,21.189,5.856,24.382,14.295,11.437,8.139,10.192
Fri Nov 22 21:09:55 2024,425,-25.013,-25.013,22.374,22.374,14.336,5.260,25.641,21.211,10.415,27.035,21.315,5.933,24.520,14.366,11.419,8.161,10.223
Fri Nov 22 21:09:55 2024,430,-25.048,-25.048,22.512,22.512,14.445,5.313,25.755,21.363,10.469,27.197,21.441,6.010,24.658,14.437,11.401,8.184,10.254
Fri Nov 22 21:09:55 2024,435,-25.083,-25.083,22.649,22.649,14.555,5.365,25.869,21.516,10.523,27.358,21.567,6.086,24.797,14.508,11.383,8.206,10.284
Fri Nov 22 21:09:55 2024,440,-25.119,-25.119,22.786,22.786,14.664,5.418,25.983,21.669,10.577,27.519,21.692,6.163,24.935,14.580,11.365,8.229,10.315
Fri Nov 22 21:09:55 2024,445,-25.154,-25.154,22.923,22.923,14.774,5.471,26.096,21.822,10.631,27.681,21.818,6.239,25.073,14.651,11.347,8.251,10.346
Fri Nov 22 21:09:55 2024,450,-25.189,-25.189,23.060,23.060,14.883,5.524,26.210,21.975,10.685,27.842,21.944,6.316,25.212,14.722,11.329,8.274,10.377
Fri Nov 22 21:09:55 2024,455,-25.224,-25.224,23.197,23.197,14.993,5.577,26.324,22.128,10.740,28.004,22.070,6.393,25.350,14.793,11.311,8.296,10.408
Fri Nov 22 21:09:55 2024,460,-25.260,-25.260,23.334,23.334,15.102,5.629,26.438,22.281,10.794,28.165,22.196,6.469,25.488,14.864,11.293,8.319,10.439
Fri Nov 22 21:09:55 2024,465,-25.295,-25.295,23.471,23.471,15.212,5.682,26.552,22.434,10.848,28.326,22.322,6.546,25.627,14.936,11.275,8.341,10.470
Fri Nov 22 21:09:55 2024,470,-25.330,-25.330,23.608,23.608,15.321,5.735,26.666,22.587,10.902,28.488,22.447,6.623,25.765,15.007,11.257,8.364,10.501
Fri Nov 22 21:09:55 2024,475,-25.365,-25.365,23.745,23.745,15.431,5.788,26.779,22.740,10.956,28.649,22.573,6.699,25.903,15.078,11.238,8.386,10.532
Fri Nov 22 21:09:55 2024,480,-25.400,-25.400,23.882,23.882,15.540,5.841,26.893,22.893,11.010,28.811,22.699,6.776,26.042,15.149,11.220,8.409,10.563
Fri Nov 22 21:09:55 2024,485,-25.436,-25.436,24.019,24.019,15.650,5.893,27.007,23.045,11.064,28.972,22.825,6.852,26.180,15.220,11.202,8.431,10.593
Fri Nov 22 21:09:55 2024,490,-25.471,-25.471,24.156,24.156,15.759,5.946,27.121,23.198,11.118,29.134,22.951,6.929,26.319,15.292,11.184,8.454,10.624
Fri Nov 22 21:09:55 2024,495,-25.506,-25.506,24.293,24.293,15.869,5.999,27.235,23.351,11.173,29.295,23.077,7.006,26.457,15.363,11.166,8.476,10.655
Fri Nov 22 21:09:55 2024,500,-25.541,-25.541,24.430,24.430,15.978,6.052,27.348,23.504,11.227,29.456,23.203,7.082,26.595,15.434,11.148,8.498,10.686
Fri Nov 22 21:09:55 2024,505,-25.577,-25.577,24.567,24.567,16.088,6.105,27.462,23.657,11.281,29.618,23.328,7.159,26.734,15.505,11.130,8.521,10.717
Fri Nov 22 21:09:55 2024,510,-25.612,-25.612,24.704,24.704,16.197,6.157,27.576,23.810,11.335,29.779,23.454,7.235,26.872,15.577,11.112,8.543,10.748
Fri Nov 22 21:09:55 2024,515,-25.647,-25.647,24.841,24.841,16.307,6.210,27.690,23.963,11.389,29.941,23.580,7.312,27.010,15.648,11.094,8.566,10.779
Fri Nov 22 21:09:55 2024,520,-25.682,-25.682,24.978,24.978,16.416,6.263,27.804,24.116,11.443,30.102,23.706,7.389,27.149,15.719,11.076,8.588,10.810
Fri Nov 22 21:09:55 2024,525,-25.718,-25.718,25.116,25.116,16.526,6.316,27.917,24.269,11.497,30.263,23.832,7.465,27.287,15.790,11.058,8.611,10.841
Fri Nov 22 21:09:55 2024,530,-25.753,-25.753,25.253,25.253,16.635,6.369,28.031,24.422,11.551,30.425,23.958,7.542,27.425,15.861,11.040,8.633,10.872
Fri Nov 22 21:09:55 2024,535,-25.788,-25.788,25.390,25.390,16.745,6.421,28.145,24.575,11.606,30.586,24.083,7.619,27.564,15.933,11.021,8.656,10.903
Fri Nov 22 21:09:55 2024,540,-25.823,-25.823,25.527,25.527,16.854,6.474,28.259,24.727,11.660,30.748,24.209,7.695,27.702,16.004,11.003,8.678,10.933
Fri Nov 22 21:09:55 2024,545,-25.859,-25.859,25.664,25.664,16.963,6.527,28.373,24.880,11.714,30.909,24.335,7.772,27.840,16.075,10.985,8.701,10.964
Fri Nov 22 21:09:55 2024,550,-25.894,-25.894,25.801,25.801,17.073,6.580,28.487,25.033,11.768,31.070,24.461,7.848,27.979,16.146,10.967,8.723,10.995
Fri Nov 22 21:09:55 2024,555,-25.929,-25.929,25.938,25.938,17.182,6.633,28.600,25.186,11.822,31.232,24.587,7.925,28.117,16.218,10.949,8.746,11.026
Fri Nov 22 21:09:55 2024,560,-25.964,-25.964,26.075,26.075,17.292,6.685,28.714,25.339,11.876,31.393,24.713,8.002,28.255,16.289,10.931,8.768,11.057
Fri Nov 22 21:09:55 2024,565,-25.999,-25.999,26.212,26.212,17.401,6.738,28.828,25.492,11.930,31.555,24.839,8.078,28.394,16.360,10.913,8.790,11.088
Fri Nov 22 21:09:55 2024,570,-26.035,-26.035,26.349,26.349,17.511,6.791,28.942,25.645,11.984,31.716,24.964,8.155,28.532,16.431,10.895,8.813,11.119
Fri Nov 22 21:09:55 2024,575,-26.070,-26.070,26.486,26.486,17.620,6.844,29.056,25.798,12.039,31.878,25.090,8.231,28.671,16.502,10.877,8.835,11.150
Fri Nov 22 21:09:55 2024,580,-26.105,-26.105,26.623,26.623,17.730,6.897,29.169,25.951,12.093,32.039,25.216,8.308,28.809,16.574,10.859,8.858,11.181
Fri Nov 22 21:09:55 2024,585,-26.140,-26.140,26.760,26.760,17.839,6.949,29.283,26.104,12.147,32.200,25.342,8.385,28.947,16.645,10.841,8.880,11.212
Fri Nov 22 21:09:55 2024,590,-26.176,-26.176,26.897,26.897,17.949,7.002,29.397,26.257,12.201,32.362,25.468,8.461,29.086,16.716,10.822,8.903,11.242
Fri Nov 22 21:09:55 2024,595,-26.211,-26.211,27.034,27.034,18.058,7.055,29.511,26.410,12.255,32.523,25.594,8.538,29.224,16.787,10.804,8.925,11.273
Fri Nov 22 21:09:55 2024,600,-26.246,-26.246,27.171,27.171,18.168,7.108,29.625,26.562,12.309,32.685,25.719,8.614,29.362,16.859,10.786,8.948,11.304
Fri Nov 22 21:09:55 2024,605,-26.281,-26.281,27.308,27.308,18.277,7.161,29.738,26.715,12.363,32.846,25.845,8.691,29.501,16.930,10.768,8.970,11.335
Fri Nov 22 21:09:55 2024,610,-26.317,-26.317,27.445,27.445,18.387,7.213,29.852,26.868,12.417,33.007,25.971,8.768,29.639,17.001,10.750,8.993,11.366
Fri Nov 22 21:09:55 2024,615,-26.352,-26.352,27.582,27.582,18.496,7.266,29.966,27.021,12.472,33.169,26.097,8.844,29.777,17.072,10.732,9.015,11.397
Fri Nov 22 21:09:55 2024,620,-26.387,-26.387,27.720,27.720,18.606,7.319,30.080,27.174,12.526,33.330,26.223,8.921,29.916,17.143,10.714,9.038,11.428
Fri Nov 22 21:09:55 2024,625,-26.422,-26.422,27.857,27.857,18.715,7.372,30.194,27.327,12.580,33.492,26.349,8.998,30.054,17.215,10.696,9.060,11.459
Fri Nov 22 21:09:55 2024,630,-26.458,-26.458,27.994,27.994,18.825,7.425,30.308,27.480,12.634,33.653,26.474,9.074,30.192,17.286,10.678,9.083,11.490
Fri Nov 22 21:09:55 2024,635,-26.493,-26.493,28.131,28.131,18.934,7.477,30.421,27.633,12.688,33.814,26.600,9.151,30.331,17.357,10.660,9.105,11.521
Fri Nov 22 21:09:55 2024,640,-26.528,-26.528,28.268,28.268,19.044,7.530,30.535,27.786,12.742,33.976,26.726,9.227,30.469,17.428,10.642,9.127,11.551
Fri Nov 22 21:09:55 2024,645,-26.563,-26.563,28.405,28.405,19.153,7.583,30.649,27.939,12.796,34.137,26.852,9.304,30.607,17.500,10.623,9.150,11.582
Fri Nov 22 21:09:55 2024,650,-26.598,-26.598,28.542,28.542,19.263,7.636,30.763,28.092,12.850,34.299,26.978,9.381,30.746,17.571,10.605,9.172,11.613
Fri Nov 22 21:09:55 2024,655,-26.634,-26.634,28.679,28.679,19.372,7.689,30.877,28.244,12.905,34.460,27.104,9.457,30.884,17.642,10.587,9.195,11.644
Fri Nov 22 21:09:55 2024,660,-26.669,-26.669,28.816,28.816,19.482,7.741,30.990,28.397,12.959,34.622,27.230,9.534,31.022,17.713,10.569,9.217,11.675
Fri Nov 22 21:09:55 2024,665,-26.704,-26.704,28.953,28.953,19.591,7.794,31.104,28.550,13.013,34.783,27.355,9.610,31.161,17.784,10.551,9.240,11.706
Fri Nov 22 21:09:55 2024,670,-26.739,-26.739,29.090,29.090,19.701,7.847,31.218,28.703,13.067,34.944,27.481,9.687,31.299,17.856,10.533,9.262,11.737
Fri Nov 22 21:09:55 2024,675,-26.775,-26.775,29.227,29.227,19.810,7.900,31.332,28.856,13.121,35.106,27.607,9.764,31.438,17.927,10.515,9.285,11.768
Fri Nov 22 21:09:55 2024,680,-26.810,-26.810,29.364,29.364,19.919,7.953,31.446,29.009,13.175,35.267,27.733,9.840,31.576,17.998,10.497,9.307,11.799
Fri Nov 22 21:09:55 2024,685,-26.845,-26.845,29.501,29.501,20.029,8.005,31.560,29.162,13.229,35.429,27.859,9.917,31.714,18.069,10.479,9.330,11.830
Fri Nov 22 21:09:55 2024,690,-26.880,-26.880,29.638,29.638,20.138,8.058,31.673,29.315,13.283,35.590,27.985,9.993,31.853,18.141,10.461,9.352,11.860
Fri Nov 22 21:09:55 2024,695,-26.916,-26.916,29.775,29.775,20.248,8.111,31.787,29.468,13.338,35.751,28.110,10.070,31.991,18.212,10.443,9.375,11.891
Fri Nov 22 21:09:55 2024,700,-26.951,-26.951,29.912,29.912,20.357,8.164,31.901,29.621,13.392,35.913,28.236,10.147,32.129,18.283,10.424,9.397,11.922
Fri Nov 22 21:09:55 2024,705,-26.920,-26.920,29.662,29.662,20.088,7.992,31.712,28.955,13.227,35.750,27.354,10.092,31.954,17.749,10.285,9.508,11.672
Fri Nov 22 21:09:55 2024,710,-26.774,-26.774,28.378,28.378,18.752,7.583,30.897,25.968,12.615,34.749,24.072,9.805,31.126,15.599,10.046,9.624,10.330
Fri Nov 22 21:09:55 2024,715,-26.665,-26.665,27.222,27.222,17.528,7.338,30.227,23.219,12.111,33.863,21.198,9.591,30.448,13.649,9.905,9.652,8.996
Fri Nov 22 21:09:55 2024,720,-26.592,-26.592,26.359,26.359,16.618,7.155,29.732,21.199,11.738,33.214,19.106,9.433,29.979,12.214,9.799,9.664,8.011
Fri Nov 22 21:09:55 2024,725,-26.649,-26.649,25.826,25.826,16.083,6.773,29.268,20.288,11.309,32.564,17.896,9.242,24.506,11.554,9.734,9.700,7.802
Fri Nov 22 21:09:55 2024,730,-26.817,-26.817,24.875,24.875,15.145,5.898,28.324,18.882,10.401,31.217,15.760,8.833,11.005,10.528,9.616,9.792,7.706
Fri Nov 22 21:09:55 2024,735,-26.825,-26.825,24.790,24.790,15.059,5.850,28.257,18.722,10.343,31.131,15.574,8.807,11.046,10.414,9.605,9.796,7.653
Fri Nov 22 21:09:55 2024,740,-26.833,-26.833,24.705,24.705,14.972,5.803,28.190,18.562,10.285,31.045,15.388,8.781,11.087,10.300,9.595,9.800,7.601
Fri Nov 22 21:09:55 2024,745,-26.842,-26.842,24.620,24.620,14.886,5.755,28.124,18.402,10.227,30.958,15.202,8.754,11.128,10.187,9.584,9.803,7.548
Fri Nov 22 21:09:55 2024,750,-26.847,-26.847,24.585,24.585,14.850,5.735,28.097,18.337,10.204,30.923,15.127,8.744,11.144,10.141,9.580,9.804,7.527
Fri Nov 22 21:09:55 2024,755,-26.960,-26.960,24.250,24.250,14.461,5.510,27.823,17.788,10.100,30.796,14.670,8.600,11.305,9.900,9.338,9.983,7.393
Fri Nov 22 21:09:55 2024,760,-27.509,-27.509,22.571,22.571,12.521,4.384,26.454,15.043,9.577,30.159,12.389,7.881,12.109,8.696,8.125,10.880,6.724
Fri Nov 22 21:09:55 2024,765,-27.513,-27.513,22.567,22.567,12.516,4.382,26.450,15.036,9.575,30.157,12.382,7.879,12.111,8.692,8.122,10.882,6.722
Fri Nov 22 21:09:55 2024,770,-27.517,-27.517,22.568,22.568,12.514,4.381,26.450,15.035,9.575,30.157,12.381,7.879,12.111,8.692,8.122,10.882,6.722
Fri Nov 22 21:09:55 2024,775,-27.520,-27.520,22.568,22.568,12.514,4.381,26.450,15.036,9.576,30.158,12.381,7.879,12.111,8.692,8.122,10.882,6.722
Fri Nov 22 21:09:55 2024,780,-27.524,-27.524,22.570,22.570,12.515,4.382,26.451,15.037,9.576,30.158,12.382,7.880,12.111,8.693,8.122,10.881,6.723
Fri Nov 22 21:09:55 2024,785,-27.528,-27.528,22.571,22.571,12.515,4.382,26.452,15.038,9.577,30.159,12.383,7.880,12.110,8.693,8.123,10.881,6.724
Fri Nov 22 21:09:55 2024,790,-27.531,-27.531,22.573,22.573,12.515,4.382,26.452,15.039,9.577,30.159,12.383,7.880,12.110,8.693,8.123,10.881,6.724
Fri Nov 22 21:09:55 2024,795,-27.534,-27.534,22.575,22.575,12.515,4.383,26.453,15.040,9.578,30.160,12.384,7.881,12.110,8.694,8.123,10.881,6.724
Fri Nov 22 21:09:55 2024,800,-27.538,-27.538,22.576,22.576,12.515,4.383,26.454,15.041,9.578,30.161,12.384,7.881,12.110,8.695,8.123,10.880,6.725
Fri Nov 22 21:09:55 2024,805,-27.625,-27.625,22.483,22.483,12.403,4.218,26.313,14.782,9.482,30.069,12.243,7.791,12.200,8.572,7.998,10.975,6.641
Fri Nov 22 21:09:55 2024,810,-28.043,-28.043,22.012,22.012,11.837,3.391,25.602,13.483,8.996,29.602,11.532,7.340,12.654,7.960,7.369,11.448,6.221
Fri Nov 22 21:09:55 2024,815,-28.532,-28.532,21.385,21.385,11.328,2.543,24.690,12.258,8.320,26.849,10.860,6.690,13.020,7.484,6.532,11.493,5.798
Fri Nov 22 21:09:55 2024,820,-30.134,-30.134,19.201,19.201,9.923,-0.034,21.559,8.747,5.922,14.025,8.928,4.346,13.933,6.341,3.610,10.770,4.528
Fri Nov 22 21:09:55 2024,825,-30.352,-30.352,18.908,18.908,9.710,-0.363,21.346,8.285,5.628,14.344,8.642,4.058,13.820,6.143,3.245,10.526,4.352
Fri Nov 22 21:09:55 2024,830,-30.573,-30.573,18.613,18.613,9.498,-0.696,21.210,7.826,5.334,14.658,8.355,3.769,13.678,5.943,2.878,10.263,4.175
Fri Nov 22 21:09:55 2024,835,-29.825,-29.825,17.942,17.942,9.310,-0.347,19.881,7.759,4.710,14.990,8.172,3.545,13.146,5.659,2.920,8.742,3.657
Fri Nov 22 21:09:55 2024,840,-29.591,-29.591,17.694,17.694,9.246,-0.225,19.472,7.715,4.412,15.057,8.056,3.378,12.888,5.490,2.981,8.036,3.442
Fri Nov 22 21:09:55 2024,845,-29.757,-29.757,17.883,17.883,9.374,-0.147,19.571,7.825,4.290,15.136,7.955,3.137,12.800,5.300,3.332,7.657,3.389
Fri Nov 22 21:09:55 2024,850,-29.813,-29.813,17.925,17.925,9.446,-0.096,19.528,7.925,4.118,15.169,7.936,2.916,12.653,5.195,3.566,7.256,3.339
Fri Nov 22 21:09:55 2024,855,-29.897,-29.897,17.973,17.973,9.563,-0.048,19.473,8.129,3.868,15.210,8.008,2.593,12.437,5.130,3.893,6.744,3.314
Fri Nov 22 21:09:55 2024,860,-29.983,-29.983,18.216,18.216,9.824,0.009,19.429,8.323,3.693,15.188,8.068,2.335,12.255,5.108,4.136,6.371,3.350
Fri Nov 22 21:09:55 2024,865,-30.079,-30.079,18.674,18.674,10.249,0.087,19.380,8.510,3.569,15.116,8.089,2.110,12.094,5.092,4.332,6.063,3.428
Fri Nov 22 21:09:55 2024,870,-30.176,-30.176,19.155,19.155,10.686,0.184,19.332,8.711,3.486,15.035,8.140,1.917,11.948,5.111,4.492,5.807,3.523
Fri Nov 22 21:09:55 2024,875,-30.318,-30.318,19.770,19.770,11.228,0.374,19.261,9.088,3.478,14.945,8.395,1.721,11.781,5.284,4.629,5.562,3.693
Fri Nov 22 21:09:55 2024,880,-30.465,-30.465,20.398,20.398,11.784,0.573,19.163,9.484,3.479,14.856,8.673,1.527,11.610,5.475,4.761,5.321,3.873
Fri Nov 22 21:09:55 2024,885,-30.593,-30.593,21.030,21.030,12.329,0.815,18.944,9.886,3.538,14.775,8.927,1.314,11.544,5.669,4.876,5.063,4.003
Fri Nov 22 21:09:55 2024,890,-30.736,-30.736,21.640,21.640,12.868,1.014,18.736,10.283,3.607,14.703,9.181,1.094,11.489,5.876,4.970,4.824,4.132
Fri Nov 22 21:09:55 2024,895,-30.883,-30.883,22.208,22.208,13.378,1.175,18.556,10.658,3.675,14.640,9.425,0.881,11.437,6.080,5.048,4.608,4.258
Fri Nov 22 21:09:55 2024,900,-31.081,-31.081,22.770,22.770,13.919,1.236,18.441,11.049,3.749,14.586,9.699,0.642,11.365,6.329,5.092,4.420,4.412
Fri Nov 22 21:09:55 2024,905,-31.299,-31.299,23.340,23.340,14.481,1.295,18.322,11.486,3.846,14.461,9.976,0.372,11.213,6.604,5.152,4.185,4.584
Fri Nov 22 21:09:55 2024,910,-31.459,-31.459,23.668,23.668,14.828,1.320,18.251,11.826,3.952,14.238,10.134,0.232,10.961,6.812,5.219,3.956,4.713
Fri Nov 22 21:09:55 2024,915,-31.610,-31.610,23.974,23.974,15.151,1.311,18.204,12.088,4.040,14.038,10.245,-0.298,10.703,6.978,5.253,3.745,4.816
Fri Nov 22 21:09:55 2024,920,-31.707,-31.707,24.168,24.168,15.361,1.246,18.209,12.158,4.078,13.922,10.251,-0.428,10.497,7.032,5.223,3.612,4.849
Fri Nov 22 21:09:55 2024,925,-31.775,-31.775,24.306,24.306,15.523,1.176,18.226,12.182,4.094,13.805,10.218,-0.535,10.311,7.046,5.163,3.458,4.848
Fri Nov 22 21:09:55 2024,930,-31.830,-31.830,24.418,24.418,15.678,1.113,18.251,12.214,4.097,13.635,10.158,-0.614,10.113,7.039,5.071,3.208,4.818
Fri Nov 22 21:09:55 2024,935,-31.862,-31.862,24.484,24.484,15.798,1.068,18.279,12.248,4.087,13.442,10.085,-0.649,9.940,7.014,4.966,2.915,4.768
Fri Nov 22 21:09:55 2024,940,-31.906,-31.906,24.481,24.481,15.857,1.021,18.320,12.214,4.067,13.301,9.973,-0.681,9.761,6.935,4.898,2.697,4.740
Fri Nov 22 21:09:55 2024,945,-31.956,-31.956,24.435,24.435,15.878,0.976,18.365,12.139,4.041,13.199,9.841,-0.708,9.586,6.825,4.854,2.536,4.725
Fri Nov 22 21:09:55 2024,950,-32.004,-32.004,24.344,24.344,15.845,0.884,18.449,12.087,3.986,13.121,9.727,-0.760,9.383,6.712,4.855,2.348,4.684
Fri Nov 22 21:09:55 2024,955,-32.061,-32.061,24.193,24.193,15.761,0.734,18.585,12.040,3.893,13.041,9.596,-0.843,9.103,6.569,4.889,2.091,4.612
Fri Nov 22 21:09:55 2024,960,-32.098,-32.098,23.976,23.976,15.628,0.574,18.702,11.955,3.806,12.975,9.483,-0.946,8.875,6.457,4.923,1.838,4.530
Fri Nov 22 21:09:55 2024,965,-32.111,-32.111,23.694,23.694,15.452,0.419,18.784,11.820,3.734,12.925,9.388,-1.064,8.720,6.387,4.943,1.601,4.446
Fri Nov 22 21:09:55 2024,970,-32.116,-32.116,23.252,23.252,15.178,0.220,18.830,11.640,3.648,12.845,9.279,-1.215,8.538,6.311,4.976,1.309,4.344
Fri Nov 22 21:09:55 2024,975,-32.082,-32.082,22.357,22.357,14.625,-0.035,18.654,11.480,3.553,12.634,9.188,-1.352,8.283,6.238,5.079,0.995,4.266
Fri Nov 22 21:09:55 2024,980,-32.044,-32.044,21.400,21.400,14.036,-0.294,18.417,11.327,3.460,12.397,9.102,-1.483,8.019,6.167,5.194,0.683,4.193
Fri Nov 22 21:09:55 2024,985,-31.972,-31.972,19.694,19.694,12.844,-0.489,18.127,11.071,3.542,12.228,8.984,-1.578,7.717,5.969,5.352,0.320,3.904
Fri Nov 22 21:09:55 2024,990,-31.901,-31.901,18.022,18.022,11.684,-0.664,17.844,10.816,3.647,12.080,8.866,-1.653,7.416,5.768,5.518,-0.037,3.616
Fri Nov 22 21:09:55 2024,995,-31.812,-31.812,15.996,15.996,10.330,-0.922,17.444,10.481,3.749,11.866,8.708,-1.732,6.966,5.540,5.780,-0.542,3.308
Fri Nov 22 21:09:56 2024,0,-31.733,-31.733,14.131,14.131,9.108,-1.196,17.034,10.159,3.820,11.641,8.550,-1.801,6.494,5.342,6.060,-1.058,3.053
Fri Nov 22 21:09:56 2024,5,-31.670,-31.670,12.636,12.636,8.171,-1.461,16.632,9.906,3.835,11.402,8.402,-1.882,6.031,5.178,6.348,-1.506,2.896
Fri Nov 22 21:09:56 2024,10,-31.602,-31.602,11.124,11.124,7.285,-1.811,16.020,9.704,3.712,10.972,8.182,-2.074,5.360,4.963,6.812,-1.936,2.868
Fri Nov 22 21:09:56 2024,15,-31.567,-31.567,9.954,9.954,6.605,-2.090,15.538,9.554,3.609,10.626,8.012,-2.232,4.827,4.793,7.183,-2.280,2.851
Fri Nov 22 21:09:56 2024,20,-31.505,-31.505,8.368,8.368,5.615,-2.323,15.019,9.460,3.428,10.171,7.954,-2.397,4.174,4.717,7.662,-2.837,2.870
Fri Nov 22 21:09:56 2024,25,-31.452,-31.452,6.487,6.487,4.483,-2.608,14.394,9.357,3.196,9.605,7.892,-2.609,3.380,4.629,8.248,-3.530,2.892
Fri Nov 22 21:09:56 2024,30,-31.399,-31.399,5.184,5.184,3.722,-2.824,13.832,9.197,3.028,9.044,7.822,-2.791,2.596,4.531,8.706,-4.072,2.962
Fri Nov 22 21:09:56 2024,35,-31.353,-31.353,3.919,3.919,3.003,-3.043,13.247,9.019,2.859,8.440,7.745,-2.985,1.761,4.427,9.169,-4.622,3.048
Fri Nov 22 21:09:56 2024,40,-31.383,-31.383,2.633,2.633,2.298,-3.293,12.624,8.809,2.774,7.699,7.594,-3.122,0.819,4.242,9.707,-5.324,3.113
Fri Nov 22 21:09:56 2024,45,-31.464,-31.464,1.827,1.827,1.878,-3.469,12.215,8.655,2.794,7.140,7.440,-3.157,0.158,4.065,10.092,-5.873,3.138
Fri Nov 22 21:09:56 2024,50,-31.579,-31.579,1.056,1.056,1.489,-3.673,11.776,8.490,2.813,6.624,7.281,-3.190,-0.476,3.890,10.448,-6.326,3.184
Fri Nov 22 21:09:56 2024,55,-31.776,-31.776,0.319,0.319,1.121,-3.974,11.214,8.280,2.841,6.174,7.096,-3.210,-1.091,3.700,10.756,-6.560,3.280
Fri Nov 22 21:09:56 2024,60,-31.947,-31.947,-0.264,-0.376,0.950,-4.222,10.769,8.120,2.844,5.814,6.945,-3.208,-1.565,3.556,10.983,-6.747,3.354
Fri Nov 22 21:09:56 2024,65,-32.177,-32.177,-0.962,-0.962,0.954,-4.540,10.282,7.968,2.750,5.380,6.762,-3.089,-2.018,3.405,11.138,-6.998,3.402
Fri Nov 22 21:09:56 2024,70,-32.406,-32.406,-1.515,-1.515,-1.128,-4.839,9.836,7.835,2.646,4.977,6.591,-2.967,-2.423,3.272,11.264,-7.236,3.440
Fri Nov 22 21:09:56 2024,75,-32.577,-32.577,-2.015,-2.015,-1.355,-5.048,9.379,7.756,2.613,4.556,6.547,-2.755,-2.786,3.274,11.358,-7.364,3.511
Fri Nov 22 21:09:56 2024,80,-32.755,-32.755,-2.543,-2.543,-1.634,-5.256,8.884,7.684,2.591,4.098,6.524,-2.524,-3.172,3.305,11.453,-7.480,3.601
Fri Nov 22 21:09:56 2024,85,-32.924,-32.924,-2.944,-2.944,-1.836,-5.509,8.382,7.600,2.530,3.630,6.436,-2.400,-3.590,3.247,11.481,-7.634,3.649
Fri Nov 22 21:09:56 2024,90,-33.070,-33.070,-3.229,-3.229,-1.968,-5.762,7.932,7.519,2.453,3.206,6.320,-2.353,-3.978,3.147,11.468,-7.794,3.666
Fri Nov 22 21:09:56 2024,95,-33.231,-33.231,-3.506,-3.506,-2.103,-6.047,7.450,7.439,2.371,2.753,6.195,-2.303,-4.381,3.057,11.487,-7.873,3.708
Fri Nov 22 21:09:56 2024,100,-33.384,-33.384,-3.668,-3.668,-2.193,-6.335,7.026,7.381,2.298,2.356,6.085,-2.245,-4.692,3.024,11.612,-7.654,3.822
Fri Nov 22 21:09:56 2024,105,-33.499,-33.499,-3.786,-3.786,-2.260,-6.552,6.685,7.321,2.245,2.027,5.972,-2.199,-4.951,2.978,11.725,-7.525,3.898
Fri Nov 22 21:09:56 2024,110,-33.582,-33.582,-3.866,-3.866,-2.306,-6.719,6.349,7.216,2.208,1.666,5.787,-2.142,-5.232,2.877,11.870,-7.530,3.921
Fri Nov 22 21:09:56 2024,115,-33.658,-33.658,-3.937,-3.937,-2.348,-6.877,6.022,7.107,2.173,1.310,5.596,-2.096,-5.510,2.774,12.016,-7.560,3.933
Fri Nov 22 21:09:56 2024,120,-33.756,-33.756,-3.918,-3.918,-2.308,-7.114,5.558,6.978,2.116,0.969,5.403,-2.054,-5.782,2.670,12.230,-7.388,3.967
Fri Nov 22 21:09:56 2024,125,-33.851,-33.851,-3.880,-3.880,-2.252,-7.350,5.105,6.855,2.061,0.665,5.229,-2.026,-6.028,2.583,12.438,-7.189,3.999
Fri Nov 22 21:09:56 2024,130,-33.919,-33.919,-3.829,-3.829,-2.215,-7.586,4.657,6.736,2.026,0.490,5.079,-1.956,-6.106,2.553,12.704,-6.974,4.044
Fri Nov 22 21:09:56 2024,135,-33.958,-33.958,-3.771,-3.771,-2.198,-7.801,4.248,6.627,2.014,0.444,4.965,-1.883,-6.023,2.573,13.006,-6.766,4.098
Fri Nov 22 21:09:56 2024,140,-33.951,-33.951,-3.801,-3.801,-2.234,-7.993,3.859,6.530,2.059,0.568,4.931,1.860,-5.905,2.593,13.223,-6.629,4.114
Fri Nov 22 21:09:56 2024,145,-33.898,-33.898,-3.915,-3.915,-2.318,-8.134,3.546,6.459,2.156,0.841,4.980,1.886,-5.767,2.609,13.325,-6.580,4.091
Fri Nov 22 21:09:56 2024,150,-33.814,-33.814,-4.044,-4.044,-2.433,-8.270,3.220,6.373,2.343,1.284,5.068,1.972,-5.526,2.636,13.448,-6.504,4.062
Fri Nov 22 21:09:56 2024,155,-33.657,-33.657,-4.144,-4.144,-2.594,-8.280,3.075,6.288,2.762,2.128,5.257,2.112,-5.008,2.696,13.565,-6.359,4.020
Fri Nov 22 21:09:56 2024,160,-33.451,-33.451,-4.281,-4.281,-2.808,-8.281,2.900,6.168,3.335,3.150,5.480,2.390,-4.328,2.775,13.698,-6.191,3.960
Fri Nov 22 21:09:56 2024,165,-33.205,-33.205,-4.492,-4.492,-3.092,-8.219,2.790,5.986,4.043,4.003,5.598,2.722,-3.468,2.844,13.734,-6.104,3.846
Fri Nov 22 21:09:56 2024,170,-32.941,-32.941,-4.723,-4.723,-3.397,-8.145,2.679,5.784,4.808,4.827,5.708,3.127,-2.552,2.919,13.758,-6.023,3.728
Fri Nov 22 21:09:56 2024,175,-32.699,-32.699,-4.926,-4.926,-3.635,-8.188,2.404,5.728,5.937,5.871,6.258,3.585,-1.338,3.279,13.745,-6.034,3.644
Fri Nov 22 21:09:56 2024,180,-32.502,-32.502,-5.084,-5.084,-3.802,-8.291,2.074,5.762,7.097,6.770,6.986,4.005,-0.142,3.784,13.711,-6.096,3.586
Fri Nov 22 21:09:56 2024,185,-32.340,-32.340,-5.148,-5.148,-3.968,-8.439,1.782,5.724,8.310,7.667,7.828,4.558,1.287,4.391,13.676,-6.172,3.500
Fri Nov 22 21:09:56 2024,190,-32.248,-32.248,-5.104,-5.104,-4.094,-8.598,1.595,5.625,9.287,8.305,8.576,5.103,2.603,4.948,13.648,-6.244,3.407
Fri Nov 22 21:09:56 2024,195,-32.157,-32.157,-5.058,-5.058,-4.217,-8.754,1.409,5.527,10.225,8.558,9.304,5.634,3.855,5.515,13.619,-6.317,3.314
Fri Nov 22 21:09:56 2024,200,-31.984,-31.984,-4.940,-4.940,-4.285,-8.710,1.352,5.441,10.788,8.685,10.057,6.103,5.401,6.068,13.625,-6.381,3.219
Fri Nov 22 21:09:56 2024,205,-31.841,-31.841,-4.843,-4.843,-4.348,-8.691,1.289,5.365,11.295,8.554,10.697,6.502,6.632,6.545,13.626,-6.437,3.140
Fri Nov 22 21:09:56 2024,210,-31.708,-31.708,-4.755,-4.755,-4.359,-8.572,1.367,5.350,11.591,8.402,11.355,6.933,8.007,7.070,13.735,-6.418,3.090
Fri Nov 22 21:09:56 2024,215,-31.589,-31.589,-4.676,-4.676,-4.361,-8.448,1.459,5.347,11.817,8.152,11.946,7.315,9.142,7.547,13.851,-6.389,3.049
Fri Nov 22 21:09:56 2024,220,-31.439,-31.439,-4.599,-4.599,-4.331,-8.261,1.689,5.394,11.998,7.824,12.519,7.565,10.010,7.859,14.036,-6.301,3.040
Fri Nov 22 21:09:56 2024,225,-31.296,-31.296,-4.529,-4.529,-4.297,-8.077,1.930,5.448,12.149,24.294,13.026,7.756,10.635,8.092,14.219,-6.209,3.041
Fri Nov 22 21:09:56 2024,230,-31.028,-31.028,-4.462,-4.462,-4.178,-7.900,2.117,5.582,12.394,33.226,14.124,7.950,11.167,8.466,14.388,-6.072,3.088
Fri Nov 22 21:09:56 2024,235,-30.780,-30.780,-4.433,-4.433,-4.040,-7.821,2.156,5.720,12.609,33.860,15.244,8.050,11.387,8.786,14.457,-5.963,3.155
Fri Nov 22 21:09:56 2024,240,-30.431,-30.431,-4.309,-4.309,-3.700,-7.667,2.084,5.974,12.966,34.913,17.361,8.187,11.569,9.352,14.575,-5.745,3.262
Fri Nov 22 21:09:56 2024,245,-30.129,-30.129,-4.051,-4.051,-3.138,-7.456,1.785,6.302,13.371,36.002,20.264,8.289,11.625,10.064,14.715,-5.439,3.389
Fri Nov 22 21:09:56 2024,250,-29.797,-29.797,-3.793,-3.793,-2.625,-7.183,1.456,6.494,13.823,37.349,23.497,8.428,11.558,10.690,14.977,-5.039,3.497
Fri Nov 22 21:09:56 2024,255,-29.367,-29.367,-3.525,-3.525,-2.239,-6.735,1.069,6.296,14.348,39.217,27.323,8.649,11.192,11.046,15.571,-4.382,3.517
Fri Nov 22 21:09:56 2024,260,-28.897,-28.897,-3.243,-3.243,-1.878,-6.199,0.629,6.009,14.922,41.499,31.858,8.876,29.624,11.348,16.258,-3.688,3.520
Fri Nov 22 21:09:56 2024,265,-28.564,-28.564,-3.190,-3.190,-1.758,-6.192,0.071,5.428,15.495,42.648,33.842,8.572,30.510,10.885,16.930,-3.003,3.601
Fri Nov 22 21:09:56 2024,270,-28.335,-28.335,-3.246,-3.246,-1.757,-6.400,-0.462,4.798,16.049,43.175,34.597,8.078,31.525,10.151,17.500,-2.449,3.730
Fri Nov 22 21:09:56 2024,275,-28.190,-28.190,-2.918,-2.918,-1.815,-6.380,-0.582,4.530,17.073,43.099,33.641,7.782,32.284,9.858,17.778,-2.049,4.061
Fri Nov 22 21:09:56 2024,280,-28.131,-28.131,-2.392,-2.392,-1.895,-6.214,-0.388,4.577,18.191,42.756,31.384,7.695,32.571,9.950,17.797,-1.808,4.445
Fri Nov 22 21:09:56 2024,285,-28.019,-28.019,-1.961,-1.961,-1.926,-6.086,-0.236,4.707,19.383,42.810,29.340,7.721,32.994,10.328,17.666,-1.672,4.684
Fri Nov 22 21:09:56 2024,290,-27.765,-27.765,-1.946,-1.946,-1.789,-6.094,-0.243,5.036,20.374,43.438,29.311,8.115,33.728,11.535,17.096,-1.936,4.397
Fri Nov 22 21:09:56 2024,295,-27.527,-27.527,-1.974,-1.974,-1.669,-6.015,-0.110,5.261,20.848,44.059,30.011,8.490,34.464,12.612,16.677,-2.116,4.178
Fri Nov 22 21:09:56 2024,300,-27.322,-27.322,-2.104,-2.104,-1.587,-5.708,0.391,5.216,20.032,44.750,32.567,8.810,35.191,13.259,16.670,-1.944,4.076
Fri Nov 22 21:09:56 2024,305,-27.164,-27.164,-2.229,-2.229,-1.528,-5.420,0.868,5.127,19.089,45.574,34.957,9.055,35.775,13.701,16.748,-1.737,4.017
Fri Nov 22 21:09:56 2024,310,-27.145,-27.145,2.284,-2.284,-1.386,-5.129,1.510,5.319,18.791,46.715,36.936,9.072,36.126,14.540,17.064,-1.616,4.214
Fri Nov 22 21:09:56 2024,315,-27.167,-27.167,2.320,-2.320,-1.220,-4.843,2.203,5.604,18.677,47.958,38.786,9.018,36.410,15.521,17.449,-1.538,4.527
Fri Nov 22 21:09:56 2024,320,-27.237,-27.237,2.252,-2.252,-1.007,-4.745,2.703,5.898,18.668,48.975,40.200,8.818,36.435,16.260,17.767,-1.537,4.798
Fri Nov 22 21:09:56 2024,325,-27.338,-27.338,2.128,-2.128,-0.759,-4.726,3.170,6.237,18.713,50.005,41.572,8.522,36.340,16.971,18.090,-1.576,5.094
Fri Nov 22 21:09:56 2024,330,-27.412,-27.412,2.056,-2.056,-0.595,-4.716,3.560,6.533,18.835,50.942,42.673,8.260,36.233,17.572,18.357,-1.627,5.344
Fri Nov 22 21:09:56 2024,335,-27.447,-27.447,2.066,-2.066,0.493,-4.721,3.922,6.823,19.182,51.982,43.594,7.980,36.054,18.130,18.598,-1.704,5.528
Fri Nov 22 21:09:56 2024,340,-27.453,-27.453,2.052,-2.052,0.418,-4.682,4.310,7.109,19.473,53.164,44.678,7.660,35.864,18.701,18.855,-1.822,5.685
Fri Nov 22 21:09:56 2024,345,-27.338,-27.338,1.979,-1.979,0.422,-4.533,4.499,7.158,19.382,53.975,45.532,7.434,35.755,18.861,18.969,-1.971,5.550
Fri Nov 22 21:09:56 2024,350,-27.229,-27.229,1.911,-1.911,0.454,-4.390,4.680,7.205,19.296,54.763,46.330,7.218,35.653,19.015,19.078,-2.114,5.422
Fri Nov 22 21:09:56 2024,355,-27.045,-27.045,1.930,-1.930,0.484,-4.268,4.953,7.356,19.488,55.537,46.928,6.975,35.833,19.554,19.110,-2.018,5.582
Fri Nov 22 21:09:56 2024,360,-26.837,-26.837,1.959,-1.959,0.524,-4.135,5.264,7.537,19.733,56.390,47.553,6.702,36.073,20.208,19.138,-1.890,5.808
Fri Nov 22 21:09:56 2024,365,-26.749,-26.749,1.880,-1.880,0.631,-3.958,5.668,7.783,20.224,57.234,48.128,6.429,36.468,20.987,19.117,-1.810,5.896
Fri Nov 22 21:09:56 2024,370,-26.711,-26.711,1.720,-1.720,0.825,-3.707,6.238,8.139,21.003,58.310,48.837,6.077,37.084,22.093,19.061,-1.736,5.944
Fri Nov 22 21:09:56 2024,375,-26.688,-26.688,1.605,-1.605,0.980,-3.520,6.663,8.409,21.592,59.114,49.364,5.812,37.564,22.954,19.020,-1.681,5.994
Fri Nov 22 21:09:56 2024,380,-26.694,-26.694,1.474,-1.474,1.239,-3.269,7.268,8.726,22.601,60.644,50.479,5.440,38.522,24.250,19.010,-1.571,6.200
Fri Nov 22 21:09:56 2024,385,-26.697,-26.697,1.344,-1.344,1.484,-3.008,7.873,9.040,23.514,61.965,51.427,5.125,39.389,25.499,18.969,-1.457,6.391
Fri Nov 22 21:09:56 2024,390,-26.696,-26.696,1.181,-1.181,1.777,-2.613,8.716,9.387,24.536,63.389,52.505,4.899,40.386,26.867,18.838,-1.250,6.607
Fri Nov 22 21:09:56 2024,395,-26.697,-26.697,1.060,-1.060,2.033,-2.274,9.442,9.686,25.414,64.590,53.416,4.720,41.250,28.092,18.724,-1.072,6.800
Fri Nov 22 21:09:56 2024,400,-26.702,-26.702,0.977,-0.977,2.251,-1.994,10.044,9.939,26.156,65.589,54.174,4.570,41.981,29.160,18.628,-0.924,6.969
Fri Nov 22 21:09:56 2024,405,-26.703,-26.703,0.946,-0.946,2.354,-1.863,10.327,10.058,26.505,66.058,54.538,4.502,42.326,29.677,18.584,-0.854,7.049
Fri Nov 22 21:09:56 2024,410,-26.698,-26.698,0.859,-0.859,2.694,-1.378,10.977,10.335,27.791,67.074,55.758,4.520,43.808,31.192,18.456,-0.540,7.502
Fri Nov 22 21:09:56 2024,415,-26.700,-26.700,0.863,0.011,2.990,-0.973,11.578,10.596,28.886,68.055,56.814,4.496,45.040,32.614,18.346,-0.291,7.858
Fri Nov 22 21:09:56 2024,420,-26.681,-26.681,0.973,0.973,3.276,-0.604,12.138,10.799,29.484,68.993,57.914,4.447,46.138,34.031,18.303,-0.105,8.199
Fri Nov 22 21:09:56 2024,425,-26.638,-26.638,1.117,1.117,3.538,-0.287,12.608,10.933,29.612,69.792,59.020,4.403,47.107,35.342,18.320,0.031,8.536
Fri Nov 22 21:09:56 2024,430,-26.610,-26.610,1.260,1.260,3.758,0.001,13.010,11.072,29.740,70.373,59.908,4.382,47.942,36.427,18.302,0.162,8.796
Fri Nov 22 21:09:56 2024,435,-26.609,-26.609,1.494,1.494,4.044,0.293,13.594,11.360,29.993,70.725,60.846,4.416,49.087,37.577,18.147,0.419,9.035
Fri Nov 22 21:09:56 2024,440,-26.614,-26.614,1.681,1.681,4.249,0.469,14.015,11.572,30.183,70.967,61.541,4.451,49.937,38.432,18.031,0.608,9.204
Fri Nov 22 21:09:56 2024,445,-26.548,-26.548,2.135,2.135,4.599,0.855,14.444,11.699,30.083,71.330,62.266,4.649,50.798,39.326,18.026,0.766,9.539
Fri Nov 22 21:09:56 2024,450,-26.490,-26.490,2.545,2.545,4.902,1.193,14.774,11.796,29.974,71.648,62.885,4.830,51.526,40.094,18.029,0.891,9.834
Fri Nov 22 21:09:56 2024,455,-26.298,-26.298,3.001,3.001,5.202,1.536,15.158,11.927,30.154,72.038,63.406,4.921,52.647,41.175,17.985,1.045,10.253
Fri Nov 22 21:09:56 2024,460,-26.047,-26.047,3.475,3.475,5.499,1.871,15.525,12.070,30.468,72.454,63.878,4.974,53.942,42.398,17.920,1.207,10.720
Fri Nov 22 21:09:56 2024,465,-25.813,-25.813,3.746,3.746,5.648,2.152,15.784,12.154,30.718,72.942,64.398,5.006,55.107,43.418,17.872,1.320,11.009
Fri Nov 22 21:09:56 2024,470,-25.569,-25.569,3.898,3.898,5.703,2.426,15.988,12.202,30.952,73.544,65.019,5.032,56.316,44.416,17.831,1.414,11.202
Fri Nov 22 21:09:56 2024,475,-25.384,-25.384,4.015,4.015,5.730,2.691,16.167,12.258,31.237,74.264,65.715,5.113,57.543,45.457,17.795,1.503,11.345
Fri Nov 22 21:09:56 2024,480,-25.394,-25.394,4.003,4.003,5.661,2.938,16.382,12.344,31.718,75.434,66.679,5.354,58.848,46.652,17.774,1.582,11.306
Fri Nov 22 21:09:56 2024,485,-25.397,-25.397,3.995,3.995,5.609,3.162,16.478,12.438,32.115,76.424,67.490,5.556,59.981,47.706,17.737,1.667,11.286
Fri Nov 22 21:09:56 2024,490,-25.350,-25.350,3.971,3.971,5.579,3.416,16.483,12.610,32.383,77.279,68.146,5.688,61.029,48.633,17.632,1.826,11.299
Fri Nov 22 21:09:56 2024,495,-25.291,-25.291,3.942,3.942,5.553,3.686,16.314,12.810,32.637,78.148,68.804,5.822,62.110,49.587,17.505,2.007,11.320
Fri Nov 22 21:09:56 2024,500,-25.234,-25.234,3.923,3.923,5.552,4.063,15.829,13.039,33.047,79.005,69.190,5.896,62.917,50.348,17.363,2.209,11.246
Fri Nov 22 21:09:56 2024,505,-25.193,-25.193,3.911,3.911,5.556,4.360,24.672,13.218,33.382,79.652,69.447,5.949,63.492,50.910,17.252,2.364,11.176
Fri Nov 22 21:09:56 2024,510,-25.117,-25.117,3.878,3.878,5.543,4.696,25.310,13.435,33.623,80.232,69.762,5.994,64.042,51.467,17.131,2.510,11.048
Fri Nov 22 21:09:56 2024,515,-24.929,-24.929,3.781,3.781,5.473,5.108,26.081,13.727,33.467,80.442,70.200,5.981,64.383,51.854,17.001,2.601,10.741
Fri Nov 22 21:09:56 2024,520,-24.757,-24.757,3.716,3.716,5.438,5.483,26.850,14.048,33.228,80.611,70.470,5.992,64.722,52.190,16.908,2.662,10.503
Fri Nov 22 21:09:56 2024,525,-24.595,-24.595,3.699,3.699,5.455,5.768,27.494,14.420,32.683,80.521,70.389,6.015,64.930,52.287,16.900,2.633,10.359
Fri Nov 22 21:09:56 2024,530,-24.447,-24.447,3.686,3.686,5.474,6.021,28.056,14.780,32.171,80.442,70.356,6.023,65.118,52.375,16.884,2.616,10.215
Fri Nov 22 21:09:56 2024,535,-24.295,-24.295,3.678,3.678,5.503,6.261,28.516,15.201,31.614,80.371,70.459,5.993,65.302,52.460,16.842,2.623,10.031
Fri Nov 22 21:09:56 2024,540,-24.154,-24.154,3.672,3.672,5.530,6.482,28.928,15.606,31.087,80.309,70.568,5.962,65.472,52.538,16.799,2.634,9.858
Fri Nov 22 21:09:56 2024,545,-23.974,-23.974,3.718,3.718,5.627,6.696,29.353,16.184,30.432,80.069,70.454,5.950,65.482,52.313,16.771,2.619,9.731
Fri Nov 22 21:09:56 2024,550,-23.819,-23.819,3.763,3.763,5.715,6.878,29.719,16.705,29.856,79.844,70.320,5.942,65.470,52.085,16.749,2.602,9.630
Fri Nov 22 21:09:56 2024,555,-23.624,-23.624,3.808,3.808,5.828,7.057,30.141,17.367,29.230,79.687,70.365,5.912,65.445,52.056,16.776,2.536,9.490
Fri Nov 22 21:09:56 2024,560,-23.477,-23.477,3.837,3.837,5.914,7.174,30.449,17.881,28.793,79.621,70.488,5.883,65.422,52.144,16.819,2.468,9.378
Fri Nov 22 21:09:56 2024,565,-23.296,-23.296,3.880,3.880,6.016,7.296,30.797,18.511,28.336,79.518,70.522,5.834,65.347,52.142,16.870,2.391,9.266
Fri Nov 22 21:09:56 2024,570,-23.066,-23.066,3.959,3.959,6.133,7.383,31.134,19.293,28.012,79.314,70.234,5.734,65.114,51.812,16.921,2.316,9.207
Fri Nov 22 21:09:56 2024,575,-22.862,-22.862,4.026,4.026,6.238,7.467,31.446,20.001,27.705,79.141,70.009,5.650,64.920,51.553,16.968,2.247,9.148
Fri Nov 22 21:09:56 2024,580,-22.660,-22.660,3.968,3.968,6.291,7.430,31.760,21.227,27.351,78.710,69.706,5.531,64.302,51.120,16.962,2.190,9.070
Fri Nov 22 21:09:56 2024,585,-22.498,-22.498,3.932,3.932,6.338,7.408,32.021,22.202,27.069,78.381,69.470,5.442,63.834,50.790,16.960,2.142,9.010
Fri Nov 22 21:09:56 2024,590,-22.330,-22.330,3.928,3.928,6.432,7.626,32.647,23.907,26.403,77.735,69.110,5.427,63.124,50.215,16.981,2.169,9.122
Fri Nov 22 21:09:56 2024,595,-22.227,-22.227,3.968,3.968,6.543,7.824,33.368,25.590,25.971,77.272,68.902,5.487,62.548,49.856,16.950,2.214,9.131
Fri Nov 22 21:09:56 2024,600,-22.124,-22.124,4.008,4.008,6.653,8.023,34.090,27.274,25.540,76.810,68.693,5.547,61.972,49.498,16.920,2.260,9.140
Fri Nov 22 21:09:56 2024,605,-22.021,-22.021,4.048,4.048,6.764,8.222,34.811,28.958,25.108,76.348,68.484,5.607,61.396,49.139,16.889,2.305,9.149
Fri Nov 22 21:09:56 2024,610,-22.010,-22.010,4.071,4.071,6.826,8.217,35.687,30.768,24.705,76.453,69.214,5.658,61.423,49.549,16.958,2.273,9.138
Fri Nov 22 21:09:56 2024,615,-21.999,-21.999,4.093,4.093,6.887,8.213,36.562,32.578,24.301,76.558,69.944,5.710,61.451,49.959,17.027,2.240,9.126
Fri Nov 22 21:09:56 2024,620,-21.988,-21.988,4.116,4.116,6.949,8.208,37.438,34.388,23.898,76.664,70.674,5.761,61.478,50.369,17.096,2.208,9.115
Fri Nov 22 21:09:56 2024,625,-21.977,-21.977,4.139,4.139,7.011,8.204,38.314,36.197,23.495,76.769,71.404,5.812,61.506,50.780,17.164,2.175,9.104
Fri Nov 22 21:09:56 2024,630,-21.966,-21.966,4.161,4.161,7.073,8.199,39.189,38.007,23.092,76.874,72.134,5.864,61.533,51.190,17.233,2.143,9.092
Fri Nov 22 21:09:56 2024,635,-21.955,-21.955,4.184,4.184,7.134,8.195,40.065,39.817,22.688,76.979,72.865,5.915,61.561,51.600,17.302,2.110,9.081
Fri Nov 22 21:09:56 2024,640,-21.944,-21.944,4.207,4.207,7.196,8.190,40.941,41.627,22.285,77.084,73.595,5.967,61.588,52.010,17.371,2.078,9.070
Fri Nov 22 21:09:56 2024,645,-21.934,-21.934,4.229,4.229,7.258,8.186,41.816,43.437,21.882,77.190,74.325,6.018,61.616,52.420,17.440,2.045,9.058
Fri Nov 22 21:09:56 2024,650,-21.923,-21.923,4.252,4.252,7.319,8.181,42.692,45.247,21.478,77.295,75.055,6.069,61.643,52.830,17.509,2.013,9.047
Fri Nov 22 21:09:56 2024,655,-21.912,-21.912,4.274,4.274,7.381,8.177,43.568,47.057,21.075,77.400,75.785,6.121,61.671,53.240,17.578,1.980,9.036
Fri Nov 22 21:09:56 2024,660,-21.901,-21.901,4.297,4.297,7.443,8.172,44.444,48.866,20.672,77.505,76.515,6.172,61.698,53.651,17.647,1.948,9.024
Fri Nov 22 21:09:56 2024,665,-21.890,-21.890,4.320,4.320,7.505,8.168,45.319,50.676,20.269,77.610,77.245,6.223,61.725,54.061,17.715,1.916,9.013
Fri Nov 22 21:09:56 2024,670,-21.879,-21.879,4.342,4.342,7.566,8.163,46.195,52.486,19.865,77.716,77.975,6.275,61.753,54.471,17.784,1.883,9.002
Fri Nov 22 21:09:56 2024,675,-21.868,-21.868,4.365,4.365,7.628,8.159,47.071,54.296,19.462,77.821,78.705,6.326,61.780,54.881,17.853,1.851,8.990
Fri Nov 22 21:09:56 2024,680,-21.857,-21.857,4.388,4.388,7.690,8.154,47.946,56.106,19.059,77.926,79.435,6.378,61.808,55.291,17.922,1.818,8.979
Fri Nov 22 21:09:56 2024,685,-21.846,-21.846,4.410,4.410,7.751,8.150,48.822,57.916,18.655,78.031,80.166,6.429,61.835,55.701,17.991,1.786,8.968
Fri Nov 22 21:09:56 2024,690,-21.835,-21.835,4.433,4.433,7.813,8.145,49.698,59.726,18.252,78.136,80.896,6.480,61.863,56.112,18.060,1.753,8.956
Fri Nov 22 21:09:56 2024,695,-21.824,-21.824,4.456,4.456,7.875,8.141,50.573,61.535,17.849,78.242,81.626,6.532,61.890,56.522,18.129,1.721,8.945
Fri Nov 22 21:09:56 2024,700,-21.813,-21.813,4.478,4.478,7.937,8.136,51.449,63.345,17.446,78.347,82.356,6.583,61.918,56.932,18.198,1.688,8.934
Fri Nov 22 21:09:56 2024,705,-21.802,-21.802,4.501,4.501,7.998,8.132,52.325,65.155,17.042,78.452,83.086,6.634,61.945,57.342,18.266,1.656,8.923
Fri Nov 22 21:09:56 2024,710,-21.828,-21.828,4.480,4.480,7.997,7.981,52.506,66.079,16.607,77.925,83.409,6.759,61.460,57.458,18.313,1.621,9.043
Fri Nov 22 21:09:56 2024,715,-21.838,-21.838,4.479,4.479,8.000,7.689,51.870,66.252,15.746,76.190,83.128,7.025,59.716,56.910,18.397,1.521,9.560
Fri Nov 22 21:09:56 2024,720,-21.847,-21.847,4.480,4.480,8.005,7.445,51.333,66.395,15.054,74.725,82.875,7.304,58.250,56.435,18.469,1.434,10.012
Fri Nov 22 21:09:56 2024,725,-21.885,-21.885,4.410,4.410,7.853,7.135,50.464,65.274,14.998,73.318,81.497,7.684,56.982,55.166,18.475,1.412,10.190
Fri Nov 22 21:09:56 2024,730,-21.915,-21.915,4.355,4.355,7.735,6.897,49.790,64.419,14.968,72.224,80.404,7.997,56.003,54.192,18.481,1.393,10.333
Fri Nov 22 21:09:56 2024,735,-21.736,-21.736,4.282,4.282,7.509,6.783,48.873,62.643,14.849,71.013,78.208,8.312,54.992,52.392,18.494,1.352,10.249
Fri Nov 22 21:09:56 2024,740,-21.472,-21.472,4.198,4.198,7.228,6.708,47.794,60.442,14.707,69.652,75.438,8.670,53.890,50.218,18.512,1.295,10.089
Fri Nov 22 21:09:56 2024,745,-21.154,-21.154,4.145,4.145,6.806,6.609,46.514,57.186,14.995,68.254,71.835,8.861,52.833,47.470,18.499,1.304,10.158
Fri Nov 22 21:09:56 2024,750,-20.811,-20.811,4.108,4.108,6.318,6.512,45.136,53.498,15.508,66.854,67.852,8.980,51.803,44.575,18.470,1.346,10.336
Fri Nov 22 21:09:56 2024,755,-20.495,-20.495,4.101,4.101,5.791,6.479,43.700,49.813,16.176,65.461,63.881,8.910,50.552,41.405,18.449,1.361,10.343
Fri Nov 22 21:09:56 2024,760,-20.225,-20.225,4.169,4.169,5.142,6.563,42.062,45.757,17.208,64.000,59.739,8.382,48.705,37.299,18.451,1.304,9.943
Fri Nov 22 21:09:56 2024,765,-20.024,-20.024,4.220,4.220,4.661,6.632,40.857,42.876,17.975,62.954,56.858,8.005,47.353,34.532,18.456,1.254,9.649
Fri Nov 22 21:09:56 2024,770,-19.857,-19.857,4.354,4.354,4.269,6.588,39.653,39.427,17.543,62.774,54.600,7.258,46.179,31.687,18.302,1.337,8.479
Fri Nov 22 21:09:56 2024,775,-19.713,-19.713,4.473,4.473,3.931,6.548,38.619,36.538,17.182,62.614,52.705,6.626,45.179,29.334,18.168,1.401,7.493
Fri Nov 22 21:09:56 2024,780,-19.430,-19.430,4.614,4.614,3.575,6.411,37.903,34.878,16.163,60.795,49.426,6.937,44.500,27.557,18.165,1.325,7.277
Fri Nov 22 21:09:56 2024,785,-19.173,-19.173,4.742,4.742,3.264,6.285,37.292,33.498,15.282,59.147,46.512,7.261,43.932,26.065,18.170,1.244,7.132
Fri Nov 22 21:09:56 2024,790,-18.907,-18.907,5.096,5.096,3.126,6.292,36.353,32.230,14.495,55.737,42.929,7.864,42.786,24.787,18.282,0.956,7.341
Fri Nov 22 21:09:56 2024,795,-18.634,-18.634,5.594,5.594,3.099,6.381,35.219,31.027,13.835,51.347,38.917,8.651,41.329,23.647,18.465,0.504,7.772
Fri Nov 22 21:09:56 2024,800,-18.406,-18.406,6.011,6.011,3.081,6.453,34.290,30.028,13.350,47.860,35.746,9.312,40.185,22.725,18.622,0.099,8.133
Fri Nov 22 21:09:56 2024,805,-18.488,-18.488,6.161,6.161,2.497,6.821,33.829,26.483,12.435,45.244,31.409,9.518,39.104,21.191,18.738,-0.321,7.565
Fri Nov 22 21:09:56 2024,810,-18.490,-18.490,6.325,6.325,2.219,7.027,33.427,24.439,11.876,43.259,28.685,9.748,38.340,20.204,18.829,-0.642,7.328
Fri Nov 22 21:09:56 2024,815,-18.530,-18.530,6.438,6.438,1.849,6.535,32.324,21.293,11.237,41.792,25.827,9.791,37.271,18.389,18.730,-0.583,6.369
Fri Nov 22 21:09:56 2024,820,-18.567,-18.567,6.541,6.541,1.615,6.116,31.365,18.574,10.674,40.478,23.360,9.831,36.354,16.808,18.649,-0.545,5.567
Fri Nov 22 21:09:56 2024,825,-18.526,-18.526,6.440,6.440,1.434,5.634,30.430,16.599,10.220,39.139,21.139,9.658,35.507,15.505,18.560,-0.529,4.989
Fri Nov 22 21:09:56 2024,830,-18.480,-18.480,6.318,6.318,1.385,5.195,29.605,14.982,9.836,37.958,19.243,9.472,34.772,14.398,18.480,-0.520,4.523
Fri Nov 22 21:09:56 2024,835,-18.409,-18.409,6.091,6.091,1.459,4.731,28.714,13.710,9.581,36.957,17.728,9.205,34.036,13.463,18.447,-0.522,4.178
Fri Nov 22 21:09:56 2024,840,-18.331,-18.331,5.834,5.834,-1.623,4.312,27.902,12.801,9.432,36.195,16.631,8.928,33.396,12.750,18.446,-0.529,3.953
Fri Nov 22 21:09:56 2024,845,-18.313,-18.313,5.531,5.531,-1.788,3.914,27.023,12.066,9.270,35.368,15.699,8.593,32.659,12.030,18.448,-0.528,3.769
Fri Nov 22 21:09:56 2024,850,-18.356,-18.356,5.268,5.268,-1.866,3.640,26.320,11.687,9.138,34.702,15.160,8.294,32.034,11.500,18.452,-0.520,3.664
Fri Nov 22 21:09:56 2024,855,-18.394,-18.394,5.044,5.044,-1.941,3.406,25.729,11.371,9.025,34.146,14.709,8.041,31.509,11.060,18.455,-0.511,3.580
Fri Nov 22 21:09:56 2024,860,-18.441,-18.441,4.913,4.913,-1.965,3.157,25.202,11.122,8.815,33.315,14.263,7.791,31.033,10.848,18.439,-0.478,3.608
Fri Nov 22 21:09:56 2024,865,-18.486,-18.486,4.776,4.776,-1.996,2.917,24.688,10.879,8.621,32.554,13.836,7.549,30.572,10.625,18.424,-0.447,3.624
Fri Nov 22 21:09:56 2024,870,-18.546,-18.546,4.571,4.571,-2.026,2.808,24.286,10.726,8.449,31.848,13.562,7.290,29.947,10.395,18.461,-0.424,3.713
Fri Nov 22 21:09:56 2024,875,-18.596,-18.596,4.411,4.411,-2.052,2.724,23.982,10.611,8.314,31.312,13.352,7.088,29.466,10.221,18.490,-0.406,3.784
Fri Nov 22 21:09:56 2024,880,-18.692,-18.692,4.358,4.358,-2.031,2.600,23.649,10.427,8.128,30.799,13.120,6.922,29.050,10.009,18.432,-0.294,3.836
Fri Nov 22 21:09:56 2024,885,-18.810,-18.810,4.359,4.359,-1.988,2.460,23.314,10.216,7.922,30.312,12.884,6.777,28.678,9.788,18.334,-0.139,3.876
Fri Nov 22 21:09:56 2024,890,-18.938,-18.938,4.370,4.370,-1.971,2.339,23.063,10.034,7.778,29.934,12.673,6.676,28.330,9.567,18.209,-0.039,3.834
Fri Nov 22 21:09:56 2024,895,-19.122,-19.122,4.397,4.397,-1.980,2.201,22.823,9.826,7.654,29.560,12.425,6.588,27.904,9.273,18.011,0.029,3.683
Fri Nov 22 21:09:56 2024,900,-19.257,-19.257,4.415,4.415,-1.974,2.048,22.586,9.676,7.526,29.258,12.248,6.502,27.590,9.069,17.898,0.070,3.608
Fri Nov 22 21:09:56 2024,905,-19.358,-19.358,4.425,4.425,-1.940,1.806,22.256,9.559,7.346,28.951,12.121,6.392,27.314,8.935,17.886,0.088,3.626
Fri Nov 22 21:09:56 2024,910,-19.456,-19.456,4.436,4.436,-1.907,1.575,21.941,9.447,7.173,28.659,12.000,6.287,27.060,8.807,17.874,0.105,3.644
Fri Nov 22 21:09:56 2024,915,-19.532,-19.532,4.456,4.456,-1.870,1.392,21.700,9.237,7.065,28.394,11.803,6.178,26.749,8.589,17.702,0.120,3.508
Fri Nov 22 21:09:56 2024,920,-19.603,-19.603,4.475,4.475,-1.836,1.220,21.472,9.040,6.962,28.148,11.618,6.075,26.478,8.384,17.539,0.130,3.382
Fri Nov 22 21:09:56 2024,925,-19.702,-19.702,4.508,4.508,-1.783,1.059,21.291,8.898,6.794,27.844,11.453,5.987,26.265,8.265,17.394,0.180,3.341
Fri Nov 22 21:09:56 2024,930,-19.796,-19.796,4.539,4.539,-1.734,0.920,21.140,8.783,6.634,27.567,11.311,5.912,13.901,8.174,17.270,0.230,3.320
Fri Nov 22 21:09:56 2024,935,-19.898,-19.898,4.544,4.544,-1.686,0.802,20.987,8.648,6.437,27.202,11.118,5.841,14.044,8.078,17.114,0.288,3.294
Fri Nov 22 21:09:56 2024,940,-20.013,-20.013,4.488,4.488,-1.648,0.745,20.847,8.480,6.169,26.676,10.824,5.783,14.150,7.976,16.900,0.357,3.256
Fri Nov 22 21:09:56 2024,945,-20.113,-20.113,4.449,4.449,-1.612,0.684,20.733,8.337,5.945,26.271,10.580,5.731,14.236,7.886,16.720,0.412,3.224
Fri Nov 22 21:09:56 2024,950,-20.176,-20.176,4.436,4.436,-1.543,0.556,20.623,8.313,5.573,14.332,10.191,5.762,14.234,7.867,16.532,0.529,3.311
Fri Nov 22 21:09:56 2024,955,-20.230,-20.230,4.422,4.422,-1.498,0.472,20.544,8.276,5.320,14.666,9.925,5.772,14.228,7.840,16.394,0.604,3.359
Fri Nov 22 21:09:56 2024,960,-20.308,-20.308,4.369,4.369,-1.447,0.361,19.639,8.178,4.938,15.016,9.578,5.839,14.139,7.780,16.257,0.667,3.414
Fri Nov 22 21:09:56 2024,965,-20.374,-20.374,4.293,4.293,-1.417,0.243,19.621,8.120,4.595,15.068,9.265,5.920,14.008,7.756,16.146,0.721,3.480
Fri Nov 22 21:09:56 2024,970,-20.417,-20.417,4.182,4.182,-1.423,0.120,19.524,8.124,4.332,14.954,9.027,6.019,13.859,7.790,16.083,0.757,3.560
Fri Nov 22 21:09:56 2024,975,-20.457,-20.457,4.025,4.025,-1.453,-0.020,19.348,8.170,4.057,14.633,8.784,6.152,13.664,7.868,16.037,0.790,3.671
Fri Nov 22 21:09:56 2024,980,-20.476,-20.476,3.917,3.917,-1.430,-0.122,19.139,8.186,3.836,14.221,8.559,6.211,13.541,7.909,15.981,0.819,3.750
Fri Nov 22 21:09:56 2024,985,-20.486,-20.486,3.833,3.833,-1.371,-0.181,18.915,8.182,3.627,13.741,8.324,6.226,13.451,7.924,15.912,0.848,3.814
Fri Nov 22 21:09:56 2024,990,-20.496,-20.496,3.750,3.750,-1.312,-0.241,18.694,8.178,3.416,13.206,8.094,6.241,13.354,7.940,15.843,0.876,3.878
Fri Nov 22 21:09:56 2024,995,-20.476,-20.476,3.777,3.777,-1.271,-0.352,18.533,8.189,3.183,12.868,7.900,6.026,13.753,8.228,15.646,0.970,3.859
Fri Nov 22 21:09:57 2024,0,-20.466,-20.466,3.778,3.778,-1.211,-0.436,18.357,8.216,2.996,12.494,7.731,5.908,13.986,8.491,15.480,1.073,3.883
Fri Nov 22 21:09:57 2024,5,-20.463,-20.463,3.780,3.780,-1.104,-0.485,18.170,8.295,2.914,12.211,7.635,5.906,14.092,8.885,15.302,1.261,3.966
Fri Nov 22 21:09:57 2024,10,-20.460,-20.460,3.783,3.783,-0.985,-0.540,17.952,8.388,2.821,11.876,7.524,5.903,14.020,9.340,15.094,1.480,4.070
Fri Nov 22 21:09:57 2024,15,-20.474,-20.474,3.826,3.826,-0.922,-0.565,17.879,8.444,2.860,11.585,7.312,6.111,26.687,10.058,14.890,1.674,4.115
Fri Nov 22 21:09:57 2024,20,-20.490,-20.490,3.870,3.870,-0.872,-0.585,17.824,8.492,2.908,11.316,7.108,6.320,27.716,10.758,14.700,1.852,4.152
Fri Nov 22 21:09:57 2024,25,-20.575,-20.575,3.999,3.999,-0.847,-0.681,17.856,8.558,3.103,11.278,6.991,6.677,29.294,11.751,14.489,2.200,4.367
Fri Nov 22 21:09:57 2024,30,-20.695,-20.695,4.172,4.172,-0.846,-0.817,17.929,8.628,3.376,11.383,6.941,7.103,31.112,12.870,14.285,2.625,4.689
Fri Nov 22 21:09:57 2024,35,-20.832,-20.832,4.315,4.315,-0.872,-1.001,18.088,8.612,3.756,11.553,6.954,7.586,33.092,14.374,14.013,3.128,5.198
Fri Nov 22 21:09:57 2024,40,-20.985,-20.985,4.403,4.403,-0.930,-1.243,18.303,8.463,4.274,11.785,7.066,8.137,35.109,16.443,13.657,3.718,5.970
Fri Nov 22 21:09:57 2024,45,-21.118,-21.118,4.383,4.383,-1.017,-1.477,18.380,8.336,4.752,12.108,7.175,8.927,37.236,18.688,13.457,4.170,6.875
Fri Nov 22 21:09:57 2024,50,-21.221,-21.221,4.038,4.038,-1.277,-1.742,21.742,8.240,5.228,12.820,7.303,10.646,40.093,22.049,13.672,4.305,8.370
Fri Nov 22 21:09:57 2024,55,-21.324,-21.324,3.712,3.712,-1.583,-1.994,22.085,8.147,5.672,13.273,7.418,12.411,42.974,25.759,13.876,4.407,9.840
Fri Nov 22 21:09:57 2024,60,-21.454,-21.454,4.024,4.024,-1.621,-2.278,22.340,7.833,5.828,13.439,7.001,15.689,47.024,29.372,14.105,4.508,11.527
Fri Nov 22 21:09:57 2024,65,-21.570,-21.570,4.358,4.358,-1.635,-2.533,22.567,7.534,5.938,13.541,6.608,18.946,50.962,33.285,14.302,4.574,13.124
Fri Nov 22 21:09:57 2024,70,-21.672,-21.672,4.658,4.658,-1.651,-2.762,22.779,7.266,6.032,13.605,6.276,22.055,54.676,37.358,14.471,4.613,14.621
Fri Nov 22 21:09:57 2024,75,-21.721,-21.721,5.253,5.253,-0.830,-3.128,16.768,6.808,6.622,13.221,6.892,21.045,46.537,29.366,13.757,4.425,11.765
Fri Nov 22 21:09:57 2024,80,-21.570,-21.570,5.296,5.296,-0.717,-3.037,16.662,6.645,7.260,12.672,7.066,20.377,42.951,23.185,13.597,4.592,11.431
Fri Nov 22 21:09:57 2024,85,-21.225,-21.225,4.951,4.951,0.783,-2.588,16.827,6.658,8.108,11.867,7.140,18.568,0.697,16.469,13.630,5.016,11.763
Fri Nov 22 21:09:57 2024,90,-20.913,20.913,4.639,4.639,0.851,-2.180,16.869,6.677,8.885,11.110,7.204,16.835,3.166,10.772,13.662,5.349,12.036
Fri Nov 22 21:09:57 2024,95,-20.947,20.947,4.386,4.386,0.899,-2.318,16.807,6.660,9.381,10.619,6.662,17.513,2.461,10.004,13.449,6.014,11.715
Fri Nov 22 21:09:57 2024,100,-20.954,20.954,4.188,4.188,0.970,-2.378,16.764,6.653,9.810,10.184,6.288,17.812,2.164,9.016,13.330,6.396,11.534
Fri Nov 22 21:09:57 2024,105,-21.177,21.177,4.356,4.356,0.980,-2.446,16.500,6.838,10.180,9.815,6.273,18.273,1.715,8.755,12.702,7.114,11.975
Fri Nov 22 21:09:57 2024,110,-21.381,21.381,4.515,4.515,1.000,-2.514,16.251,7.006,10.514,9.482,6.267,18.685,1.312,8.534,12.141,7.743,12.400
Fri Nov 22 21:09:57 2024,115,-21.414,21.414,5.012,5.012,1.228,-2.452,16.128,7.250,11.064,8.910,6.611,18.151,1.850,8.674,11.952,8.026,13.200
Fri Nov 22 21:09:57 2024,120,-21.379,21.379,5.523,5.523,1.555,-2.356,16.068,7.470,11.577,8.353,7.016,17.398,2.604,8.989,11.925,8.073,13.969
Fri Nov 22 21:09:57 2024,125,-21.365,21.365,6.100,6.100,1.970,-2.255,16.072,7.687,12.079,7.766,7.474,16.595,3.409,9.189,11.838,8.095,14.636
Fri Nov 22 21:09:57 2024,130,-21.372,21.372,6.655,6.655,2.390,-2.164,16.138,7.870,12.503,7.218,7.917,15.856,4.139,9.261,11.712,8.071,15.118
Fri Nov 22 21:09:57 2024,135,-21.398,21.398,7.135,7.135,2.785,-2.082,16.246,8.044,12.898,6.668,8.341,15.190,4.796,9.554,11.595,32.049,15.614
Fri Nov 22 21:09:57 2024,140,-21.462,21.462,7.550,7.550,3.166,-2.002,16.437,8.224,13.292,33.933,8.776,14.565,5.430,10.164,11.472,32.295,16.196
Fri Nov 22 21:09:57 2024,145,-21.522,21.522,7.953,7.953,3.542,-1.924,16.618,8.397,13.675,34.545,9.204,13.965,6.036,10.766,11.354,32.634,16.762
Fri Nov 22 21:09:57 2024,150,-21.534,21.534,8.333,8.333,3.933,-1.704,16.769,8.385,14.142,35.185,9.414,11.917,8.052,11.778,11.359,33.137,17.481
Fri Nov 22 21:09:57 2024,155,-21.550,21.550,8.778,8.778,4.396,-1.455,16.936,8.380,14.683,35.945,9.674,9.567,10.203,12.919,11.352,33.803,18.336
Fri Nov 22 21:09:57 2024,160,-21.487,21.487,9.022,9.022,4.710,-1.189,17.204,8.369,15.242,36.778,9.993,7.022,28.098,14.413,11.610,34.798,19.392
Fri Nov 22 21:09:57 2024,165,-21.432,21.432,9.194,9.194,4.940,-0.984,17.411,8.360,15.672,37.433,10.242,5.048,27.523,15.533,11.828,35.623,20.247
Fri Nov 22 21:09:57 2024,170,-21.365,21.365,9.406,9.406,5.225,-0.730,17.658,8.350,16.206,38.256,10.550,2.604,27.940,16.824,12.097,36.689,21.343
Fri Nov 22 21:09:57 2024,175,-21.291,21.291,9.488,9.488,5.451,-0.459,17.749,8.315,16.954,39.579,11.132,-0.912,29.863,18.212,12.545,38.356,23.322
Fri Nov 22 21:09:57 2024,180,-21.222,21.222,9.609,9.609,5.691,-0.202,17.857,8.289,17.600,40.724,11.598,-3.915,32.508,19.284,12.913,39.848,25.089
Fri Nov 22 21:09:57 2024,185,-21.162,21.162,9.808,9.808,5.880,0.088,17.997,8.262,18.410,41.832,11.683,-5.839,35.261,20.720,13.556,42.223,27.742
Fri Nov 22 21:09:57 2024,190,-21.080,21.080,9.998,9.998,6.076,0.382,18.109,8.273,19.144,42.954,11.840,-7.844,38.324,22.248,14.220,45.020,31.079
Fri Nov 22 21:09:57 2024,195,-20.981,20.981,10.111,10.111,6.145,0.532,18.228,8.401,19.353,43.450,11.897,-8.267,40.524,24.068,14.767,48.058,34.948
Fri Nov 22 21:09:57 2024,200,-20.880,20.880,10.228,10.228,6.217,0.684,18.331,8.535,19.562,43.961,11.955,-8.746,42.780,25.896,15.311,51.275,39.359
Fri Nov 22 21:09:57 2024,205,-20.997,20.997,10.607,10.607,6.533,0.583,18.664,8.849,19.537,44.183,12.057,-8.372,46.086,30.116,16.089,54.875,45.009
Fri Nov 22 21:09:57 2024,210,-21.182,21.182,11.087,11.087,6.951,0.407,19.087,9.238,19.448,44.351,12.181,-7.804,50.183,35.785,17.037,58.918,51.914
Fri Nov 22 21:09:57 2024,215,-21.282,21.282,11.287,11.287,7.209,0.409,19.366,9.416,19.432,44.639,12.445,-7.677,53.779,40.972,17.387,61.728,57.785
Fri Nov 22 21:09:57 2024,220,-21.344,21.344,11.375,11.375,7.390,0.470,19.489,9.509,19.440,44.942,12.730,-7.760,56.882,45.626,17.506,63.894,62.811
Fri Nov 22 21:09:57 2024,225,-21.332,21.332,11.478,11.478,7.618,0.619,20.036,9.619,19.493,45.297,13.023,-7.956,59.683,49.685,17.422,65.732,67.137
Fri Nov 22 21:09:57 2024,230,-21.225,21.225,11.571,11.571,7.844,0.841,20.951,9.723,19.588,45.614,13.242,-8.171,61.259,51.781,17.080,66.608,69.357
Fri Nov 22 21:09:57 2024,235,-21.123,21.123,11.659,11.659,8.059,1.048,21.280,9.822,19.676,45.915,13.450,-8.406,62.746,53.720,16.750,67.448,71.436
Fri Nov 22 21:09:57 2024,240,-21.053,21.053,11.809,11.809,8.231,1.194,21.543,9.895,19.651,46.204,13.773,-8.658,64.333,55.797,16.397,68.108,73.427
Fri Nov 22 21:09:57 2024,245,-20.989,20.989,11.937,11.937,8.386,1.325,21.784,9.962,19.636,46.462,14.050,-8.912,65.726,57.585,16.084,68.707,75.160
Fri Nov 22 21:09:57 2024,250,-20.856,20.856,11.940,11.940,8.550,1.358,21.932,10.086,19.476,46.624,14.402,-9.228,67.922,60.659,16.024,70.222,78.246
Fri Nov 22 21:09:57 2024,255,-20.729,20.729,11.932,11.932,8.699,1.377,22.062,10.203,19.318,46.763,14.727,-9.590,69.980,63.443,16.002,71.679,81.037
Fri Nov 22 21:09:57 2024,260,-20.614,20.614,11.926,11.926,8.834,1.394,22.183,10.308,19.173,46.893,15.023,-9.987,71.854,65.848,15.993,73.013,83.450
Fri Nov 22 21:09:57 2024,265,-20.826,20.826,11.869,11.869,8.901,1.243,22.370,10.447,18.885,47.044,15.420,-10.716,75.237,69.379,16.430,75.256,86.393
Fri Nov 22 21:09:57 2024,270,-20.839,20.839,11.813,11.813,8.962,1.240,22.514,10.539,18.720,47.116,15.682,-11.349,77.324,71.381,16.648,76.672,88.184
Fri Nov 22 21:09:57 2024,275,-20.722,20.722,11.704,11.704,8.995,1.385,22.654,10.610,18.602,47.085,15.885,-12.019,79.006,72.706,16.786,77.815,89.412
Fri Nov 22 21:09:57 2024,280,-20.634,20.634,11.578,11.578,9.013,1.509,22.804,10.676,18.485,47.076,16.115,-12.708,80.598,73.857,16.996,78.961,90.508
Fri Nov 22 21:09:57 2024,285,-20.645,20.645,11.386,11.386,8.941,1.576,22.948,10.697,18.429,47.121,16.372,-13.054,81.166,74.017,17.346,79.626,90.774
Fri Nov 22 21:09:57 2024,290,-20.653,20.653,11.229,11.229,8.883,1.633,23.066,10.714,18.382,47.158,16.584,-13.345,81.643,74.153,17.638,80.178,90.992
Fri Nov 22 21:09:57 2024,295,-20.556,20.556,11.180,11.180,8.933,1.721,23.060,10.809,18.382,47.093,16.802,-13.139,81.225,73.569,17.531,79.721,90.586
Fri Nov 22 21:09:57 2024,300,-20.462,20.462,11.137,11.137,8.982,1.804,23.056,10.899,18.383,47.031,17.006,-12.940,80.816,73.015,17.425,79.274,90.192
Fri Nov 22 21:09:57 2024,305,-20.436,20.436,11.112,11.112,9.020,1.856,23.113,10.990,18.420,47.134,17.205,-12.362,79.672,72.011,17.264,78.148,89.158
Fri Nov 22 21:09:57 2024,310,-20.436,20.436,11.099,11.099,9.045,1.885,23.170,11.054,18.456,47.253,17.344,-11.866,78.659,71.165,17.150,77.172,88.215
Fri Nov 22 21:09:57 2024,315,-20.390,20.390,11.125,11.125,9.097,2.008,23.268,11.125,18.565,47.376,17.468,-11.247,77.027,69.669,16.979,75.680,86.617
Fri Nov 22 21:09:57 2024,320,-20.252,20.252,11.238,11.238,9.188,2.300,23.418,11.160,18.790,47.416,17.449,-10.754,74.926,67.488,16.774,73.880,84.432
Fri Nov 22 21:09:57 2024,325,-20.145,20.145,11.319,11.319,9.246,2.511,23.548,11.209,18.970,47.433,17.416,-10.379,73.074,65.489,16.614,72.321,82.315
Fri Nov 22 21:09:57 2024,330,-20.033,20.033,11.388,11.388,9.252,2.652,23.661,11.311,19.150,47.330,17.232,-10.059,70.806,62.820,16.387,70.506,79.341
Fri Nov 22 21:09:57 2024,335,-19.935,19.935,11.448,11.448,9.258,2.775,23.762,11.401,19.309,47.244,17.075,-9.855,68.838,60.397,16.215,68.938,76.598
Fri Nov 22 21:09:57 2024,340,-19.787,19.787,11.610,11.610,9.295,3.035,23.944,11.576,19.230,46.958,17.028,-9.272,66.250,56.570,16.610,66.789,72.482
Fri Nov 22 21:09:57 2024,345,-19.690,19.690,11.718,11.718,9.319,3.208,24.070,11.692,19.173,46.768,17.001,-8.920,64.564,54.020,16.894,65.410,69.647
Fri Nov 22 21:09:57 2024,350,-19.565,19.565,11.886,11.886,9.305,3.412,24.256,11.747,19.109,46.543,16.791,-8.578,62.416,51.084,16.860,63.140,65.865
Fri Nov 22 21:09:57 2024,355,-19.459,19.459,12.037,12.037,9.278,3.582,24.424,11.762,19.057,46.358,16.557,-8.345,60.581,48.621,16.719,61.056,62.502
Fri Nov 22 21:09:57 2024,360,-19.344,19.344,12.102,12.102,9.214,3.697,24.566,11.735,18.903,46.138,16.359,-8.096,59.012,47.019,16.375,59.024,59.860
Fri Nov 22 21:09:57 2024,365,-19.209,19.209,12.066,12.066,9.097,3.756,24.689,11.653,18.609,45.856,16.185,-7.786,57.621,46.323,15.749,56.857,57.892
Fri Nov 22 21:09:57 2024,370,-19.100,19.100,12.044,12.044,9.006,3.810,24.792,11.590,18.382,45.633,16.041,-7.553,56.455,45.598,15.284,55.118,56.183
Fri Nov 22 21:09:57 2024,375,-19.011,19.011,12.055,12.055,8.884,3.818,24.774,11.366,17.882,44.999,15.775,-6.869,56.169,46.299,14.951,53.394,54.472
Fri Nov 22 21:09:57 2024,380,-18.924,18.924,12.058,12.058,8.776,3.834,24.780,11.187,17.466,44.482,15.543,-6.317,55.731,46.677,14.627,51.797,52.839
Fri Nov 22 21:09:57 2024,385,-18.894,18.894,12.055,12.055,8.665,3.804,24.710,11.116,17.089,43.550,15.249,-5.663,55.439,46.686,14.694,50.275,50.726
Fri Nov 22 21:09:57 2024,390,-18.867,18.867,12.051,12.051,8.560,3.776,24.642,11.051,16.726,42.662,14.964,-5.064,55.168,46.679,14.755,48.865,48.725
Fri Nov 22 21:09:57 2024,395,-18.847,18.847,12.049,12.049,8.483,3.754,24.592,11.003,16.451,42.000,14.747,-4.633,54.968,46.668,14.795,47.831,47.240
Fri Nov 22 21:09:57 2024,400,-18.828,18.828,11.078,11.078,7.743,3.315,24.202,10.924,15.627,40.882,14.715,-3.069,54.971,47.927,15.086,47.094,45.191
Fri Nov 22 21:09:57 2024,405,-18.813,18.813,10.625,10.625,7.380,3.104,24.007,10.872,15.155,40.144,14.631,3.443,55.002,48.428,15.229,46.438,43.824
Fri Nov 22 21:09:57 2024,410,-18.910,18.910,10.718,10.718,7.066,2.703,23.560,10.662,13.870,38.960,14.674,5.794,51.556,43.596,15.774,45.074,37.602
Fri Nov 22 21:09:57 2024,415,-18.945,18.945,10.742,10.742,6.759,2.338,23.128,10.507,12.826,37.909,14.781,7.992,50.302,41.288,15.837,44.089,34.877
Fri Nov 22 21:09:57 2024,420,-18.959,18.959,10.918,10.918,6.464,1.929,22.590,10.342,11.695,36.794,15.012,9.796,49.966,39.872,15.512,43.160,33.608
Fri Nov 22 21:09:57 2024,425,-18.976,18.976,11.087,11.087,6.190,1.548,22.086,10.188,10.635,35.754,15.223,11.504,49.773,38.534,15.217,42.301,32.530
Fri Nov 22 21:09:57 2024,430,-19.268,19.268,10.659,10.659,5.394,1.317,22.107,10.047,10.049,35.585,15.065,16.940,55.437,40.824,16.105,42.684,32.556
Fri Nov 22 21:09:57 2024,435,-19.530,19.530,10.282,10.282,4.682,1.095,22.152,9.916,9.485,35.420,14.924,21.609,60.265,41.844,16.876,43.028,32.549
Fri Nov 22 21:09:57 2024,440,-19.652,19.652,10.436,10.436,4.283,1.276,22.337,9.760,9.730,35.194,14.760,20.460,56.562,36.469,16.882,42.344,28.968
Fri Nov 22 21:09:57 2024,445,-19.760,19.760,10.595,10.595,3.937,1.460,22.513,9.614,9.974,34.995,14.625,19.317,53.127,32.014,16.847,41.692,25.703
Fri Nov 22 21:09:57 2024,450,-19.868,19.868,10.753,10.753,3.598,1.647,22.692,9.467,10.212,34.804,14.506,18.256,49.920,28.305,16.802,41.052,22.576
Fri Nov 22 21:09:57 2024,455,-19.570,19.570,10.527,10.527,3.073,1.365,23.112,9.009,9.721,34.270,14.044,15.823,47.540,25.977,16.658,40.054,19.587
Fri Nov 22 21:09:57 2024,460,-19.432,19.432,10.464,10.464,2.818,1.344,23.360,8.806,9.540,33.880,13.794,14.376,45.457,23.824,16.557,39.415,17.363
Fri Nov 22 21:09:57 2024,465,-19.261,19.261,10.430,10.430,2.873,1.528,23.429,8.858,9.396,33.359,13.622,13.276,43.626,21.769,16.456,38.915,15.768
Fri Nov 22 21:09:57 2024,470,-19.123,19.123,10.388,10.388,2.883,1.684,23.501,8.920,9.260,32.904,13.454,12.296,41.939,19.916,16.338,38.419,14.262
Fri Nov 22 21:09:57 2024,475,-19.080,0.005,10.315,10.315,2.846,1.868,23.472,9.180,9.140,32.554,13.328,11.626,40.445,18.164,16.094,37.756,13.010
Fri Nov 22 21:09:57 2024,480,-19.048,-19.048,10.254,10.254,2.812,2.016,23.459,9.396,9.046,32.280,13.228,11.119,39.284,16.813,15.900,37.250,12.020
Fri Nov 22 21:09:57 2024,485,-19.099,-19.099,10.282,10.282,2.890,2.136,23.376,9.665,8.900,31.878,13.242,10.370,37.374,15.586,15.974,37.151,11.712
Fri Nov 22 21:09:57 2024,490,-19.150,-19.150,10.314,10.314,2.972,2.244,23.310,9.909,8.768,31.516,13.262,9.702,35.651,14.521,16.060,37.099,11.484
Fri Nov 22 21:09:57 2024,495,-19.251,-19.251,10.240,10.240,3.072,2.388,23.302,10.194,8.576,31.074,13.343,9.054,34.018,13.686,16.332,37.335,11.630
Fri Nov 22 21:09:57 2024,500,-19.377,19.377,10.110,10.110,3.187,2.554,23.330,10.502,8.355,30.592,13.455,8.415,32.432,12.971,16.698,37.711,11.963
Fri Nov 22 21:09:57 2024,505,-19.479,19.479,10.057,10.057,3.340,2.739,23.429,10.716,8.187,30.175,13.520,7.894,31.108,12.488,16.967,38.053,12.436
Fri Nov 22 21:09:57 2024,510,-19.569,19.569,10.059,10.059,3.537,2.952,23.590,10.872,8.046,29.775,13.555,7.414,29.878,12.137,17.185,38.399,13.061
Fri Nov 22 21:09:57 2024,515,-19.655,19.655,10.060,10.060,3.723,3.152,23.745,11.019,7.913,29.412,13.586,6.967,28.775,11.824,17.388,38.727,13.644
Fri Nov 22 21:09:57 2024,520,-19.844,19.844,10.008,10.008,3.844,3.240,23.825,11.056,7.654,28.876,13.450,6.314,27.653,11.689,17.811,39.351,14.427
Fri Nov 22 21:09:57 2024,525,-19.987,19.987,9.973,9.973,3.955,3.330,23.902,11.102,7.455,28.464,13.360,5.795,26.748,11.556,18.134,39.837,15.055
Fri Nov 22 21:09:57 2024,530,-20.072,20.072,10.042,10.042,4.204,3.440,23.916,11.154,7.286,28.022,13.307,5.132,25.679,11.524,18.648,40.607,16.139
Fri Nov 22 21:09:57 2024,535,-20.130,20.130,10.106,10.106,4.408,3.526,23.928,11.195,7.162,27.706,13.270,4.616,24.898,11.512,19.056,41.226,17.010
Fri Nov 22 21:09:57 2024,540,-20.196,20.196,10.182,10.182,4.607,3.700,24.058,11.255,7.108,27.495,13.221,4.189,24.358,11.611,19.610,42.031,18.062
Fri Nov 22 21:09:57 2024,545,-20.245,20.245,10.241,10.241,4.750,3.854,24.188,11.305,7.087,27.378,13.181,3.903,24.026,11.715,20.060,42.678,18.889
Fri Nov 22 21:09:57 2024,550,-20.261,-20.261,10.314,10.314,4.964,4.080,24.400,11.419,7.098,12.734,13.048,3.728,16.187,11.824,20.646,43.627,20.142
Fri Nov 22 21:09:57 2024,555,-20.240,-20.240,10.368,10.368,5.151,4.280,24.600,11.544,7.134,12.782,12.884,3.730,16.199,11.892,21.112,44.465,21.274
Fri Nov 22 21:09:57 2024,560,-20.187,-20.187,10.397,10.397,5.373,4.561,24.907,11.827,7.172,12.800,12.759,3.853,23.990,12.070,21.837,45.891,23.030
Fri Nov 22 21:09:57 2024,565,-20.101,-20.101,10.367,10.367,5.542,4.845,25.255,12.255,7.199,12.790,12.766,4.128,24.533,12.347,22.659,47.677,25.010
Fri Nov 22 21:09:57 2024,570,-20.026,-20.026,10.341,10.341,5.691,5.095,25.562,12.634,7.223,12.774,12.771,4.366,25.084,12.583,23.386,49.294,26.749
