Timestamp,Millis,thumb_tm_aa,thumb_tm_flex,thumb_mcp_aa,thumb_mcp_flex,thumb_ip,index_mcp_aa,index_mcp_flex,index_pip,middle_mcp_aa,middle_mcp_flex,middle_pip,ring_mcp_aa,ring_mcp_flex,ring_pip,little_mcp_aa,little_mcp_flex,little_pip
Fri Nov 22 19:44:31 2024,380,-15.395,-15.395,-8.690,-8.690,-8.630,-2.712,16.229,6.131,2.498,12.847,7.927,-2.851,9.575,6.331,12.887,6.133,6.038
Fri Nov 22 19:44:31 2024,385,-15.464,-15.464,-8.773,-8.773,-8.672,-2.713,16.276,6.165,2.511,12.842,7.880,-2.818,9.660,6.330,12.992,6.097,6.080
Fri Nov 22 19:44:31 2024,390,-15.540,-15.540,-8.860,-8.860,-8.716,-2.716,16.325,6.203,2.523,12.837,7.829,-2.785,9.751,6.328,13.106,6.057,6.128
Fri Nov 22 19:44:31 2024,395,-15.594,-15.594,-8.922,-8.922,-8.747,-2.717,16.360,6.229,2.532,12.834,7.793,-2.760,9.817,6.327,13.186,6.027,6.162
Fri Nov 22 19:44:31 2024,400,-15.473,-15.473,-8.780,-8.780,-8.722,-2.651,16.312,6.105,2.523,12.878,7.885,-2.832,9.701,6.342,13.033,6.094,6.117
Fri Nov 22 19:44:31 2024,405,-15.425,-15.425,-8.721,-8.721,-8.717,-2.617,16.294,6.047,2.520,12.901,7.924,-2.863,9.657,6.349,12.974,6.121,6.103
Fri Nov 22 19:44:31 2024,410,-15.427,-15.427,-8.687,-8.687,-8.641,-2.688,16.089,6.009,2.509,12.837,7.820,-2.929,9.580,6.249,12.808,6.194,5.936
Fri Nov 22 19:44:31 2024,415,-15.425,-15.425,-8.658,-8.658,-8.583,-2.740,15.931,5.976,2.500,12.790,7.745,-2.982,9.520,6.174,12.679,6.248,5.809
Fri Nov 22 19:44:31 2024,420,-15.447,-15.447,-8.708,-8.708,-8.617,-2.754,15.933,6.013,2.481,12.792,7.779,-2.995,9.501,6.170,12.699,6.200,5.713
Fri Nov 22 19:44:31 2024,425,-15.476,-15.476,-8.787,-8.787,-8.687,-2.748,16.009,6.076,2.461,12.816,7.858,-2.988,9.504,6.199,12.786,6.114,5.647
Fri Nov 22 19:44:31 2024,430,-15.501,-15.501,-8.851,-8.851,-8.744,-2.742,16.071,6.128,2.444,12.836,7.922,-2.982,9.507,6.223,12.857,6.043,5.593
Fri Nov 22 19:44:31 2024,435,-15.433,-15.433,-8.774,-8.774,-8.586,-2.739,16.057,6.176,2.451,12.804,7.955,-2.958,9.539,6.322,12.884,6.069,5.862
Fri Nov 22 19:44:31 2024,440,-15.396,-15.396,-8.736,-8.736,-8.497,-2.736,16.059,6.214,2.453,12.786,7.986,-2.942,9.559,6.388,12.912,6.074,6.024
Fri Nov 22 19:44:31 2024,445,-15.372,-15.372,-8.736,-8.736,-8.504,-2.740,16.022,6.146,2.422,12.706,7.880,-2.978,9.472,6.315,12.846,6.105,5.992
Fri Nov 22 19:44:31 2024,450,-15.349,-15.349,-8.740,-8.740,-8.522,-2.745,15.979,6.066,2.387,12.616,7.758,-3.021,9.371,6.226,12.768,6.141,5.943
Fri Nov 22 19:44:31 2024,455,-15.331,-15.331,-8.743,-8.743,-8.535,-2.749,15.948,6.007,2.361,12.549,7.668,-3.052,9.297,6.161,12.711,6.166,5.907
Fri Nov 22 19:44:31 2024,460,-15.388,-15.388,-8.834,-8.834,-8.606,-2.782,15.965,6.190,2.344,12.590,7.846,-3.082,9.323,6.278,12.799,6.149,5.997
Fri Nov 22 19:44:31 2024,465,-15.412,-15.412,-8.883,-8.883,-8.647,-2.801,15.965,6.269,2.327,12.592,7.913,-3.107,9.315,6.320,12.828,6.147,6.034
Fri Nov 22 19:44:31 2024,470,-15.434,-15.434,-8.927,-8.927,-8.683,-2.817,15.964,6.340,2.312,12.594,7.974,-3.130,9.308,6.358,12.855,6.145,6.067
Fri Nov 22 19:44:31 2024,475,-15.386,-15.386,-8.776,-8.776,-8.602,-2.700,16.194,6.075,2.409,12.638,7.640,-2.938,9.500,6.128,12.845,6.065,5.755
Fri Nov 22 19:44:31 2024,480,-15.368,-15.368,-8.779,-8.779,-8.586,-2.763,16.211,6.186,2.367,12.707,7.711,-3.001,9.513,6.181,12.871,6.094,5.868
Fri Nov 22 19:44:31 2024,485,-15.349,-15.349,-8.795,-8.795,-8.574,-2.848,16.201,6.338,2.308,12.783,7.824,-3.095,9.507,6.266,12.899,6.135,6.033
Fri Nov 22 19:44:31 2024,490,-15.329,-15.329,-8.812,-8.812,-8.560,-2.937,16.187,6.499,2.246,12.862,7.944,-3.193,9.499,6.355,12.928,6.177,6.207
Fri Nov 22 19:44:31 2024,495,-15.454,-15.454,-8.848,-8.848,-8.622,-2.820,16.106,6.332,2.324,12.704,7.851,-3.081,9.496,6.281,12.936,6.098,6.060
Fri Nov 22 19:44:31 2024,500,-15.524,-15.524,-8.873,-8.873,-8.654,-2.770,16.049,6.267,2.357,12.627,7.821,-3.035,9.492,6.256,12.946,6.060,6.009
Fri Nov 22 19:44:31 2024,505,-15.493,-15.493,-8.862,-8.862,-8.644,-2.760,16.141,6.260,2.334,12.676,7.805,-3.040,9.461,6.218,12.931,6.076,5.981
Fri Nov 22 19:44:31 2024,510,-15.463,-15.463,-8.851,-8.851,-8.633,-2.757,16.214,6.261,2.312,12.721,7.796,-3.048,9.439,6.192,12.919,6.091,5.964
Fri Nov 22 19:44:31 2024,515,-15.461,-15.461,-8.807,-8.807,-8.581,-2.786,16.170,6.268,2.294,12.743,7.814,-3.071,9.393,6.198,12.897,6.109,5.985
Fri Nov 22 19:44:31 2024,520,-15.481,-15.481,-8.753,-8.753,-8.518,-2.828,16.050,6.278,2.284,12.740,7.847,-3.096,9.348,6.228,12.877,6.121,6.028
Fri Nov 22 19:44:31 2024,525,-15.502,-15.502,-8.702,-8.702,-8.458,-2.868,15.937,6.288,2.276,12.736,7.877,-3.120,9.306,6.256,12.858,6.132,6.068
Fri Nov 22 19:44:31 2024,530,-15.447,-15.447,-8.732,-8.732,-8.509,-2.822,16.010,6.224,2.314,12.693,7.816,-3.076,9.296,6.187,12.826,6.153,5.974
Fri Nov 22 19:44:31 2024,535,-15.411,-15.411,-8.748,-8.748,-8.540,-2.794,16.051,6.180,2.341,12.661,7.775,-3.048,9.285,6.140,12.802,6.170,5.911
Fri Nov 22 19:44:31 2024,540,-15.392,-15.392,-8.724,-8.724,-8.533,-2.742,16.112,6.151,2.390,12.650,7.734,-3.009,9.332,6.146,12.814,6.151,5.960
Fri Nov 22 19:44:31 2024,545,-15.388,-15.388,-8.692,-8.692,-8.513,-2.698,16.159,6.139,2.431,12.651,7.707,-2.980,9.386,6.172,12.836,6.125,6.038
Fri Nov 22 19:44:31 2024,550,-15.384,-15.384,-8.660,-8.660,-8.494,-2.655,16.206,6.127,2.470,12.651,7.680,-2.952,9.439,6.198,12.858,6.098,6.116
Fri Nov 22 19:44:31 2024,555,-15.380,-15.380,-8.636,-8.636,-8.479,-2.623,16.242,6.117,2.501,12.652,7.661,-2.930,9.480,6.218,12.875,6.079,6.174
Fri Nov 22 19:44:31 2024,560,-15.419,-15.419,-8.810,-8.810,-8.565,-2.535,16.352,6.296,2.500,12.447,7.768,-2.956,9.453,6.284,12.901,6.059,6.004
Fri Nov 22 19:44:31 2024,565,-15.384,-15.384,-8.804,-8.804,-8.551,-2.577,16.282,6.304,2.463,12.493,7.782,-2.966,9.447,6.275,12.880,6.072,6.008
Fri Nov 22 19:44:31 2024,570,-15.349,-15.349,-8.791,-8.791,-8.534,-2.622,16.208,6.303,2.427,12.546,7.791,-2.975,9.440,6.263,12.857,6.086,6.015
Fri Nov 22 19:44:31 2024,575,-15.317,-15.317,-8.779,-8.779,-8.518,-2.664,16.139,6.302,2.393,12.596,7.800,-2.983,9.433,6.251,12.836,6.099,6.023
Fri Nov 22 19:44:31 2024,580,-15.358,-15.358,-8.827,-8.827,-8.539,-2.638,16.038,6.231,2.458,12.479,7.778,-3.008,9.435,6.275,12.834,6.094,5.954
Fri Nov 22 19:44:31 2024,585,-15.371,-15.371,-8.848,-8.848,-8.545,-2.635,15.970,6.195,2.483,12.431,7.769,-3.022,9.434,6.285,12.828,6.095,5.922
Fri Nov 22 19:44:31 2024,590,-15.431,-15.431,-8.832,-8.832,-8.550,-2.730,16.106,6.288,2.448,12.652,7.886,-3.005,9.561,6.368,12.878,6.092,6.012
Fri Nov 22 19:44:31 2024,595,-15.478,-15.478,-8.821,-8.821,-8.553,-2.805,16.199,6.360,2.421,12.823,7.977,-2.992,9.662,6.435,12.917,6.089,6.082
Fri Nov 22 19:44:31 2024,600,-15.524,-15.524,-8.819,-8.819,-8.530,-2.772,16.223,6.446,2.465,12.752,8.064,-2.970,9.660,6.507,12.934,6.058,6.116
Fri Nov 22 19:44:31 2024,605,-15.574,-15.574,-8.818,-8.818,-8.498,-2.708,16.230,6.546,2.532,12.610,8.160,-2.942,9.632,6.590,12.947,6.016,6.145
Fri Nov 22 19:44:31 2024,610,-15.612,-15.612,-8.817,-8.817,-8.472,-2.660,16.234,6.622,2.582,12.501,8.234,-2.922,9.610,6.652,12.956,5.984,6.168
Fri Nov 22 19:44:31 2024,615,-15.583,-15.583,-8.780,-8.780,-8.439,-2.717,16.137,6.576,2.507,12.494,8.178,-2.980,9.552,6.600,12.910,6.028,6.166
Fri Nov 22 19:44:31 2024,620,-15.487,-15.487,-8.703,-8.703,-8.390,-2.884,15.924,6.408,2.302,12.574,7.990,-3.123,9.442,6.433,12.800,6.150,6.141
Fri Nov 22 19:44:31 2024,625,-15.530,-15.530,-8.745,-8.745,-8.458,-2.825,16.116,6.521,2.426,12.661,8.068,-3.100,9.506,6.478,12.917,6.077,6.206
Fri Nov 22 19:44:31 2024,630,-15.578,-15.578,-8.791,-8.791,-8.528,-2.760,16.313,6.640,2.557,12.743,8.152,-3.072,9.574,6.528,13.039,5.998,6.272
Fri Nov 22 19:44:31 2024,635,-15.621,-15.621,-8.828,-8.828,-8.586,-2.705,16.474,6.738,2.665,12.806,8.221,-3.049,9.630,6.570,13.141,5.930,6.327
Fri Nov 22 19:44:31 2024,640,-15.679,-15.679,-8.742,-8.742,-8.589,-2.771,16.380,6.498,2.492,12.926,8.040,-3.035,9.695,6.420,13.005,6.014,6.082
Fri Nov 22 19:44:31 2024,645,-15.724,-15.724,-8.704,-8.704,-8.607,-2.792,16.373,6.393,2.427,13.009,7.959,-3.021,9.747,6.349,12.959,6.040,5.963
Fri Nov 22 19:44:31 2024,650,-15.645,-15.645,-8.733,-8.733,-8.595,-2.757,16.352,6.403,2.515,13.012,8.007,-2.988,9.668,6.320,12.987,6.020,5.984
Fri Nov 22 19:44:31 2024,655,-15.579,-15.579,-8.755,-8.755,-8.586,-2.727,16.331,6.401,2.589,13.021,8.042,-2.957,9.602,6.287,13.008,6.005,5.991
Fri Nov 22 19:44:31 2024,660,-15.589,-15.589,-8.794,-8.794,-8.622,-2.788,16.246,6.383,2.577,13.050,8.056,-2.960,9.590,6.286,13.050,5.973,5.963
Fri Nov 22 19:44:31 2024,665,-15.610,-15.610,-8.827,-8.827,-8.656,-2.850,16.172,6.366,2.553,13.075,8.062,-2.967,9.590,6.290,13.086,5.946,5.937
Fri Nov 22 19:44:31 2024,670,-15.632,-15.632,-8.864,-8.864,-8.694,-2.918,16.088,6.348,2.528,13.104,8.070,-2.976,9.589,6.296,13.125,5.915,5.908
Fri Nov 22 19:44:31 2024,675,-15.628,-15.628,-8.849,-8.849,-8.649,-2.882,16.337,6.423,2.388,13.014,8.020,-2.965,9.822,6.412,12.998,6.116,6.070
Fri Nov 22 19:44:31 2024,680,-15.629,-15.629,-8.847,-8.847,-8.625,-2.870,16.480,6.470,2.291,12.956,7.989,-2.960,9.979,6.490,12.919,6.243,6.175
Fri Nov 22 19:44:31 2024,685,-15.640,-15.640,-8.793,-8.793,-8.592,-2.901,16.385,6.457,2.287,12.927,7.933,-3.021,9.872,6.395,12.882,6.244,6.107
Fri Nov 22 19:44:31 2024,690,-15.652,-15.652,-8.738,-8.738,-8.558,-2.933,16.285,6.445,2.284,12.898,7.876,-3.083,9.764,6.299,12.844,6.243,6.037
Fri Nov 22 19:44:31 2024,695,-15.660,-15.660,-8.697,-8.697,-8.534,-2.956,16.211,6.435,2.281,12.876,7.834,-3.128,9.683,6.230,12.817,6.242,5.986
Fri Nov 22 19:44:31 2024,700,-15.618,-15.618,-8.789,-8.789,-8.537,-2.873,16.233,6.474,2.385,12.973,8.050,-3.038,9.723,6.403,12.922,6.185,6.171
Fri Nov 22 19:44:31 2024,705,-15.594,-15.594,-8.834,-8.834,-8.530,-2.828,16.219,6.496,2.451,13.026,8.175,-2.996,9.720,6.491,12.981,6.147,6.273
Fri Nov 22 19:44:31 2024,710,-15.594,-15.594,-8.872,-8.872,-8.521,-2.869,16.196,6.576,2.379,12.934,8.183,-3.018,9.665,6.536,12.969,6.168,6.270
Fri Nov 22 19:44:31 2024,715,-15.595,-15.595,-8.913,-8.913,-8.512,-2.915,16.171,6.664,2.299,12.829,8.190,-3.043,9.604,6.585,12.956,6.191,6.266
Fri Nov 22 19:44:31 2024,720,-15.596,-15.596,-8.941,-8.941,-8.506,-2.946,16.154,6.723,2.245,12.758,8.195,-3.060,9.563,6.618,12.947,6.206,6.264
Fri Nov 22 19:44:31 2024,725,-15.684,-15.684,-8.830,-8.830,-8.559,-2.746,16.460,6.635,2.439,12.947,8.140,-2.911,9.870,6.575,12.978,6.114,6.201
Fri Nov 22 19:44:31 2024,730,-15.724,-15.724,-8.791,-8.791,-8.580,-2.668,16.588,6.617,2.506,13.003,8.118,-2.851,9.991,6.567,12.988,6.079,6.173
Fri Nov 22 19:44:31 2024,735,-15.620,-15.620,-8.902,-8.902,-8.600,-2.870,16.276,6.445,2.304,12.916,8.051,-3.125,9.567,6.375,12.847,6.255,6.126
Fri Nov 22 19:44:31 2024,740,-15.570,-15.570,-8.956,-8.956,-8.613,-2.966,16.127,6.351,2.205,12.875,8.012,-3.263,9.357,6.272,12.773,6.344,6.097
Fri Nov 22 19:44:31 2024,745,-15.630,-15.630,-8.936,-8.936,-8.584,-2.882,16.242,6.467,2.222,12.794,7.958,-3.171,9.451,6.278,12.780,6.304,6.002
Fri Nov 22 19:44:31 2024,750,-15.698,-15.698,-8.906,-8.906,-8.552,-2.781,16.380,6.598,2.257,12.721,7.910,-3.056,9.578,6.301,12.801,6.248,5.915
Fri Nov 22 19:44:31 2024,755,-15.688,-15.688,-8.892,-8.892,-8.517,-2.755,16.427,6.612,2.303,12.726,7.940,-3.038,9.568,6.326,12.836,6.230,5.979
Fri Nov 22 19:44:31 2024,760,-15.638,-15.638,-8.887,-8.887,-8.480,-2.768,16.426,6.563,2.357,12.772,8.012,-3.071,9.483,6.353,12.879,6.231,6.129
Fri Nov 22 19:44:31 2024,765,-15.591,-15.591,-8.882,-8.882,-8.446,-2.780,16.425,6.517,2.406,12.815,8.080,-3.101,9.404,6.378,12.919,6.232,6.270
Fri Nov 22 19:44:31 2024,770,-15.651,-15.651,-8.956,-8.956,-8.527,-2.722,16.425,6.567,2.465,12.739,8.090,-3.057,9.379,6.391,12.817,6.228,6.096
Fri Nov 22 19:44:31 2024,775,-15.697,-15.697,-9.016,-9.016,-8.589,-2.676,16.423,6.603,2.517,12.681,8.104,-3.024,9.350,6.405,12.739,6.221,5.970
Fri Nov 22 19:44:31 2024,780,-15.690,-15.690,-9.069,-9.069,-8.597,-2.674,16.455,6.662,2.505,12.652,8.177,-3.051,9.329,6.446,12.759,6.205,6.007
Fri Nov 22 19:44:31 2024,785,-15.671,-15.671,-9.114,-9.114,-8.590,-2.684,16.491,6.719,2.477,12.633,8.257,-3.091,9.312,6.490,12.804,6.188,6.082
Fri Nov 22 19:44:31 2024,790,-15.657,-15.657,-9.148,-9.148,-8.585,-2.692,16.517,6.761,2.457,12.620,8.316,-3.119,9.299,6.522,12.835,6.176,6.136
Fri Nov 22 19:44:31 2024,795,-15.826,-15.826,-9.088,-9.088,-8.609,-2.743,16.484,6.812,2.421,12.683,8.302,-3.058,9.471,6.585,12.887,6.140,6.117
Fri Nov 22 19:44:31 2024,800,-15.932,-15.932,-9.055,-9.055,-8.623,-2.778,16.468,6.853,2.394,12.720,8.305,-3.024,9.579,6.632,12.926,6.114,6.114
Fri Nov 22 19:44:31 2024,805,-15.890,-15.890,-9.057,-9.057,-8.601,-2.765,16.460,6.875,2.420,12.635,8.291,-3.040,9.583,6.655,12.918,6.135,6.200
Fri Nov 22 19:44:31 2024,810,-15.849,-15.849,-9.060,-9.060,-8.582,-2.752,16.454,6.893,2.444,12.559,8.279,-3.056,9.581,6.672,12.908,6.155,6.273
Fri Nov 22 19:44:31 2024,815,-15.808,-15.808,-9.064,-9.064,-8.563,-2.740,16.447,6.910,2.468,12.485,8.268,-3.072,9.578,6.690,12.899,6.174,6.344
Fri Nov 22 19:44:31 2024,820,-15.837,-15.837,-9.111,-9.111,-8.614,-2.663,16.448,6.827,2.517,12.492,8.227,-3.089,9.344,6.517,12.953,6.086,6.188
Fri Nov 22 19:44:31 2024,825,-15.843,-15.843,-9.144,-9.144,-8.642,-2.608,16.444,6.776,2.558,12.471,8.196,-3.106,9.184,6.406,12.986,6.033,6.108
Fri Nov 22 19:44:31 2024,830,-15.855,-15.855,-9.112,-9.112,-8.549,-2.758,16.172,6.784,2.455,12.396,8.137,-3.093,9.269,6.486,12.872,6.153,6.123
Fri Nov 22 19:44:31 2024,835,-15.865,-15.865,-9.086,-9.086,-8.474,-2.878,15.949,6.788,2.373,12.332,8.087,-3.083,9.332,6.546,12.780,6.249,6.133
Fri Nov 22 19:44:31 2024,840,-15.875,-15.875,-9.063,-9.063,-8.407,-2.984,15.749,6.790,2.300,12.272,8.043,-3.074,9.389,6.601,12.697,6.335,6.141
Fri Nov 22 19:44:31 2024,845,-15.880,-15.880,-8.968,-8.968,-8.529,-2.682,16.217,6.753,2.464,12.288,8.067,-3.032,9.314,6.484,12.858,6.050,6.022
Fri Nov 22 19:44:31 2024,850,-15.887,-15.887,-8.906,-8.906,-8.572,-2.553,16.402,6.732,2.529,12.272,8.064,-3.005,9.293,6.439,12.915,5.922,5.958
Fri Nov 22 19:44:31 2024,855,-15.938,-15.938,-8.884,-8.884,-8.450,-2.723,16.162,6.722,2.339,12.212,7.955,-3.170,9.002,6.391,12.758,6.182,6.181
Fri Nov 22 19:44:31 2024,860,-15.972,-15.972,-8.856,-8.856,-8.382,-2.802,16.050,6.710,2.233,12.169,7.886,-3.269,8.813,6.351,12.672,6.318,6.309
Fri Nov 22 19:44:31 2024,865,-15.998,-15.998,-8.835,-8.835,-8.328,-2.864,15.963,6.702,2.151,12.134,7.833,-3.345,8.667,6.320,12.604,6.422,6.409
Fri Nov 22 19:44:31 2024,870,-15.893,-15.893,-8.933,-8.933,-8.531,-2.805,16.126,6.595,2.288,12.542,7.924,-3.112,9.226,6.272,12.778,6.264,6.038
Fri Nov 22 19:44:31 2024,875,-15.863,-15.863,-8.962,-8.962,-8.586,-2.805,16.154,6.552,2.309,12.681,7.939,-3.054,9.381,6.243,12.818,6.243,5.937
Fri Nov 22 19:44:31 2024,880,-15.687,-15.687,-8.926,-8.926,-8.574,-2.724,16.277,6.614,2.303,12.434,7.802,-3.102,9.328,6.266,12.704,6.210,5.836
Fri Nov 22 19:44:31 2024,885,-15.597,-15.597,-8.916,-8.916,-8.582,-2.685,16.343,6.632,2.306,12.350,7.741,-3.112,9.340,6.270,12.659,6.187,5.764
Fri Nov 22 19:44:31 2024,890,-15.522,-15.522,-8.907,-8.907,-8.588,-2.652,16.398,6.649,2.308,12.279,7.690,-3.119,9.350,6.274,12.621,6.166,5.702
Fri Nov 22 19:44:31 2024,895,-15.485,-15.485,-8.903,-8.903,-8.592,-2.636,16.425,6.657,2.309,12.244,7.664,-3.123,9.355,6.275,12.601,6.156,5.672
Fri Nov 22 19:44:31 2024,900,-15.488,-15.488,-8.748,-8.748,-8.442,-2.810,15.750,6.357,2.227,12.224,7.613,-2.954,9.530,6.283,12.682,6.242,5.935
Fri Nov 22 19:44:31 2024,905,-15.414,-15.414,-8.802,-8.802,-8.467,-2.793,15.889,6.376,2.309,12.371,7.757,-3.009,9.472,6.300,12.740,6.238,5.975
Fri Nov 22 19:44:31 2024,910,-15.354,-15.354,-8.817,-8.817,-8.467,-2.796,15.905,6.356,2.353,12.448,7.833,-3.026,9.458,6.313,12.778,6.242,6.020
Fri Nov 22 19:44:31 2024,915,-15.358,-15.358,-8.817,-8.817,-8.485,-2.723,15.869,6.322,2.417,12.425,7.869,-2.999,9.365,6.306,12.869,6.145,6.020
Fri Nov 22 19:44:31 2024,920,-15.371,-15.371,-8.814,-8.814,-8.507,-2.636,15.818,6.286,2.487,12.388,7.901,-2.966,9.257,6.295,12.971,6.031,6.014
Fri Nov 22 19:44:31 2024,925,-15.352,-15.352,-8.768,-8.768,-8.470,-2.646,15.821,6.228,2.470,12.379,7.821,-2.895,9.378,6.286,12.868,6.130,5.959
Fri Nov 22 19:44:31 2024,930,-15.333,-15.333,-8.718,-8.718,-8.430,-2.657,15.824,6.168,2.451,12.371,7.736,-2.820,9.507,6.277,12.758,6.237,5.900
Fri Nov 22 19:44:31 2024,935,-15.336,-15.336,-8.714,-8.714,-8.463,-2.676,15.766,6.047,2.402,12.350,7.626,-2.846,9.416,6.144,12.615,6.297,5.701
Fri Nov 22 19:44:31 2024,940,-15.357,-15.357,-8.746,-8.746,-8.549,-2.698,15.667,5.897,2.337,12.322,7.511,-2.951,9.166,5.935,12.467,6.305,5.423
Fri Nov 22 19:44:31 2024,945,-15.375,-15.375,-8.774,-8.774,-8.624,-2.719,15.580,5.767,2.281,12.297,7.412,-3.043,8.948,5.755,12.337,6.307,5.183
Fri Nov 22 19:44:31 2024,950,-15.300,-15.300,-8.618,-8.618,-8.503,-2.706,15.665,5.952,2.267,12.158,7.390,-2.995,9.102,5.854,12.392,6.273,5.333
Fri Nov 22 19:44:31 2024,955,-15.247,-15.247,-8.507,-8.507,-8.422,-2.699,15.717,6.073,2.251,12.052,7.361,-2.971,9.189,5.905,12.415,6.248,5.414
Fri Nov 22 19:44:31 2024,960,-15.215,-15.215,-8.509,-8.509,-8.376,-2.732,15.667,6.038,2.220,12.184,7.460,-2.966,9.256,6.015,12.474,6.308,5.624
Fri Nov 22 19:44:31 2024,965,-15.184,-15.184,-8.535,-8.535,-8.334,-2.776,15.593,5.968,2.183,12.376,7.594,-2.964,9.323,6.144,12.543,6.385,5.878
Fri Nov 22 19:44:31 2024,970,-15.194,-15.194,-8.525,-8.525,-8.309,-2.764,15.646,5.957,2.226,12.552,7.710,-2.912,9.428,6.237,12.641,6.380,6.019
Fri Nov 22 19:44:31 2024,975,-15.290,-15.290,-8.433,-8.433,-8.320,-2.628,15.978,6.069,2.452,12.709,7.800,-2.745,9.627,6.261,12.816,6.212,5.937
Fri Nov 22 19:44:31 2024,980,-15.365,-15.365,-8.364,-8.364,-8.329,-2.525,16.226,6.155,2.621,12.809,7.862,-2.621,9.770,6.274,12.943,6.084,5.866
Fri Nov 22 19:44:31 2024,985,-15.346,-15.346,-8.503,-8.503,-8.448,-2.601,16.220,6.192,2.509,12.764,7.847,-2.732,9.845,6.346,12.878,6.176,5.947
Fri Nov 22 19:44:31 2024,990,-15.327,-15.327,-8.614,-8.614,-8.539,-2.665,16.199,6.216,2.412,12.721,7.831,-2.825,9.894,6.401,12.821,6.254,6.013
Fri Nov 22 19:44:31 2024,995,-15.306,-15.306,-8.741,-8.741,-8.642,-2.738,16.174,6.243,2.303,12.670,7.813,-2.930,9.947,6.464,12.755,6.343,6.089
Fri Nov 22 19:44:32 2024,0,-15.276,-15.276,-8.603,-8.603,-8.524,-2.606,16.294,6.090,2.429,12.605,7.730,-2.806,9.634,6.309,12.799,6.251,6.089
Fri Nov 22 19:44:32 2024,5,-15.250,-15.250,-8.550,-8.550,-8.477,-2.541,16.365,5.999,2.478,12.547,7.670,-2.758,9.443,6.227,12.808,6.217,6.111
Fri Nov 22 19:44:32 2024,10,-15.270,-15.270,-8.556,-8.556,-8.460,-2.593,16.282,5.971,2.440,12.612,7.638,-2.811,9.547,6.202,12.710,6.326,5.986
Fri Nov 22 19:44:32 2024,15,-15.282,-15.282,-8.554,-8.554,-8.439,-2.625,16.227,5.937,2.418,12.656,7.604,-2.846,9.602,6.171,12.636,6.406,5.892
Fri Nov 22 19:44:32 2024,20,-15.294,-15.294,-8.551,-8.551,-8.421,-2.655,16.175,5.906,2.397,12.696,7.572,-2.879,9.652,6.141,12.566,6.481,5.805
Fri Nov 22 19:44:32 2024,25,-15.402,-15.402,-8.519,-8.519,-8.480,-2.814,16.126,6.044,2.292,12.682,7.618,-2.992,9.408,6.095,12.530,6.380,5.779
Fri Nov 22 19:44:32 2024,30,-15.455,-15.455,-8.504,-8.504,-8.502,-2.896,16.086,6.099,2.238,12.688,7.630,-3.054,9.311,6.065,12.492,6.354,5.739
Fri Nov 22 19:44:32 2024,35,-15.499,-15.499,-8.542,-8.542,-8.492,-2.848,16.126,6.144,2.236,12.646,7.621,-3.000,9.423,6.095,12.505,6.375,5.726
Fri Nov 22 19:44:32 2024,40,-15.545,-15.545,-8.567,-8.567,-8.489,-2.830,16.148,6.189,2.222,12.616,7.617,-2.973,9.485,6.111,12.507,6.385,5.707
Fri Nov 22 19:44:32 2024,45,-15.497,-15.497,-8.632,-8.632,-8.507,-2.796,16.162,6.135,2.280,12.651,7.674,-2.988,9.406,6.146,12.533,6.368,5.794
Fri Nov 22 19:44:32 2024,50,-15.441,-15.441,-8.700,-8.700,-8.527,-2.761,16.176,6.073,2.343,12.690,7.735,-3.004,9.314,6.182,12.561,6.349,5.891
Fri Nov 22 19:44:32 2024,55,-15.391,-15.391,-8.760,-8.760,-8.544,-2.729,16.188,6.018,2.399,12.724,7.791,-3.020,9.233,6.214,12.587,6.332,5.978
Fri Nov 22 19:44:32 2024,60,-15.427,-15.427,-8.733,-8.733,-8.531,-2.682,16.255,6.099,2.434,12.735,7.860,-3.016,9.229,6.261,12.621,6.302,6.019
Fri Nov 22 19:44:32 2024,65,-15.646,-15.646,-8.527,-8.527,-8.451,-2.569,16.478,6.489,2.456,12.715,8.013,-2.976,9.363,6.376,12.697,6.225,6.011
Fri Nov 22 19:44:32 2024,70,-15.683,-15.683,-8.547,-8.547,-8.486,-2.564,16.573,6.576,2.502,12.759,8.050,-2.923,9.547,6.447,12.737,6.194,5.991
Fri Nov 22 19:44:32 2024,75,-15.684,-15.684,-8.626,-8.626,-8.563,-2.598,16.649,6.604,2.555,12.828,8.047,-2.847,9.817,6.516,12.771,6.174,5.941
Fri Nov 22 19:44:32 2024,80,-15.701,-15.701,-8.684,-8.684,-8.587,-2.633,16.648,6.657,2.558,12.849,8.107,-2.827,9.936,6.615,12.772,6.180,5.988
Fri Nov 22 19:44:32 2024,85,-15.742,-15.742,-8.728,-8.728,-8.506,-2.699,16.460,6.751,2.441,12.768,8.309,-2.925,9.744,6.801,12.690,6.253,6.263
Fri Nov 22 19:44:32 2024,90,-15.770,-15.770,-8.770,-8.770,-8.466,-2.746,16.350,6.820,2.375,12.724,8.442,-2.976,9.664,6.936,12.644,6.297,6.436
Fri Nov 22 19:44:32 2024,95,-15.895,-15.895,-8.692,-8.692,-8.535,-2.799,16.352,6.670,2.431,12.922,8.267,-3.026,9.555,6.633,12.660,6.265,6.148
Fri Nov 22 19:44:32 2024,100,-15.980,-15.980,-8.652,-8.652,-8.570,-2.842,16.331,6.589,2.455,13.037,8.184,-3.068,9.469,6.470,12.662,6.253,6.002
Fri Nov 22 19:44:32 2024,105,-15.997,-15.997,-8.663,-8.663,-8.541,-2.850,16.367,6.665,2.438,13.109,8.248,-3.076,9.572,6.538,12.677,6.288,6.091
Fri Nov 22 19:44:32 2024,110,-15.995,-15.995,-8.698,-8.698,-8.479,-2.848,16.436,6.825,2.399,13.193,8.389,-3.074,9.780,6.713,12.704,6.350,6.297
Fri Nov 22 19:44:32 2024,115,-16.000,-16.000,-8.715,-8.715,-8.444,-2.851,16.474,6.914,2.378,13.251,8.465,-3.078,9.896,6.803,12.720,6.384,6.408
Fri Nov 22 19:44:32 2024,120,-16.025,-16.025,-8.700,-8.700,-8.458,-2.894,16.331,6.777,2.414,13.225,8.422,-3.073,9.744,6.669,12.698,6.303,6.192
Fri Nov 22 19:44:32 2024,125,-16.056,-16.056,-8.677,-8.677,-8.483,-2.949,16.136,6.582,2.466,13.179,8.351,-3.067,9.523,6.476,12.665,6.187,5.890
Fri Nov 22 19:44:32 2024,130,-16.068,-16.068,-8.730,-8.730,-8.534,-2.971,16.173,6.617,2.490,13.298,8.375,-3.102,9.498,6.453,12.677,6.214,5.881
Fri Nov 22 19:44:32 2024,135,-16.077,-16.077,-8.826,-8.826,-8.614,-2.991,16.292,6.728,2.516,13.508,8.430,-3.162,9.512,6.462,12.705,6.293,5.946
Fri Nov 22 19:44:32 2024,140,-16.075,-16.075,-8.826,-8.826,-8.622,-2.988,16.349,6.798,2.530,13.604,8.506,-3.185,9.508,6.488,12.721,6.294,5.961
Fri Nov 22 19:44:32 2024,145,-16.040,-16.040,-8.675,-8.675,-8.517,-2.926,16.422,6.913,2.522,13.611,8.700,-3.168,9.534,6.615,12.739,6.204,5.988
Fri Nov 22 19:44:32 2024,150,-16.022,-16.022,-8.596,-8.596,-8.465,-2.892,16.476,6.995,2.522,13.643,8.824,-3.165,9.547,6.690,12.753,6.156,6.008
Fri Nov 22 19:44:32 2024,155,-15.950,-15.950,-8.764,-8.764,-8.548,-2.878,16.439,6.875,2.571,13.576,8.696,-3.151,9.589,6.631,12.655,6.246,5.877
Fri Nov 22 19:44:32 2024,160,-15.904,-15.904,-8.852,-8.852,-8.589,-2.864,16.425,6.817,2.601,13.542,8.640,-3.141,9.616,6.608,12.597,6.291,5.802
Fri Nov 22 19:44:32 2024,165,-15.924,-15.924,-8.881,-8.881,-8.582,-2.883,16.397,6.853,2.590,13.509,8.639,-3.127,9.575,6.594,12.611,6.297,5.812
Fri Nov 22 19:44:32 2024,170,-16.020,-16.020,-8.848,-8.848,-8.522,-2.942,16.352,6.999,2.532,13.477,8.700,-3.105,9.453,6.588,12.707,6.259,5.919
Fri Nov 22 19:44:32 2024,175,-16.075,-16.075,-8.843,-8.843,-8.490,-2.978,16.320,7.083,2.500,13.449,8.729,-3.089,9.378,6.581,12.757,6.241,5.974
Fri Nov 22 19:44:32 2024,180,-16.044,-16.044,-8.721,-8.721,-8.338,-2.996,16.054,6.952,2.447,13.064,8.491,-3.200,9.267,6.505,12.668,6.210,5.901
Fri Nov 22 19:44:32 2024,185,-16.040,-16.040,-8.650,-8.650,-8.242,-3.016,15.885,6.897,2.408,12.833,8.362,-3.259,9.184,6.459,12.629,6.185,5.873
Fri Nov 22 19:44:32 2024,190,-16.038,-16.038,-8.681,-8.681,-8.309,-2.924,16.169,7.028,2.472,13.045,8.508,-3.126,9.436,6.603,12.693,6.178,5.938
Fri Nov 22 19:44:32 2024,195,-16.036,-16.036,-8.704,-8.704,-8.363,-2.838,16.415,7.147,2.530,13.221,8.635,-3.004,9.668,6.737,12.752,6.166,5.998
Fri Nov 22 19:44:32 2024,200,-16.051,-16.051,-8.724,-8.724,-8.390,-2.820,16.457,7.174,2.533,13.232,8.657,-3.007,9.672,6.751,12.756,6.169,6.008
Fri Nov 22 19:44:32 2024,205,-16.112,-16.112,-8.748,-8.748,-8.374,-2.946,16.072,7.011,2.413,12.886,8.457,-3.290,9.167,6.500,12.641,6.206,5.916
Fri Nov 22 19:44:32 2024,210,-16.148,-16.148,-8.767,-8.767,-8.373,-3.006,15.881,6.936,2.352,12.708,8.361,-3.436,8.910,6.379,12.584,6.224,5.873
Fri Nov 22 19:44:32 2024,215,-16.168,-16.168,-8.714,-8.714,-8.373,-2.930,16.076,6.877,2.440,12.821,8.330,-3.282,9.133,6.425,12.673,6.179,5.848
Fri Nov 22 19:44:32 2024,220,-16.185,-16.185,-8.689,-8.689,-8.373,-2.899,16.150,6.832,2.478,12.851,8.296,-3.224,9.211,6.430,12.712,6.157,5.827
Fri Nov 22 19:44:32 2024,225,-16.201,-16.201,-8.665,-8.665,-8.373,-2.870,16.218,6.790,2.513,12.879,8.265,-3.169,9.284,6.434,12.749,6.137,5.807
Fri Nov 22 19:44:32 2024,230,-16.185,-16.185,-8.603,-8.603,-8.371,-2.929,16.221,6.916,2.376,12.877,8.244,-3.201,9.419,6.466,12.668,6.238,5.868
Fri Nov 22 19:44:32 2024,235,-16.184,-16.184,-8.570,-8.570,-8.369,-2.943,16.244,6.952,2.333,12.886,8.226,-3.196,9.498,6.480,12.648,6.272,5.886
Fri Nov 22 19:44:32 2024,240,-16.083,-16.083,-8.749,-8.749,-8.429,-2.863,16.297,6.863,2.452,12.856,8.199,-3.190,9.408,6.403,12.717,6.248,5.897
Fri Nov 22 19:44:32 2024,245,-16.029,-16.029,-8.836,-8.836,-8.461,-2.824,16.331,6.825,2.505,12.842,8.180,-3.186,9.380,6.366,12.749,6.244,5.907
Fri Nov 22 19:44:32 2024,250,-16.046,-16.046,-8.829,-8.829,-8.486,-2.860,16.219,6.764,2.534,12.902,8.171,-3.169,9.391,6.341,12.702,6.308,5.853
Fri Nov 22 19:44:32 2024,255,-16.056,-16.056,-8.826,-8.826,-8.506,-2.886,16.136,6.716,2.559,12.946,8.162,-3.155,9.398,6.320,12.668,6.357,5.812
Fri Nov 22 19:44:32 2024,260,-16.066,-16.066,-8.825,-8.825,-8.525,-2.910,16.054,6.670,2.582,12.988,8.155,-3.142,9.405,6.301,12.635,6.404,5.773
Fri Nov 22 19:44:32 2024,265,-16.092,-16.092,-8.773,-8.773,-8.498,-2.879,16.249,6.658,2.418,12.931,8.114,-3.212,9.487,6.335,12.602,6.395,5.845
Fri Nov 22 19:44:32 2024,270,-16.111,-16.111,-8.744,-8.744,-8.490,-2.872,16.325,6.634,2.335,12.914,8.088,-3.246,9.536,6.347,12.570,6.408,5.870
Fri Nov 22 19:44:32 2024,275,-16.050,-16.050,-8.740,-8.740,-8.543,-2.778,16.318,6.580,2.515,12.987,8.085,-3.187,9.466,6.255,12.623,6.320,5.681
Fri Nov 22 19:44:32 2024,280,-16.011,-16.011,-8.732,-8.732,-8.578,-2.711,16.325,6.538,2.625,13.031,8.078,-3.151,9.426,6.192,12.654,6.260,5.554
Fri Nov 22 19:44:32 2024,285,-16.014,-16.014,-8.751,-8.751,-8.622,-2.710,16.336,6.492,2.647,13.074,8.036,-3.142,9.407,6.118,12.652,6.260,5.498
Fri Nov 22 19:44:32 2024,290,-16.065,-16.065,-8.802,-8.802,-8.668,-2.793,16.349,6.450,2.555,13.111,7.958,-3.167,9.420,6.043,12.610,6.336,5.545
Fri Nov 22 19:44:32 2024,295,-16.093,-16.093,-8.837,-8.837,-8.709,-2.836,16.357,6.410,2.514,13.147,7.900,-3.177,9.420,5.975,12.587,6.375,5.548
Fri Nov 22 19:44:32 2024,300,-16.098,-16.098,-8.788,-8.788,-8.647,-2.862,16.335,6.411,2.502,13.259,7.976,-3.153,9.723,6.197,12.627,6.456,5.744
Fri Nov 22 19:44:32 2024,305,-16.107,-16.107,-8.770,-8.770,-8.624,-2.886,16.325,6.402,2.486,13.328,8.003,-3.143,9.886,6.301,12.643,6.506,5.851
Fri Nov 22 19:44:32 2024,310,-16.048,-16.048,-8.739,-8.739,-8.564,-2.855,16.321,6.404,2.566,13.253,7.995,-3.114,9.730,6.200,12.586,6.478,5.712
Fri Nov 22 19:44:32 2024,315,-16.005,-16.005,-8.714,-8.714,-8.517,-2.832,16.316,6.405,2.627,13.198,7.990,-3.092,9.617,6.127,12.543,6.457,5.612
Fri Nov 22 19:44:32 2024,320,-15.986,-15.986,-8.687,-8.687,-8.509,-2.835,16.288,6.375,2.637,13.259,8.032,-3.143,9.470,6.078,12.490,6.466,5.555
Fri Nov 22 19:44:32 2024,325,-15.980,-15.980,-8.666,-8.666,-8.518,-2.847,16.258,6.340,2.627,13.348,8.081,-3.210,9.344,6.048,12.446,6.484,5.529
Fri Nov 22 19:44:32 2024,330,-15.974,-15.974,-8.647,-8.647,-8.526,-2.858,16.229,6.308,2.618,13.430,8.126,-3.272,9.228,6.022,12.405,6.500,5.504
Fri Nov 22 19:44:32 2024,335,-16.037,-16.037,-8.724,-8.724,-8.549,-2.817,16.397,6.398,2.672,13.364,8.104,-3.197,9.437,6.071,12.600,6.399,5.559
Fri Nov 22 19:44:32 2024,340,-16.072,-16.072,-8.764,-8.764,-8.563,-2.797,16.482,6.443,2.700,13.343,8.100,-3.166,9.531,6.094,12.700,6.345,5.585
Fri Nov 22 19:44:32 2024,345,-16.084,-16.084,-8.775,-8.775,-8.579,-2.864,16.397,6.439,2.610,13.275,8.068,-3.194,9.498,6.133,12.678,6.375,5.689
Fri Nov 22 19:44:32 2024,350,-16.091,-16.091,-8.778,-8.778,-8.594,-2.938,16.293,6.426,2.511,13.207,8.036,-3.229,9.444,6.170,12.635,6.417,5.791
Fri Nov 22 19:44:32 2024,355,-16.097,-16.097,-8.782,-8.782,-8.606,-3.003,16.201,6.415,2.425,13.144,8.008,-3.260,9.397,6.202,12.597,6.454,5.881
Fri Nov 22 19:44:32 2024,360,-16.076,-16.076,-8.725,-8.725,-8.555,-2.782,16.419,6.392,2.558,13.016,7.894,-3.183,9.446,6.070,12.555,6.360,5.537
Fri Nov 22 19:44:32 2024,365,-16.065,-16.065,-8.692,-8.692,-8.529,-2.671,16.520,6.376,2.610,12.918,7.817,-3.147,9.460,6.002,12.517,6.312,5.360
Fri Nov 22 19:44:32 2024,370,-16.059,-16.059,-8.796,-8.796,-8.599,-2.716,16.426,6.362,2.576,12.904,7.842,-3.182,9.423,6.054,12.541,6.366,5.488
Fri Nov 22 19:44:32 2024,375,-16.053,-16.053,-8.880,-8.880,-8.656,-2.741,16.357,6.351,2.554,12.883,7.856,-3.206,9.393,6.091,12.557,6.405,5.576
Fri Nov 22 19:44:32 2024,380,-16.023,-16.023,-8.860,-8.860,-8.631,-2.716,16.379,6.411,2.601,12.896,7.908,-3.167,9.411,6.142,12.605,6.367,5.637
Fri Nov 22 19:44:32 2024,385,-15.986,-15.986,-8.810,-8.810,-8.582,-2.677,16.426,6.493,2.669,12.917,7.972,-3.110,9.442,6.199,12.665,6.305,5.691
Fri Nov 22 19:44:32 2024,390,-15.953,-15.953,-8.767,-8.767,-8.539,-2.642,16.467,6.565,2.729,12.936,8.028,-3.060,9.470,6.248,12.717,6.252,5.739
Fri Nov 22 19:44:32 2024,395,-15.925,-15.925,-8.819,-8.819,-8.529,-2.723,16.286,6.458,2.593,12.794,8.059,-3.171,9.173,6.228,12.655,6.305,5.822
Fri Nov 22 19:44:32 2024,400,-15.904,-15.904,-8.841,-8.841,-8.516,-2.763,16.188,6.408,2.524,12.713,8.086,-3.227,9.007,6.224,12.628,6.326,5.877
Fri Nov 22 19:44:32 2024,405,-15.926,-15.926,-8.904,-8.904,-8.582,-2.786,16.203,6.404,2.488,12.709,7.998,-3.230,9.108,6.193,12.610,6.331,5.837
Fri Nov 22 19:44:32 2024,410,-15.955,-15.955,-8.970,-8.970,-8.660,-2.806,16.241,6.410,2.461,12.721,7.892,-3.220,9.260,6.158,12.595,6.332,5.780
Fri Nov 22 19:44:32 2024,415,-15.952,-15.952,-8.972,-8.972,-8.676,-2.808,16.245,6.380,2.464,12.705,7.814,-3.182,9.376,6.150,12.584,6.341,5.746
Fri Nov 22 19:44:32 2024,420,-15.882,-15.882,-8.847,-8.847,-8.580,-2.775,16.184,6.262,2.530,12.622,7.743,-3.060,9.499,6.191,12.574,6.367,5.736
Fri Nov 22 19:44:32 2024,425,-15.843,-15.843,-8.777,-8.777,-8.528,-2.756,16.150,6.190,2.568,12.572,7.690,-2.986,9.588,6.212,12.566,6.384,5.726
Fri Nov 22 19:44:32 2024,430,-15.942,-15.942,-8.758,-8.758,-8.582,-2.686,16.326,6.291,2.596,12.651,7.767,-2.970,9.533,6.178,12.638,6.246,5.630
Fri Nov 22 19:44:32 2024,435,-16.015,-16.015,-8.738,-8.738,-8.620,-2.629,16.457,6.361,2.621,12.706,7.820,-2.952,9.499,6.153,12.693,6.142,5.556
Fri Nov 22 19:44:32 2024,440,-16.020,-16.020,-8.784,-8.784,-8.643,-2.685,16.440,6.346,2.562,12.694,7.769,-3.001,9.480,6.134,12.651,6.213,5.586
Fri Nov 22 19:44:32 2024,445,-15.998,-15.998,-8.845,-8.845,-8.656,-2.770,16.371,6.302,2.486,12.658,7.691,-3.064,9.471,6.122,12.582,6.332,5.646
Fri Nov 22 19:44:32 2024,450,-15.979,-15.979,-8.900,-8.900,-8.667,-2.847,16.308,6.263,2.415,12.624,7.619,-3.122,9.462,6.110,12.519,6.441,5.702
Fri Nov 22 19:44:32 2024,455,-15.965,-15.965,-8.939,-8.939,-8.674,-2.902,16.262,6.235,2.366,12.599,7.569,-3.164,9.456,6.102,12.474,6.518,5.742
Fri Nov 22 19:44:32 2024,460,-15.833,-15.833,-8.833,-8.833,-8.649,-2.733,16.326,6.237,2.463,12.523,7.643,-2.964,9.582,6.191,12.608,6.334,5.680
Fri Nov 22 19:44:32 2024,465,-15.832,-15.832,-8.810,-8.810,-8.647,-2.706,16.345,6.160,2.518,12.547,7.576,-2.955,9.505,6.088,12.626,6.317,5.638
Fri Nov 22 19:44:32 2024,470,-15.841,-15.841,-8.788,-8.788,-8.647,-2.684,16.366,6.077,2.577,12.580,7.502,-2.955,9.413,5.970,12.642,6.304,5.592
Fri Nov 22 19:44:32 2024,475,-15.833,-15.833,-8.773,-8.773,-8.626,-2.676,16.367,6.094,2.553,12.548,7.519,-2.971,9.374,5.970,12.621,6.305,5.586
Fri Nov 22 19:44:32 2024,480,-15.818,-15.818,-8.765,-8.765,-8.601,-2.678,16.357,6.158,2.494,12.491,7.579,-2.991,9.374,6.032,12.589,6.312,5.602
Fri Nov 22 19:44:32 2024,485,-15.801,-15.801,-8.755,-8.755,-8.571,-2.682,16.345,6.233,2.425,12.423,7.648,-3.013,9.374,6.104,12.552,6.320,5.621
Fri Nov 22 19:44:32 2024,490,-15.789,-15.789,-8.748,-8.748,-8.551,-2.684,16.337,6.283,2.378,12.376,7.695,-3.028,9.374,6.152,12.526,6.325,5.633
Fri Nov 22 19:44:32 2024,495,-15.784,-15.784,-8.745,-8.745,-8.541,-2.684,16.334,6.306,2.357,12.354,7.716,-3.035,9.374,6.175,12.515,6.328,5.639
Fri Nov 22 19:44:32 2024,500,-15.781,-15.781,-8.743,-8.743,-8.538,-2.684,16.333,6.312,2.351,12.348,7.722,-3.037,9.375,6.181,12.511,6.328,5.641
Fri Nov 22 19:44:32 2024,505,-15.780,-15.780,-8.743,-8.743,-8.537,-2.684,16.333,6.313,2.350,12.348,7.723,-3.038,9.375,6.181,12.511,6.328,5.641
Fri Nov 22 19:44:32 2024,510,-15.924,-15.924,-8.650,-8.650,-8.536,-2.802,16.317,6.348,2.359,12.501,7.552,-3.085,9.590,6.163,12.541,6.375,5.760
Fri Nov 22 19:44:32 2024,515,-15.955,-15.955,-8.732,-8.732,-8.552,-2.748,16.382,6.383,2.390,12.482,7.632,-3.084,9.504,6.179,12.545,6.366,5.736
Fri Nov 22 19:44:32 2024,520,-15.981,-15.981,-8.804,-8.804,-8.565,-2.701,16.440,6.413,2.418,12.466,7.703,-3.082,9.428,6.191,12.548,6.358,5.713
Fri Nov 22 19:44:32 2024,525,-15.912,-15.912,-8.777,-8.777,-8.563,-2.755,16.328,6.290,2.398,12.531,7.675,-3.131,9.403,6.169,12.558,6.368,5.743
Fri Nov 22 19:44:32 2024,530,-15.850,-15.850,-8.749,-8.749,-8.560,-2.805,16.224,6.180,2.380,12.589,7.646,-3.174,9.386,6.148,12.566,6.377,5.772
Fri Nov 22 19:44:32 2024,535,-15.792,-15.792,-8.722,-8.722,-8.556,-2.852,16.127,6.076,2.361,12.644,7.618,-3.214,9.369,6.129,12.574,6.386,5.798
Fri Nov 22 19:44:32 2024,540,-15.889,-15.889,-8.767,-8.767,-8.624,-2.804,16.337,6.190,2.407,12.752,7.679,-3.126,9.670,6.192,12.556,6.446,5.728
Fri Nov 22 19:44:32 2024,545,-15.938,-15.938,-8.789,-8.789,-8.669,-2.784,16.446,6.236,2.432,12.840,7.712,-3.078,9.867,6.229,12.547,6.488,5.688
Fri Nov 22 19:44:32 2024,550,-15.901,-15.901,-8.726,-8.726,-8.606,-2.811,16.476,6.284,2.414,12.872,7.758,-3.058,9.892,6.290,12.631,6.432,5.826
Fri Nov 22 19:44:32 2024,555,-15.871,-15.871,-8.667,-8.667,-8.549,-2.836,16.509,6.333,2.399,12.910,7.804,-3.036,9.929,6.350,12.710,6.382,5.955
Fri Nov 22 19:44:32 2024,560,-15.849,-15.849,-8.626,-8.626,-8.508,-2.854,16.531,6.368,2.388,12.937,7.838,-3.020,9.957,6.393,12.766,6.345,6.048
Fri Nov 22 19:44:32 2024,565,-15.887,-15.887,-8.713,-8.713,-8.598,-2.908,16.449,6.223,2.418,13.172,7.910,-3.019,9.947,6.352,12.711,6.442,5.969
Fri Nov 22 19:44:32 2024,570,-15.898,-15.898,-8.743,-8.743,-8.629,-2.942,16.416,6.164,2.428,13.298,7.958,-3.012,9.952,6.345,12.703,6.478,5.962
Fri Nov 22 19:44:32 2024,575,-15.832,-15.832,-8.786,-8.786,-8.662,-2.838,16.520,6.171,2.518,13.212,7.919,-3.010,9.923,6.291,12.674,6.528,5.974
Fri Nov 22 19:44:32 2024,580,-15.774,-15.774,-8.831,-8.831,-8.697,-2.750,16.609,6.169,2.601,13.153,7.892,-3.006,9.896,6.241,12.645,6.580,5.984
Fri Nov 22 19:44:32 2024,585,-15.737,-15.737,-8.858,-8.858,-8.719,-2.695,16.664,6.168,2.653,13.116,7.876,-3.004,9.880,6.209,12.628,6.612,5.990
Fri Nov 22 19:44:32 2024,590,-15.860,-15.860,-8.878,-8.878,-8.768,-2.798,16.498,6.127,2.563,13.185,7.905,-3.042,9.683,6.185,12.563,6.616,5.863
Fri Nov 22 19:44:32 2024,595,-15.898,-15.898,-8.898,-8.898,-8.797,-2.820,16.449,6.110,2.545,13.199,7.911,-3.057,9.592,6.162,12.529,6.631,5.812
Fri Nov 22 19:44:32 2024,600,-15.829,-15.829,-8.805,-8.805,-8.659,-2.773,16.455,6.207,2.575,13.216,8.007,-3.032,9.822,6.302,12.582,6.560,5.801
Fri Nov 22 19:44:32 2024,605,-15.800,-15.800,-8.760,-8.760,-8.592,-2.753,16.449,6.255,2.588,13.227,8.058,-3.021,9.925,6.371,12.603,6.526,5.785
Fri Nov 22 19:44:32 2024,610,-15.871,-15.871,-8.789,-8.789,-8.688,-2.711,16.667,6.280,2.638,13.248,7.932,-2.989,9.922,6.239,12.602,6.540,5.745
Fri Nov 22 19:44:32 2024,615,-15.930,-15.930,-8.812,-8.812,-8.766,-2.675,16.837,6.301,2.679,13.264,7.829,-2.961,9.920,6.131,12.603,6.551,5.712
Fri Nov 22 19:44:32 2024,620,-15.972,-15.972,-8.829,-8.829,-8.822,-2.650,16.950,6.315,2.708,13.276,7.756,-2.942,9.919,6.055,12.603,6.559,5.688
Fri Nov 22 19:44:32 2024,625,-15.897,-15.897,-8.836,-8.836,-8.722,-2.755,16.632,6.214,2.565,13.073,7.829,-2.963,9.864,6.217,12.645,6.546,5.878
Fri Nov 22 19:44:32 2024,630,-15.877,-15.877,-8.845,-8.845,-8.695,-2.794,16.522,6.174,2.511,12.985,7.838,-2.966,9.839,6.265,12.664,6.543,5.955
Fri Nov 22 19:44:32 2024,635,-15.891,-15.891,-8.798,-8.798,-8.628,-2.795,16.478,6.207,2.494,12.915,7.813,-3.023,9.814,6.275,12.605,6.552,5.862
Fri Nov 22 19:44:32 2024,640,-15.898,-15.898,-8.771,-8.771,-8.585,-2.801,16.437,6.221,2.477,12.862,7.799,-3.058,9.796,6.286,12.572,6.556,5.817
Fri Nov 22 19:44:32 2024,645,-15.905,-15.905,-8.746,-8.746,-8.544,-2.806,16.398,6.236,2.460,12.812,7.786,-3.091,9.778,6.297,12.541,6.560,5.774
Fri Nov 22 19:44:32 2024,650,-15.764,-15.764,-8.861,-8.861,-8.699,-2.639,16.619,6.196,2.619,12.901,7.882,-2.910,9.775,6.327,12.646,6.490,5.823
Fri Nov 22 19:44:32 2024,655,-15.743,-15.743,-8.846,-8.846,-8.693,-2.646,16.571,6.193,2.634,12.913,7.913,-2.872,9.780,6.334,12.634,6.496,5.820
Fri Nov 22 19:44:32 2024,660,-15.767,-15.767,-8.771,-8.771,-8.623,-2.736,16.386,6.201,2.596,12.915,7.932,-2.873,9.798,6.328,12.573,6.540,5.807
Fri Nov 22 19:44:32 2024,665,-15.789,-15.789,-8.701,-8.701,-8.557,-2.822,16.209,6.207,2.560,12.916,7.951,-2.874,9.814,6.322,12.514,6.581,5.795
Fri Nov 22 19:44:32 2024,670,-15.770,-15.770,-8.754,-8.754,-8.622,-2.777,16.321,6.140,2.619,12.906,7.861,-2.867,9.783,6.262,12.545,6.563,5.820
Fri Nov 22 19:44:32 2024,675,-15.753,-15.753,-8.799,-8.799,-8.679,-2.741,16.412,6.074,2.673,12.896,7.775,-2.860,9.753,6.202,12.570,6.549,5.844
Fri Nov 22 19:44:32 2024,680,-15.777,-15.777,-8.841,-8.841,-8.707,-2.759,16.430,6.084,2.637,12.870,7.769,-2.840,9.781,6.227,12.617,6.523,5.830
Fri Nov 22 19:44:32 2024,685,-15.822,-15.822,-8.892,-8.892,-8.732,-2.800,16.425,6.124,2.560,12.833,7.789,-2.812,9.837,6.288,12.684,6.485,5.800
Fri Nov 22 19:44:32 2024,690,-15.862,-15.862,-8.938,-8.938,-8.754,-2.836,16.418,6.160,2.490,12.797,7.808,-2.786,9.888,6.344,12.744,6.451,5.771
Fri Nov 22 19:44:32 2024,695,-15.861,-15.861,-8.879,-8.879,-8.727,-2.777,16.398,6.053,2.524,12.871,7.745,-2.902,9.736,6.179,12.624,6.521,5.680
Fri Nov 22 19:44:32 2024,700,-15.869,-15.869,-8.843,-8.843,-8.710,-2.739,16.377,5.976,2.537,12.922,7.700,-2.989,9.628,6.060,12.542,6.567,5.603
Fri Nov 22 19:44:32 2024,705,-15.819,-15.819,-8.817,-8.817,-8.669,-2.709,16.402,5.956,2.567,12.802,7.648,-2.927,9.667,6.072,12.570,6.538,5.645
Fri Nov 22 19:44:32 2024,710,-15.774,-15.774,-8.798,-8.798,-8.635,-2.686,16.426,5.946,2.594,12.689,7.607,-2.863,9.714,6.095,12.604,6.507,5.690
Fri Nov 22 19:44:32 2024,715,-15.733,-15.733,-8.781,-8.781,-8.604,-2.666,16.447,5.937,2.617,12.586,7.569,-2.805,9.756,6.116,12.634,6.479,5.732
Fri Nov 22 19:44:32 2024,720,-15.821,-15.821,-8.856,-8.856,-8.687,-2.700,16.416,5.968,2.635,12.767,7.664,-2.901,9.760,6.118,12.589,6.548,5.669
Fri Nov 22 19:44:32 2024,725,-15.873,-15.873,-8.903,-8.903,-8.737,-2.719,16.400,5.988,2.654,12.865,7.720,-2.953,9.774,6.126,12.565,6.589,5.637
Fri Nov 22 19:44:32 2024,730,-15.815,-15.815,-8.839,-8.839,-8.725,-2.796,16.358,6.019,2.581,12.919,7.714,-2.901,9.941,6.192,12.558,6.634,5.700
Fri Nov 22 19:44:32 2024,735,-15.774,-15.774,-8.791,-8.791,-8.721,-2.861,16.322,6.046,2.524,12.971,7.715,-2.866,10.076,6.247,12.550,6.673,5.748
Fri Nov 22 19:44:32 2024,740,-15.735,-15.735,-8.745,-8.745,-8.716,-2.923,16.286,6.073,2.467,13.022,7.715,-2.831,10.209,6.300,12.542,6.712,5.794
Fri Nov 22 19:44:32 2024,745,-15.712,-15.712,-8.887,-8.887,-8.771,-2.670,16.455,5.938,2.645,12.858,7.577,-2.869,9.873,6.036,12.458,6.639,5.548
Fri Nov 22 19:44:32 2024,750,-15.686,-15.686,-8.953,-8.953,-8.800,-2.546,16.534,5.870,2.727,12.780,7.500,-2.880,9.726,5.903,12.407,6.606,5.424
Fri Nov 22 19:44:32 2024,755,-15.721,-15.721,-8.835,-8.835,-8.740,-2.668,16.461,5.934,2.633,12.950,7.556,-2.931,9.736,5.916,12.448,6.645,5.474
Fri Nov 22 19:44:32 2024,760,-15.741,-15.741,-8.766,-8.766,-8.705,-2.731,16.423,5.966,2.584,13.051,7.581,-2.966,9.720,5.904,12.468,6.664,5.488
Fri Nov 22 19:44:32 2024,765,-15.759,-15.759,-8.705,-8.705,-8.674,-2.786,16.389,5.994,2.540,13.141,7.604,-2.997,9.705,5.893,12.485,6.681,5.500
Fri Nov 22 19:44:32 2024,770,-15.844,-15.844,-8.800,-8.800,-8.735,-2.806,16.331,5.845,2.500,13.083,7.569,-3.066,9.585,5.810,12.392,6.724,5.447
Fri Nov 22 19:44:32 2024,775,-15.883,-15.883,-8.818,-8.818,-8.749,-2.830,16.299,5.797,2.471,13.088,7.562,-3.102,9.535,5.775,12.361,6.745,5.430
Fri Nov 22 19:44:32 2024,780,-15.894,-15.894,-8.748,-8.748,-8.703,-2.821,16.399,6.033,2.448,13.003,7.649,-2.983,9.760,5.959,12.385,6.726,5.472
Fri Nov 22 19:44:32 2024,785,-15.908,-15.908,-8.717,-8.717,-8.683,-2.823,16.441,6.142,2.429,12.960,7.692,-2.931,9.863,6.045,12.390,6.722,5.490
Fri Nov 22 19:44:32 2024,790,-15.909,-15.909,-8.646,-8.646,-8.589,-2.827,16.360,6.071,2.475,12.880,7.655,-2.905,9.757,6.028,12.439,6.688,5.568
Fri Nov 22 19:44:32 2024,795,-15.910,-15.910,-8.596,-8.596,-8.523,-2.830,16.301,6.020,2.508,12.823,7.628,-2.886,9.681,6.016,12.474,6.664,5.624
Fri Nov 22 19:44:32 2024,800,-15.910,-15.910,-8.555,-8.555,-8.467,-2.833,16.251,5.978,2.536,12.776,7.605,-2.871,9.618,6.006,12.503,6.644,5.671
Fri Nov 22 19:44:32 2024,805,-15.974,-15.974,-8.616,-8.616,-8.599,-2.674,16.680,6.125,2.582,12.907,7.551,-2.913,9.828,6.014,12.527,6.621,5.609
Fri Nov 22 19:44:32 2024,810,-16.020,-16.020,-8.599,-8.599,-8.594,-2.678,16.748,6.183,2.570,12.960,7.574,-2.934,9.889,6.042,12.514,6.640,5.623
Fri Nov 22 19:44:32 2024,815,-16.096,-16.096,-8.529,-8.529,-8.511,-2.800,16.664,6.255,2.494,13.034,7.685,-2.967,9.935,6.115,12.450,6.713,5.682
Fri Nov 22 19:44:32 2024,820,-16.173,-16.173,-8.455,-8.455,-8.420,-2.934,16.553,6.323,2.411,13.106,7.803,-3.001,9.973,6.192,12.381,6.791,5.746
Fri Nov 22 19:44:32 2024,825,-16.234,-16.234,-8.395,-8.395,-8.347,-3.043,16.462,6.378,2.344,13.163,7.899,-3.028,10.004,6.253,12.325,6.854,5.798
Fri Nov 22 19:44:32 2024,830,-16.185,-16.185,-8.488,-8.488,-8.425,-2.954,16.449,6.289,2.412,13.142,7.844,-3.059,9.981,6.253,12.443,6.773,5.847
Fri Nov 22 19:44:32 2024,835,-16.186,-16.186,-8.506,-8.506,-8.432,-2.955,16.411,6.270,2.418,13.153,7.854,-3.081,9.983,6.274,12.473,6.760,5.886
Fri Nov 22 19:44:32 2024,840,-16.294,-16.294,-8.602,-8.602,-8.509,-2.906,16.554,6.377,2.450,13.309,8.012,-3.114,9.909,6.258,12.499,6.697,5.776
Fri Nov 22 19:44:32 2024,845,-16.356,-16.356,-8.659,-8.659,-8.554,-2.877,16.629,6.436,2.470,13.398,8.105,-3.136,9.868,6.252,12.517,6.659,5.719
Fri Nov 22 19:44:32 2024,850,-16.317,-16.317,-8.591,-8.591,-8.486,-2.843,16.585,6.452,2.492,13.197,8.060,-3.122,9.776,6.280,12.464,6.680,5.811
Fri Nov 22 19:44:32 2024,855,-16.292,-16.292,-8.543,-8.543,-8.437,-2.816,16.552,6.466,2.510,13.051,8.032,-3.114,9.708,6.301,12.426,6.694,5.878
Fri Nov 22 19:44:32 2024,860,-16.340,-16.340,-8.534,-8.534,-8.446,-2.807,16.577,6.511,2.527,13.064,8.079,-3.080,9.792,6.374,12.498,6.635,5.910
Fri Nov 22 19:44:32 2024,865,-16.414,-16.414,-8.542,-8.542,-8.478,-2.806,16.622,6.563,2.542,13.140,8.152,-3.040,9.932,6.462,12.608,6.552,5.925
Fri Nov 22 19:44:32 2024,870,-16.484,-16.484,-8.550,-8.550,-8.508,-2.804,16.663,6.613,2.557,13.212,8.221,-3.002,10.061,6.544,12.710,6.473,5.940
Fri Nov 22 19:44:32 2024,875,-16.508,-16.508,-8.590,-8.590,-8.524,-2.792,16.708,6.663,2.563,13.302,8.285,-2.953,10.093,6.526,12.689,6.450,5.848
Fri Nov 22 19:44:32 2024,880,-16.541,-16.541,-8.624,-8.624,-8.542,-2.782,16.752,6.714,2.570,13.391,8.352,-2.906,10.144,6.527,12.690,6.415,5.774
Fri Nov 22 19:44:32 2024,885,-16.643,-16.643,-8.623,-8.623,-8.508,-2.785,16.780,6.826,2.620,13.419,8.461,-2.898,10.100,6.605,12.699,6.420,5.830
Fri Nov 22 19:44:32 2024,890,-16.791,-16.791,-8.608,-8.608,-8.446,-2.796,16.807,6.980,2.694,13.429,8.606,-2.904,10.010,6.729,12.713,6.442,5.949
Fri Nov 22 19:44:32 2024,895,-16.872,-16.872,-8.642,-8.642,-8.463,-2.799,16.845,7.030,2.716,13.519,8.684,-2.915,9.963,6.751,12.767,6.423,6.002
Fri Nov 22 19:44:32 2024,900,-16.897,-16.897,-8.738,-8.738,-8.575,-2.797,16.905,6.966,2.682,13.723,8.705,-2.939,9.940,6.665,12.886,6.354,6.008
Fri Nov 22 19:44:32 2024,905,-16.920,-16.920,-8.829,-8.829,-8.681,-2.795,16.957,6.904,2.649,13.917,8.722,-2.963,9.918,6.582,13.000,6.286,6.012
Fri Nov 22 19:44:32 2024,910,-16.906,-16.906,-8.737,-8.737,-8.594,-2.849,16.896,6.896,2.633,13.854,8.689,-2.970,9.921,6.588,12.910,6.355,6.020
Fri Nov 22 19:44:32 2024,915,-16.897,-16.897,-8.667,-8.667,-8.530,-2.894,16.847,6.883,2.617,13.817,8.661,-2.979,9.921,6.585,12.844,6.406,6.026
Fri Nov 22 19:44:32 2024,920,-16.911,-16.911,-8.629,-8.629,-8.481,-2.939,16.795,6.899,2.600,13.822,8.709,-2.998,9.927,6.632,12.783,6.456,6.055
Fri Nov 22 19:44:32 2024,925,-17.004,-17.004,-8.699,-8.699,-8.487,-2.978,16.736,7.002,2.582,13.963,9.001,-3.050,9.951,6.834,12.746,6.497,6.156
Fri Nov 22 19:44:32 2024,930,-17.055,-17.055,-8.727,-8.727,-8.480,-3.007,16.694,7.058,2.569,14.036,9.160,-3.080,9.964,6.946,12.714,6.528,6.214
Fri Nov 22 19:44:32 2024,935,-17.135,-17.135,-8.718,-8.718,-8.519,-2.935,16.801,6.949,2.619,14.019,9.018,-3.049,9.942,6.766,12.665,6.496,5.922
Fri Nov 22 19:44:32 2024,940,-17.212,-17.212,-8.717,-8.717,-8.549,-2.882,16.877,6.874,2.657,14.022,8.939,-3.031,9.927,6.646,12.617,6.475,5.699
Fri Nov 22 19:44:32 2024,945,-17.234,-17.234,-8.678,-8.678,-8.463,-2.915,16.813,6.894,2.649,13.927,8.956,-3.038,9.846,6.679,12.620,6.451,5.720
Fri Nov 22 19:44:32 2024,950,-17.248,-17.248,-8.630,-8.630,-8.351,-2.966,16.714,6.935,2.632,13.810,8.994,-3.052,9.751,6.746,12.635,6.426,5.793
Fri Nov 22 19:44:32 2024,955,-17.258,-17.258,-8.597,-8.597,-8.273,-3.001,16.644,6.964,2.620,13.726,9.020,-3.061,9.684,6.793,12.646,6.408,5.845
Fri Nov 22 19:44:32 2024,960,-17.377,-17.377,-8.506,-8.506,-8.263,-2.925,16.741,6.942,2.697,13.828,9.009,-3.028,9.748,6.780,12.675,6.428,5.945
Fri Nov 22 19:44:32 2024,965,-17.464,-17.464,-8.432,-8.432,-8.232,-2.883,16.785,6.936,2.747,13.871,9.010,-3.008,9.771,6.785,12.698,6.435,6.032
Fri Nov 22 19:44:32 2024,970,-17.528,-17.528,-8.378,-8.378,-8.210,-2.853,16.819,6.932,2.784,13.902,9.011,-2.994,9.788,6.790,12.716,6.440,6.096
Fri Nov 22 19:44:32 2024,975,-17.615,-17.615,-8.362,-8.362,-8.154,-3.020,16.676,7.190,2.557,13.706,9.010,-2.902,10.004,6.932,12.785,6.293,5.885
Fri Nov 22 19:44:32 2024,980,-17.675,-17.675,-8.335,-8.335,-8.124,-3.072,16.635,7.285,2.486,13.641,9.010,-2.863,10.093,6.986,12.818,6.240,5.832
Fri Nov 22 19:44:32 2024,985,-17.777,-17.777,-8.381,-8.381,-8.173,-3.013,16.771,7.155,2.545,13.868,9.010,-2.905,10.030,6.880,12.711,6.392,5.940
Fri Nov 22 19:44:32 2024,990,-17.849,-17.849,-8.397,-8.397,-8.190,-2.998,16.825,7.114,2.555,13.968,9.010,-2.915,10.023,6.839,12.665,6.455,5.982
Fri Nov 22 19:44:32 2024,995,-17.908,-17.908,-8.329,-8.329,-8.138,-3.011,16.658,7.134,2.484,13.717,8.978,-3.020,9.670,6.771,12.498,6.387,5.727
Fri Nov 22 19:44:33 2024,0,-17.960,-17.960,-8.285,-8.285,-8.105,-3.019,16.533,7.142,2.438,13.563,8.957,-3.094,9.432,6.719,12.379,6.338,5.565
Fri Nov 22 19:44:33 2024,5,-18.007,-18.007,-8.246,-8.246,-8.075,-3.028,16.407,7.148,2.395,13.421,8.938,-3.161,9.216,6.672,12.268,6.286,5.418
Fri Nov 22 19:44:33 2024,10,-18.039,-18.039,-8.349,-8.349,-8.186,-3.029,16.511,6.933,2.420,13.609,8.878,-3.213,9.070,6.472,12.285,6.399,5.420
Fri Nov 22 19:44:33 2024,15,-18.073,-18.073,-8.384,-8.384,-8.228,-3.033,16.515,6.834,2.416,13.647,8.843,-3.262,8.924,6.361,12.254,6.433,5.368
Fri Nov 22 19:44:33 2024,20,-18.054,-18.054,-8.324,-8.324,-8.138,-3.060,16.487,6.945,2.445,13.616,8.921,-3.231,8.940,6.450,12.316,6.386,5.464
Fri Nov 22 19:44:33 2024,25,-18.024,-18.024,-8.240,-8.240,-8.012,-3.095,16.451,7.110,2.484,13.569,9.030,-3.181,8.992,6.587,12.403,6.319,5.598
Fri Nov 22 19:44:33 2024,30,-18.032,-18.032,-8.171,-8.171,-8.024,-3.114,16.401,7.057,2.497,13.572,9.000,-3.205,8.951,6.541,12.379,6.291,5.560
Fri Nov 22 19:44:33 2024,35,-18.038,-18.038,-8.109,-8.109,-8.029,-3.133,16.355,7.017,2.510,13.575,8.978,-3.223,8.916,6.506,12.362,6.263,5.533
Fri Nov 22 19:44:33 2024,40,-18.044,-18.044,-8.056,-8.056,-8.033,-3.149,16.317,6.985,2.521,13.576,8.960,-3.239,8.886,6.477,12.347,6.240,5.511
Fri Nov 22 19:44:33 2024,45,-18.202,-18.202,-8.015,-8.015,-7.971,-3.267,16.155,6.925,2.353,13.585,8.896,-3.287,8.806,6.420,12.206,6.320,5.367
Fri Nov 22 19:44:33 2024,50,-18.274,-18.274,-7.982,-7.982,-7.945,-3.324,16.073,6.890,2.282,13.588,8.864,-3.314,8.762,6.387,12.140,6.347,5.298
Fri Nov 22 19:44:33 2024,55,-18.280,-18.280,-7.970,-7.970,-7.850,-3.296,16.094,6.940,2.312,13.609,8.918,-3.244,8.775,6.479,12.224,6.343,5.482
Fri Nov 22 19:44:33 2024,60,-18.296,-18.296,-7.957,-7.957,-7.783,-3.287,16.094,6.968,2.319,13.623,8.949,-3.202,8.776,6.534,12.269,6.343,5.593
Fri Nov 22 19:44:33 2024,65,-18.318,-18.318,-7.910,-7.910,-7.784,-3.298,16.000,6.970,2.316,13.527,8.893,-3.229,8.694,6.501,12.256,6.264,5.538
Fri Nov 22 19:44:33 2024,70,-18.337,-18.337,-7.869,-7.869,-7.792,-3.310,15.911,6.969,2.313,13.439,8.840,-3.257,8.619,6.465,12.238,6.191,5.477
Fri Nov 22 19:44:33 2024,75,-18.384,-18.384,-7.829,-7.829,-7.776,-3.322,15.876,7.023,2.299,13.398,8.880,-3.235,8.666,6.536,12.268,6.136,5.501
Fri Nov 22 19:44:33 2024,80,-18.459,-18.459,-7.799,-7.799,-7.730,-3.332,15.924,7.141,2.276,13.434,9.038,-3.149,8.869,6.740,12.356,6.119,5.635
Fri Nov 22 19:44:33 2024,85,-18.531,-18.531,-7.770,-7.770,-7.685,-3.342,15.969,7.254,2.252,13.467,9.190,-3.066,9.064,6.937,12.440,6.102,5.764
Fri Nov 22 19:44:33 2024,90,-18.606,-18.606,-7.753,-7.753,-7.690,-3.376,15.876,7.166,2.213,13.409,9.087,-3.164,8.866,6.787,12.340,6.106,5.641
Fri Nov 22 19:44:33 2024,95,-18.686,-18.686,-7.734,-7.734,-7.690,-3.409,15.791,7.093,2.174,13.356,9.004,-3.250,8.696,6.663,12.252,6.106,5.537
Fri Nov 22 19:44:33 2024,100,-18.755,-18.755,-7.766,-7.766,-7.699,-3.420,15.780,7.082,2.177,13.341,8.989,-3.266,8.636,6.630,12.230,6.124,5.506
Fri Nov 22 19:44:33 2024,105,-18.827,-18.827,-7.849,-7.849,-7.715,-3.413,15.832,7.125,2.216,13.355,9.032,-3.223,8.664,6.667,12.260,6.160,5.533
Fri Nov 22 19:44:33 2024,110,-18.891,-18.891,-7.915,-7.915,-7.729,-3.409,15.868,7.155,2.245,13.364,9.062,-3.194,8.675,6.690,12.279,6.189,5.548
Fri Nov 22 19:44:33 2024,115,-18.931,-18.931,-7.836,-7.836,-7.720,-3.400,15.852,7.031,2.212,13.336,8.946,-3.253,8.694,6.604,12.213,6.269,5.535
Fri Nov 22 19:44:33 2024,120,-18.969,-18.969,-7.798,-7.798,-7.716,-3.393,15.849,6.958,2.196,13.320,8.877,-3.285,8.707,6.554,12.174,6.326,5.530
Fri Nov 22 19:44:33 2024,125,-19.012,-19.012,-7.765,-7.765,-7.670,-3.417,15.830,6.972,2.117,13.231,8.839,-3.362,8.664,6.540,12.198,6.300,5.535
Fri Nov 22 19:44:33 2024,130,-19.042,-19.042,-7.744,-7.744,-7.634,-3.438,15.814,6.993,2.054,13.158,8.818,-3.420,8.628,6.536,12.224,6.271,5.538
Fri Nov 22 19:44:33 2024,135,-19.081,-19.081,-7.736,-7.736,-7.604,-3.441,15.782,6.979,2.024,13.077,8.790,-3.454,8.582,6.525,12.236,6.251,5.533
Fri Nov 22 19:44:33 2024,140,-19.128,-19.128,-7.767,-7.767,-7.601,-3.402,15.716,6.882,2.084,12.996,8.754,-3.418,8.532,6.498,12.208,6.259,5.506
Fri Nov 22 19:44:33 2024,145,-19.172,-19.172,-7.790,-7.790,-7.594,-3.371,15.653,6.802,2.128,12.920,8.722,-3.394,8.485,6.474,12.188,6.262,5.483
Fri Nov 22 19:44:33 2024,150,-19.302,-19.302,-7.684,-7.684,-7.494,-3.384,15.682,6.880,2.062,12.790,8.719,-3.400,8.544,6.558,12.234,6.312,5.666
Fri Nov 22 19:44:33 2024,155,-19.422,-19.422,-7.585,-7.585,-7.399,-3.398,15.710,6.956,1.999,12.668,8.717,-3.407,8.601,6.638,12.276,6.356,5.838
Fri Nov 22 19:44:33 2024,160,-19.533,-19.533,-7.561,-7.561,-7.362,-3.392,15.653,6.955,1.994,12.601,8.709,-3.442,8.547,6.632,12.234,6.384,5.856
Fri Nov 22 19:44:33 2024,165,-19.622,-19.622,-7.562,-7.562,-7.347,-3.382,15.578,6.932,2.006,12.562,8.702,-3.480,8.470,6.602,12.175,6.402,5.826
Fri Nov 22 19:44:33 2024,170,-19.696,-19.696,-7.565,-7.565,-7.335,-3.373,15.514,6.912,2.015,12.528,8.695,-3.512,8.406,6.578,12.126,6.416,5.803
Fri Nov 22 19:44:33 2024,175,-19.857,-19.857,-7.373,-7.373,-7.198,-3.449,15.469,6.842,1.987,12.716,8.681,-3.304,8.554,6.548,12.072,6.499,5.777
Fri Nov 22 19:44:33 2024,180,-19.958,-19.958,-7.266,-7.266,-7.119,-3.491,15.436,6.800,1.972,12.819,8.673,-3.190,8.630,6.528,12.036,6.547,5.760
Fri Nov 22 19:44:33 2024,185,-20.089,-20.089,-7.227,-7.227,-7.157,-3.394,15.618,6.860,2.072,12.868,8.678,-2.953,8.922,6.592,12.150,6.454,5.715
Fri Nov 22 19:44:33 2024,190,-20.206,-20.206,-7.209,-7.209,-7.213,-3.284,15.814,6.931,2.179,12.896,8.685,-2.729,9.209,6.662,12.275,6.348,5.670
Fri Nov 22 19:44:33 2024,195,-20.337,-20.337,-7.233,-7.233,-7.234,-3.261,15.884,6.941,2.210,12.938,8.664,-2.607,9.421,6.695,12.285,6.357,5.606
Fri Nov 22 19:44:33 2024,200,-20.535,-20.535,-7.304,-7.304,-7.235,-3.302,15.875,6.902,2.186,13.011,8.609,-2.524,9.653,6.706,12.201,6.469,5.499
Fri Nov 22 19:44:33 2024,205,-20.698,-20.698,-7.362,-7.362,-7.236,-3.335,15.867,6.870,2.166,13.071,8.565,-2.455,9.845,6.716,12.131,6.561,5.411
Fri Nov 22 19:44:33 2024,210,-20.724,-20.724,-7.308,-7.308,-7.160,-3.281,15.878,6.815,2.203,13.112,8.632,-2.353,9.717,6.697,12.160,6.510,5.441
Fri Nov 22 19:44:33 2024,215,-20.758,-20.758,-7.267,-7.267,-7.099,-3.239,15.885,6.767,2.233,13.151,8.684,-2.265,9.625,6.682,12.179,6.476,5.459
Fri Nov 22 19:44:33 2024,220,-20.790,-20.790,-7.229,-7.229,-7.040,-3.199,15.890,6.721,2.261,13.187,8.733,-2.181,9.536,6.667,12.198,6.443,5.476
Fri Nov 22 19:44:33 2024,225,-20.825,-20.825,-7.228,-7.228,-6.989,-3.211,15.722,6.681,2.208,12.953,8.639,-2.146,9.626,6.722,12.273,6.506,5.608
Fri Nov 22 19:44:33 2024,230,-20.826,-20.826,-7.248,-7.248,-6.981,-3.157,15.715,6.640,2.253,12.884,8.601,-2.031,9.795,6.782,12.304,6.533,5.651
Fri Nov 22 19:44:33 2024,235,-20.779,-20.779,-7.323,-7.323,-7.036,-3.025,15.839,6.589,2.401,12.873,8.548,-1.798,10.224,6.909,12.314,6.574,5.645
Fri Nov 22 19:44:33 2024,240,-20.737,-20.737,-7.388,-7.388,-7.088,-2.913,15.954,6.548,2.528,12.873,8.506,-1.605,10.589,7.017,12.318,6.607,5.633
Fri Nov 22 19:44:33 2024,245,-20.700,-20.700,-7.447,-7.447,-7.134,-2.814,16.055,6.513,2.642,12.870,8.470,-1.435,10.914,7.115,12.322,6.636,5.623
Fri Nov 22 19:44:33 2024,250,-20.709,-20.709,-7.400,-7.400,-7.015,-2.865,16.082,6.939,2.585,12.781,8.745,-1.594,10.775,7.257,12.458,6.610,5.909
Fri Nov 22 19:44:33 2024,255,-20.698,-20.698,-7.401,-7.401,-6.976,-2.848,16.138,7.135,2.606,12.735,8.866,-1.600,10.845,7.369,12.527,6.605,6.047
Fri Nov 22 19:44:33 2024,260,-20.576,-20.576,-7.386,-7.386,-6.965,-2.738,16.165,7.052,2.784,12.830,8.940,-1.489,10.788,7.395,12.575,6.546,6.122
Fri Nov 22 19:44:33 2024,265,-20.499,-20.499,-7.377,-7.377,-6.949,-2.667,16.193,7.045,2.899,12.875,9.012,-1.422,10.769,7.437,12.621,6.508,6.200
Fri Nov 22 19:44:33 2024,270,-20.419,-20.419,-7.359,-7.359,-6.981,-2.632,16.338,7.098,2.894,12.957,9.007,-1.478,10.989,7.484,12.590,6.600,6.258
Fri Nov 22 19:44:33 2024,275,-20.348,-20.348,-7.342,-7.342,-7.008,-2.599,16.459,7.143,2.896,13.028,9.007,-1.522,11.172,7.525,12.566,6.674,6.310
Fri Nov 22 19:44:33 2024,280,-20.303,-20.303,-7.336,-7.336,-7.013,-2.574,16.477,7.138,2.927,13.061,8.990,-1.508,11.207,7.487,12.535,6.702,6.271
Fri Nov 22 19:44:33 2024,285,-20.267,-20.267,-7.333,-7.333,-7.011,-2.551,16.458,7.115,2.969,13.082,8.967,-1.472,11.191,7.418,12.501,6.714,6.198
Fri Nov 22 19:44:33 2024,290,-20.240,-20.240,-7.331,-7.331,-7.009,-2.534,16.443,7.096,3.001,13.097,8.950,-1.444,11.178,7.365,12.475,6.723,6.141
Fri Nov 22 19:44:33 2024,295,-20.271,-20.271,-7.427,-7.427,-7.127,-2.527,16.642,7.218,3.071,13.267,9.082,-1.599,11.091,7.393,12.508,6.703,6.225
Fri Nov 22 19:44:33 2024,300,-20.287,-20.287,-7.487,-7.487,-7.201,-2.520,16.759,7.292,3.120,13.374,9.163,-1.692,11.033,7.403,12.524,6.691,6.270
Fri Nov 22 19:44:33 2024,305,-20.228,-20.228,-7.532,-7.532,-7.196,-2.578,16.626,7.257,3.122,13.404,9.214,-1.696,11.064,7.452,12.507,6.721,6.312
Fri Nov 22 19:44:33 2024,310,-20.167,-20.167,-7.568,-7.568,-7.181,-2.635,16.479,7.212,3.118,13.421,9.254,-1.689,11.102,7.500,12.488,6.751,6.348
Fri Nov 22 19:44:33 2024,315,-20.106,-20.106,-7.605,-7.605,-7.166,-2.693,16.325,7.167,3.114,13.437,9.295,-1.681,11.141,7.549,12.469,6.782,6.384
Fri Nov 22 19:44:33 2024,320,-20.186,-20.186,-7.416,-7.416,-7.148,-2.518,16.662,7.231,3.156,13.451,9.242,-1.735,11.066,7.503,12.567,6.691,6.454
Fri Nov 22 19:44:33 2024,325,-20.218,-20.218,-7.316,-7.316,-7.134,-2.430,16.818,7.256,3.179,13.462,9.221,-1.765,11.033,7.488,12.618,6.646,6.503
Fri Nov 22 19:44:33 2024,330,-20.244,-20.244,-7.233,-7.233,-7.122,-2.358,16.946,7.277,3.198,13.471,9.204,-1.790,11.005,7.477,12.661,6.608,6.544
Fri Nov 22 19:44:33 2024,335,-20.255,-20.255,-7.203,-7.203,-7.118,-2.331,16.994,7.285,3.206,13.475,9.198,-1.799,10.995,7.472,12.678,6.594,6.559
Fri Nov 22 19:44:33 2024,340,-20.258,-20.258,-7.192,-7.192,-7.116,-2.320,17.011,7.288,3.208,13.476,9.195,-1.802,10.991,7.470,12.684,6.588,6.565
Fri Nov 22 19:44:33 2024,345,-20.036,-20.036,-7.507,-7.507,-7.258,-2.427,16.568,7.101,3.232,13.229,9.063,-1.778,10.913,7.377,12.598,6.575,6.260
Fri Nov 22 19:44:33 2024,350,-19.998,-19.998,-7.546,-7.546,-7.284,-2.426,16.514,7.068,3.244,13.180,9.029,-1.781,10.887,7.354,12.594,6.559,6.210
Fri Nov 22 19:44:33 2024,355,-20.017,-20.017,-7.502,-7.502,-7.323,-2.474,16.667,7.158,3.281,13.450,9.023,-1.718,11.125,7.299,12.613,6.638,6.254
Fri Nov 22 19:44:33 2024,360,-20.028,-20.028,-7.474,-7.474,-7.353,-2.509,16.762,7.220,3.308,13.635,9.016,-1.674,11.293,7.259,12.626,6.689,6.282
Fri Nov 22 19:44:33 2024,365,-19.951,-19.951,-7.529,-7.529,-7.386,-2.526,16.758,7.162,3.252,13.598,8.986,-1.624,11.298,7.240,12.596,6.675,6.176
Fri Nov 22 19:44:33 2024,370,-19.872,-19.872,-7.590,-7.590,-7.413,-2.538,16.737,7.091,3.189,13.523,8.958,-1.580,11.271,7.230,12.563,6.651,6.062
Fri Nov 22 19:44:33 2024,375,-19.803,-19.803,-7.642,-7.642,-7.440,-2.551,16.718,7.046,3.154,13.474,8.935,-1.549,11.322,7.243,12.538,6.645,5.978
Fri Nov 22 19:44:33 2024,380,-19.752,-19.752,-7.673,-7.673,-7.467,-2.570,16.704,7.063,3.188,13.490,8.924,-1.547,11.578,7.320,12.533,6.692,5.960
Fri Nov 22 19:44:33 2024,385,-19.707,-19.707,-7.702,-7.702,-7.490,-2.585,16.692,7.068,3.206,13.494,8.914,-1.542,11.763,7.376,12.526,6.724,5.934
Fri Nov 22 19:44:33 2024,390,-19.656,-19.656,-7.689,-7.689,-7.377,-2.686,16.579,7.044,3.149,13.448,8.949,-1.551,11.739,7.446,12.499,6.771,6.049
Fri Nov 22 19:44:33 2024,395,-19.611,-19.611,-7.679,-7.679,-7.279,-2.775,16.479,7.024,3.101,13.407,8.979,-1.558,11.726,7.510,12.476,6.813,6.148
Fri Nov 22 19:44:33 2024,400,-19.596,-19.596,-7.676,-7.676,-7.236,-2.810,16.397,6.986,3.080,13.312,8.940,-1.560,11.660,7.502,12.473,6.814,6.183
Fri Nov 22 19:44:33 2024,405,-19.642,-19.642,-7.687,-7.687,-7.310,-2.732,16.358,6.921,3.114,13.119,8.768,-1.550,11.491,7.344,12.512,6.733,6.083
Fri Nov 22 19:44:33 2024,410,-19.668,-19.668,-7.693,-7.693,-7.348,-2.691,16.307,6.869,3.130,12.970,8.646,-1.545,11.366,7.240,12.537,6.681,6.026
Fri Nov 22 19:44:33 2024,415,-19.639,-19.639,-7.677,-7.677,-7.351,-2.668,16.313,6.804,3.109,12.956,8.577,-1.552,11.346,7.177,12.477,6.720,5.940
Fri Nov 22 19:44:33 2024,420,-19.556,-19.556,-7.639,-7.639,-7.325,-2.655,16.372,6.711,3.052,13.056,8.536,-1.572,11.414,7.134,12.329,6.846,5.809
Fri Nov 22 19:44:33 2024,425,-19.524,-19.524,-7.626,-7.626,-7.287,-2.733,16.245,6.664,3.009,13.014,8.568,-1.646,11.334,7.153,12.326,6.880,5.895
Fri Nov 22 19:44:33 2024,430,-19.505,-19.505,-7.619,-7.619,-7.254,-2.805,16.129,6.633,2.977,12.972,8.606,-1.710,11.260,7.179,12.337,6.899,5.988
Fri Nov 22 19:44:33 2024,435,-19.488,-19.488,-7.612,-7.612,-7.225,-2.870,16.025,6.606,2.947,12.934,8.640,-1.768,11.194,7.202,12.347,6.916,6.071
Fri Nov 22 19:44:33 2024,440,-19.519,-19.519,-7.566,-7.566,-7.262,-2.720,16.192,6.589,3.063,12.993,8.564,-1.671,11.286,7.156,12.450,6.765,5.950
Fri Nov 22 19:44:33 2024,445,-19.535,-19.535,-7.536,-7.536,-7.278,-2.645,16.269,6.572,3.127,13.018,8.527,-1.626,11.325,7.134,12.515,6.677,5.897
Fri Nov 22 19:44:33 2024,450,-19.548,-19.548,-7.569,-7.569,-7.304,-2.681,16.282,6.672,3.114,13.091,8.610,-1.589,11.403,7.167,12.518,6.701,5.914
Fri Nov 22 19:44:33 2024,455,-19.560,-19.560,-7.600,-7.600,-7.329,-2.714,16.295,6.766,3.104,13.160,8.687,-1.553,11.477,7.197,12.522,6.722,5.930
Fri Nov 22 19:44:33 2024,460,-19.527,-19.527,-7.616,-7.616,-7.347,-2.699,16.324,6.742,3.116,13.145,8.668,-1.553,11.459,7.202,12.540,6.710,5.949
Fri Nov 22 19:44:33 2024,465,-19.483,-19.483,-7.624,-7.624,-7.358,-2.668,16.353,6.674,3.134,13.098,8.614,-1.568,11.407,7.195,12.560,6.688,5.966
Fri Nov 22 19:44:33 2024,470,-19.443,-19.443,-7.631,-7.631,-7.367,-2.640,16.379,6.614,3.151,13.055,8.564,-1.581,11.360,7.189,12.578,6.668,5.982
Fri Nov 22 19:44:33 2024,475,-19.448,-19.448,-7.692,-7.692,-7.411,-2.588,16.502,6.621,3.178,13.116,8.577,-1.564,11.370,7.167,12.592,6.672,5.998
Fri Nov 22 19:44:33 2024,480,-19.499,-19.499,-7.804,-7.804,-7.485,-2.516,16.712,6.699,3.214,13.276,8.653,-1.518,11.438,7.132,12.600,6.701,6.012
Fri Nov 22 19:44:33 2024,485,-19.431,-19.431,-7.806,-7.806,-7.540,-2.585,16.664,6.689,3.234,13.392,8.708,-1.471,11.673,7.229,12.638,6.697,6.024
Fri Nov 22 19:44:33 2024,490,-19.359,-19.359,-7.792,-7.792,-7.584,-2.662,16.590,6.673,3.248,13.490,8.757,-1.430,11.901,7.330,12.674,6.691,6.034
Fri Nov 22 19:44:33 2024,495,-19.292,-19.292,-7.780,-7.780,-7.626,-2.734,16.522,6.658,3.260,13.580,8.802,-1.394,12.112,7.424,12.706,6.685,6.044
Fri Nov 22 19:44:33 2024,500,-19.325,-19.325,-7.942,-7.942,-7.691,-2.680,16.639,6.722,3.197,13.633,8.843,-1.470,11.939,7.339,12.642,6.724,6.002
Fri Nov 22 19:44:33 2024,505,-19.330,-19.330,-8.033,-8.033,-7.740,-2.667,16.690,6.756,3.163,13.687,8.878,-1.506,11.890,7.312,12.613,6.745,5.980
Fri Nov 22 19:44:33 2024,510,-19.283,-19.283,-7.949,-7.949,-7.655,-2.642,16.675,6.752,3.227,13.615,8.871,-1.534,11.788,7.291,12.621,6.737,6.003
Fri Nov 22 19:44:33 2024,515,-19.242,-19.242,-7.876,-7.876,-7.580,-2.618,16.664,6.749,3.284,13.553,8.866,-1.562,11.692,7.271,12.628,6.731,6.022
Fri Nov 22 19:44:33 2024,520,-19.209,-19.209,-7.815,-7.815,-7.517,-2.599,16.652,6.748,3.332,13.499,8.863,-1.585,11.611,7.254,12.633,6.726,6.039
Fri Nov 22 19:44:33 2024,525,-19.258,-19.258,-7.514,-7.514,-7.418,-2.730,16.673,6.745,3.245,13.646,8.710,-1.511,11.709,7.083,12.704,6.676,5.927
Fri Nov 22 19:44:33 2024,530,-19.281,-19.281,-7.340,-7.340,-7.347,-2.791,16.676,6.743,3.216,13.705,8.631,-1.481,11.733,6.989,12.742,6.648,5.875
Fri Nov 22 19:44:33 2024,535,-19.204,-19.204,-6.441,-6.441,-6.885,-2.810,16.712,6.844,3.200,13.813,8.673,-1.546,11.772,7.042,12.820,6.621,6.062
Fri Nov 22 19:44:33 2024,540,-19.176,-19.176,-5.685,-5.685,-6.481,-2.838,16.737,6.924,3.182,13.910,8.692,-1.593,11.808,7.067,12.889,6.592,6.202
Fri Nov 22 19:44:33 2024,545,-19.204,-19.204,-4.590,-4.590,-5.799,-2.944,16.563,7.111,3.105,13.854,8.733,-1.590,11.777,7.192,12.906,6.564,6.428
Fri Nov 22 19:44:33 2024,550,-19.273,19.273,-3.558,-3.558,-5.107,-3.047,16.384,7.290,3.030,13.784,8.773,-1.582,11.743,7.316,12.916,6.537,6.640
Fri Nov 22 19:44:33 2024,555,-19.353,19.353,-2.755,-2.755,-4.543,-3.126,16.245,7.428,2.973,13.729,8.802,-1.576,11.716,7.412,12.924,6.517,6.804
Fri Nov 22 19:44:33 2024,560,-19.237,19.237,-1.143,-1.143,-3.530,-3.335,15.958,7.680,2.793,13.699,8.782,-1.562,11.702,7.501,12.974,6.482,7.058
Fri Nov 22 19:44:33 2024,565,-19.219,19.219,-0.464,0.464,-2.705,-3.483,15.745,7.872,2.670,13.659,8.777,-1.552,11.686,7.581,13.006,6.455,7.258
Fri Nov 22 19:44:33 2024,570,-19.274,19.274,0.322,1.380,-1.951,-3.432,15.683,8.111,2.718,13.564,8.937,-1.453,11.564,7.725,13.114,6.343,7.478
Fri Nov 22 19:44:33 2024,575,-19.433,19.433,2.634,2.634,-1.110,-3.185,15.735,8.456,2.938,13.396,9.290,-1.245,11.313,7.964,13.320,6.126,7.773
Fri Nov 22 19:44:33 2024,580,-19.542,19.542,4.524,4.524,0.960,-3.286,15.525,8.717,2.893,13.403,9.409,-1.240,11.280,8.088,13.330,6.089,7.895
Fri Nov 22 19:44:33 2024,585,-19.645,19.645,6.923,6.923,2.459,-3.506,15.216,8.982,2.766,13.473,9.479,-1.301,11.315,8.190,13.276,6.108,7.962
Fri Nov 22 19:44:33 2024,590,-19.755,19.755,9.251,9.251,4.229,-3.712,14.924,9.233,2.646,13.538,9.545,-1.359,11.347,8.287,13.225,6.123,8.026
Fri Nov 22 19:44:33 2024,595,-19.271,19.271,12.763,12.763,6.758,-4.023,14.542,9.237,2.478,13.437,9.345,-1.434,10.815,8.209,13.342,5.992,8.504
Fri Nov 22 19:44:33 2024,600,-19.006,19.006,15.252,15.252,8.685,-4.239,14.268,9.278,2.359,13.381,9.237,-1.486,10.500,8.177,13.405,5.914,8.803
Fri Nov 22 19:44:33 2024,605,-19.235,19.235,17.778,17.778,10.640,-4.249,14.084,9.357,2.358,13.100,9.293,-1.500,10.185,8.265,13.495,5.806,9.048
Fri Nov 22 19:44:33 2024,610,-19.620,19.620,20.714,20.714,13.045,-4.231,13.882,9.452,2.375,12.751,9.379,-1.509,9.831,8.381,13.601,5.681,9.318
Fri Nov 22 19:44:33 2024,615,-19.871,19.871,22.419,22.419,14.672,-4.352,13.558,9.459,2.269,12.394,9.467,-1.635,9.353,8.441,13.568,5.711,9.588
Fri Nov 22 19:44:33 2024,620,-20.208,20.208,24.223,24.223,16.629,-4.620,12.998,9.413,2.037,11.843,9.599,-1.894,8.560,8.499,13.433,5.855,9.995
Fri Nov 22 19:44:33 2024,625,-20.541,20.541,25.507,25.507,18.048,-4.816,12.590,9.376,1.870,11.432,9.693,-2.082,7.986,8.538,13.329,5.965,10.288
Fri Nov 22 19:44:33 2024,630,-20.889,20.889,26.103,26.103,18.659,-4.398,12.094,9.353,2.012,10.984,9.932,-1.953,7.440,8.631,13.288,5.885,10.376
Fri Nov 22 19:44:33 2024,635,-21.313,21.313,26.674,26.674,19.245,-3.842,11.494,9.330,2.217,10.492,10.215,-1.763,6.849,8.740,13.255,5.760,10.439
Fri Nov 22 19:44:33 2024,640,-21.699,21.699,27.190,27.190,19.802,-3.486,10.998,9.312,2.343,10.144,10.406,-1.652,6.424,8.814,13.232,5.672,10.501
Fri Nov 22 19:44:33 2024,645,-22.974,22.974,27.711,27.711,20.008,-3.688,10.248,9.379,2.333,9.719,10.101,-1.641,6.387,8.916,13.408,5.250,10.104
Fri Nov 22 19:44:33 2024,650,-23.926,23.926,28.252,28.252,20.409,-3.665,9.617,9.405,2.378,9.345,10.003,-1.592,6.201,9.004,13.504,4.958,9.904
Fri Nov 22 19:44:33 2024,655,-24.607,24.607,28.636,28.636,20.709,-3.649,9.181,9.420,2.410,9.088,9.936,-1.559,6.073,9.064,13.570,4.751,9.767
Fri Nov 22 19:44:33 2024,660,-25.169,25.169,29.352,29.352,21.426,-4.217,8.981,9.507,2.340,9.376,10.209,-1.687,6.151,9.247,13.808,4.862,10.077
Fri Nov 22 19:44:33 2024,665,-25.733,25.733,29.795,29.795,21.830,-4.411,8.701,9.544,2.330,9.356,10.274,-1.716,6.118,9.340,13.923,4.801,10.122
Fri Nov 22 19:44:33 2024,670,-26.086,26.086,30.035,30.035,22.148,-4.266,8.685,9.232,2.261,8.685,9.974,-1.651,6.053,9.571,13.692,4.896,10.365
Fri Nov 22 19:44:33 2024,675,-26.424,26.424,30.250,30.250,22.386,-4.265,8.602,9.129,2.237,8.435,9.884,-1.635,6.019,9.679,13.640,4.912,10.465
Fri Nov 22 19:44:33 2024,680,-26.488,26.488,29.639,29.639,21.941,-3.976,8.597,8.576,2.541,8.613,9.663,-1.422,6.176,9.385,13.961,4.918,10.282
Fri Nov 22 19:44:33 2024,685,-26.661,26.661,29.345,29.345,21.749,-3.812,8.572,8.240,2.708,8.653,9.517,-1.301,6.256,9.245,14.127,4.911,10.203
Fri Nov 22 19:44:33 2024,690,-27.360,27.360,28.487,28.487,21.256,-3.834,8.618,8.106,2.722,8.893,9.549,-1.181,6.842,9.422,14.194,5.017,10.201
Fri Nov 22 19:44:33 2024,695,-27.952,27.952,27.784,27.784,20.842,-3.845,8.654,7.983,2.740,9.087,9.569,-1.083,7.318,9.560,14.254,5.089,10.195
Fri Nov 22 19:44:33 2024,700,-28.486,28.486,27.168,27.168,20.471,-3.854,8.685,7.875,2.755,9.257,9.587,-1.001,7.736,9.681,14.305,5.143,10.189
Fri Nov 22 19:44:33 2024,705,-28.367,28.367,26.047,26.047,19.568,-3.880,9.487,7.820,2.594,9.929,9.497,-1.015,8.229,9.499,14.293,5.324,10.086
Fri Nov 22 19:44:33 2024,710,-28.505,28.505,25.216,25.216,18.915,-3.898,9.937,7.752,2.513,10.359,9.453,-0.995,8.641,9.439,14.306,5.416,10.028
Fri Nov 22 19:44:33 2024,715,-28.595,28.595,24.726,24.726,18.521,-3.908,10.200,7.713,2.465,10.611,9.427,-0.984,8.883,9.404,14.315,5.461,9.994
Fri Nov 22 19:44:33 2024,720,-29.062,29.062,23.504,23.504,17.740,-4.324,10.029,8.165,2.012,11.049,10.071,-1.332,9.015,9.914,13.959,5.849,10.380
Fri Nov 22 19:44:33 2024,725,-29.149,29.149,22.644,22.644,17.194,-4.390,10.037,8.300,1.849,11.098,10.198,-1.455,9.088,10.041,13.911,5.915,10.501
Fri Nov 22 19:44:33 2024,730,-29.152,29.152,21.778,21.778,16.670,-4.400,10.007,8.416,1.720,11.002,10.258,-1.565,9.095,10.132,13.911,5.921,10.608
Fri Nov 22 19:44:33 2024,735,-29.196,29.196,21.046,21.046,16.200,-4.421,9.990,8.518,1.604,10.953,10.324,-1.661,9.115,10.217,13.900,5.939,10.701
Fri Nov 22 19:44:33 2024,740,-29.050,29.050,19.985,19.985,15.363,-4.300,10.187,8.346,1.470,10.894,10.159,-1.716,8.955,9.932,13.651,6.155,10.265
Fri Nov 22 19:44:33 2024,745,-29.004,29.004,19.217,19.217,14.764,-4.237,10.295,8.270,1.368,10.849,10.079,-1.769,8.868,9.788,13.507,6.280,10.039
Fri Nov 22 19:44:33 2024,750,-28.952,28.952,18.813,18.813,14.528,-4.182,10.337,8.258,1.241,10.744,9.998,-1.740,8.947,9.760,13.369,6.394,9.932
Fri Nov 22 19:44:33 2024,755,-28.896,28.896,18.703,18.703,14.597,-4.134,10.325,8.298,1.088,10.582,9.915,-1.640,9.174,9.826,13.231,6.503,9.920
Fri Nov 22 19:44:33 2024,760,-28.879,28.879,18.458,18.458,14.494,-4.090,10.342,8.306,0.972,10.470,9.846,-1.592,9.292,9.836,13.113,6.596,9.863
Fri Nov 22 19:44:33 2024,765,-28.694,28.694,17.502,17.502,13.616,-3.963,10.666,8.252,0.968,10.529,9.841,-1.706,9.071,9.724,13.140,6.618,9.878
Fri Nov 22 19:44:33 2024,770,28.598,28.598,16.868,16.868,13.072,-3.874,10.860,8.224,0.926,10.524,9.814,-1.755,8.983,9.663,13.117,6.661,9.866
Fri Nov 22 19:44:33 2024,775,28.390,28.390,16.471,16.471,12.802,-3.985,10.792,8.108,0.682,10.491,9.655,-1.890,8.921,9.463,12.879,6.850,9.666
Fri Nov 22 19:44:33 2024,780,28.242,28.242,16.086,16.086,12.520,-4.047,10.777,8.023,0.518,10.464,9.541,-1.992,8.862,9.315,12.709,6.988,9.526
Fri Nov 22 19:44:33 2024,785,28.194,28.194,15.894,15.894,12.380,-3.980,10.785,8.033,0.453,10.412,9.538,-2.010,8.877,9.326,12.658,7.024,9.505
Fri Nov 22 19:44:33 2024,790,28.239,28.239,15.880,15.880,12.371,-3.768,10.817,8.145,0.467,10.329,9.651,-1.943,8.973,9.503,12.724,6.960,9.605
Fri Nov 22 19:44:33 2024,795,28.121,28.121,15.764,15.764,12.280,-3.684,10.906,8.136,0.443,10.308,9.606,-1.964,8.991,9.466,12.680,6.996,9.567
Fri Nov 22 19:44:33 2024,800,27.794,27.794,15.570,15.570,12.121,-3.662,11.112,8.019,0.400,10.343,9.398,-2.060,8.958,9.224,12.538,7.120,9.400
Fri Nov 22 19:44:33 2024,805,27.540,27.540,15.411,15.411,11.990,-3.644,11.279,7.923,0.368,10.371,9.227,-2.138,8.930,9.028,12.422,7.222,9.263
Fri Nov 22 19:44:33 2024,810,27.431,27.431,15.293,15.293,11.885,-3.599,11.530,8.021,0.324,10.433,9.294,-2.137,8.978,9.064,12.411,7.191,9.228
Fri Nov 22 19:44:33 2024,815,27.336,27.336,15.186,15.186,11.789,-3.560,11.748,8.102,0.299,10.486,9.345,-2.138,9.018,9.088,12.397,7.166,9.194
Fri Nov 22 19:44:33 2024,820,27.266,27.266,15.103,15.103,11.714,-3.530,11.915,8.163,0.290,10.527,9.384,-2.140,9.047,9.107,12.386,7.146,9.168
Fri Nov 22 19:44:33 2024,825,27.211,27.211,14.518,14.518,11.240,-3.469,11.802,7.978,0.295,10.456,9.268,-2.185,8.969,9.063,12.394,7.273,9.333
Fri Nov 22 19:44:33 2024,830,27.167,27.167,14.205,14.205,10.984,-3.430,11.800,7.908,-0.298,10.434,9.222,-2.208,8.940,9.048,12.394,7.324,9.406
Fri Nov 22 19:44:33 2024,835,27.132,27.132,13.948,13.948,10.774,-3.396,11.798,7.849,-0.302,10.416,9.185,-2.228,8.916,9.034,12.392,7.364,9.467
Fri Nov 22 19:44:33 2024,840,27.120,27.120,13.845,13.845,10.691,-3.384,11.798,7.826,-0.303,10.408,9.171,-2.235,8.906,9.030,12.392,7.380,9.491
Fri Nov 22 19:44:33 2024,845,27.117,27.117,13.819,13.819,10.670,-3.380,11.797,7.820,-0.303,10.406,9.167,-2.237,8.903,9.029,12.392,7.383,9.498
Fri Nov 22 19:44:33 2024,850,26.669,26.669,14.017,14.017,10.786,-3.485,11.910,8.085,-0.389,10.491,9.255,-2.324,8.856,8.978,12.058,7.558,9.185
Fri Nov 22 19:44:33 2024,855,26.572,26.572,13.970,13.970,10.740,-3.494,11.931,8.118,-0.420,10.501,9.259,-2.348,8.839,8.964,11.992,7.604,9.144
Fri Nov 22 19:44:33 2024,860,26.473,26.473,13.768,13.768,10.592,-3.478,12.090,8.165,-0.452,10.549,9.327,-2.310,9.028,9.136,12.092,7.535,9.328
Fri Nov 22 19:44:33 2024,865,26.406,26.406,13.656,13.656,10.508,-3.471,12.176,8.195,-0.476,10.575,9.363,-2.295,9.122,9.223,12.132,7.506,9.417
Fri Nov 22 19:44:33 2024,870,26.398,26.398,13.518,13.518,10.431,-3.484,12.097,8.199,-0.484,10.552,9.349,-2.364,9.062,9.204,12.161,7.498,9.423
Fri Nov 22 19:44:33 2024,875,26.421,26.421,13.390,13.390,10.368,-3.505,11.953,8.189,-0.482,10.508,9.314,-2.462,8.940,9.137,12.180,7.501,9.388
Fri Nov 22 19:44:33 2024,880,26.429,26.429,13.289,13.289,10.317,-3.520,11.863,8.186,-0.485,10.480,9.294,-2.527,8.866,9.101,12.197,7.498,9.374
Fri Nov 22 19:44:33 2024,885,26.183,26.183,13.399,13.399,10.340,-3.486,11.975,8.071,-0.473,10.418,9.165,-2.537,8.743,8.920,11.957,7.665,9.247
Fri Nov 22 19:44:33 2024,890,26.073,26.073,13.420,13.420,10.337,-3.474,12.000,8.017,-0.468,10.381,9.101,-2.560,8.667,8.827,11.853,7.738,9.185
Fri Nov 22 19:44:33 2024,895,25.992,25.992,13.496,13.496,10.367,-3.418,12.095,7.977,-0.422,10.418,9.086,-2.498,8.704,8.802,11.822,7.781,9.163
Fri Nov 22 19:44:33 2024,900,25.952,25.952,13.607,13.607,10.424,-3.332,12.238,7.958,-0.351,10.516,9.120,-2.368,8.843,8.843,11.866,7.786,9.183
Fri Nov 22 19:44:33 2024,905,25.899,25.899,13.679,13.679,10.457,-3.277,12.331,7.932,-0.317,10.564,9.123,-2.296,8.904,8.843,11.866,7.808,9.178
Fri Nov 22 19:44:33 2024,910,26.001,26.001,13.494,13.494,10.316,-3.258,12.404,7.963,-0.001,10.426,9.080,-2.195,9.114,9.000,11.779,7.893,9.206
Fri Nov 22 19:44:33 2024,915,26.031,26.031,13.434,13.434,10.265,-3.233,12.468,7.969,0.304,10.377,9.062,-2.126,9.228,9.072,11.739,7.939,9.216
Fri Nov 22 19:44:33 2024,920,25.964,25.964,13.731,13.731,10.524,-3.222,12.386,7.893,0.333,10.374,8.959,-2.088,9.156,8.899,11.647,8.002,9.077
Fri Nov 22 19:44:33 2024,925,25.926,25.926,13.924,13.924,10.694,-3.208,12.344,7.841,0.376,10.358,8.883,-2.044,9.135,8.797,11.572,8.056,8.983
Fri Nov 22 19:44:33 2024,930,25.784,25.784,14.088,14.088,10.781,-3.194,12.380,7.811,0.431,10.360,8.837,-1.977,9.140,8.769,11.550,8.064,8.903
Fri Nov 22 19:44:33 2024,935,25.578,25.578,14.253,14.253,10.835,-3.179,12.459,7.789,0.500,10.371,8.800,-1.892,9.160,8.776,11.553,8.048,8.823
Fri Nov 22 19:44:33 2024,940,25.450,25.450,14.374,14.374,10.888,-3.168,12.502,7.770,0.554,10.374,8.769,-1.836,9.168,8.768,11.547,8.045,8.764
Fri Nov 22 19:44:33 2024,945,25.427,25.427,14.940,14.940,11.379,-3.133,12.441,7.783,0.647,10.350,8.710,-1.845,8.971,8.669,11.661,7.912,8.895
Fri Nov 22 19:44:33 2024,950,25.376,25.376,15.272,15.272,11.652,-3.112,12.426,7.782,0.717,10.338,8.670,-1.831,8.873,8.616,11.716,7.844,8.941
Fri Nov 22 19:44:33 2024,955,25.111,25.111,16.208,16.208,12.385,-3.013,12.538,7.884,0.845,10.222,8.656,-1.656,9.125,8.735,11.681,7.823,8.768
Fri Nov 22 19:44:33 2024,960,24.876,24.876,17.119,17.119,13.106,-2.921,12.631,7.972,0.977,10.115,8.632,-1.499,9.315,8.824,11.663,7.785,8.631
Fri Nov 22 19:44:33 2024,965,24.818,24.818,17.984,17.984,13.820,-2.932,12.445,7.960,1.112,10.061,8.585,-1.450,9.262,8.786,11.687,7.729,8.580
Fri Nov 22 19:44:33 2024,970,24.898,24.898,19.082,19.082,14.754,-3.027,11.991,7.868,1.290,10.029,8.502,-1.469,9.009,8.636,11.748,7.641,8.580
Fri Nov 22 19:44:33 2024,975,24.963,24.963,19.930,19.930,15.471,-3.079,11.706,7.820,1.425,9.990,8.446,-1.462,8.867,8.550,11.786,7.578,8.561
Fri Nov 22 19:44:33 2024,980,-24.565,24.565,21.162,21.162,16.294,-3.190,11.566,7.916,1.543,9.936,8.353,-1.435,9.078,8.592,11.978,7.436,8.458
Fri Nov 22 19:44:33 2024,985,-24.410,24.410,22.119,22.119,16.944,-3.272,11.414,7.964,1.648,9.891,8.282,-1.417,9.178,8.598,12.105,7.333,8.390
Fri Nov 22 19:44:33 2024,990,-24.831,24.831,23.839,23.839,18.220,-3.277,11.226,7.924,1.895,9.916,8.242,-1.422,8.914,8.472,12.234,7.179,8.426
Fri Nov 22 19:44:33 2024,995,-25.240,25.240,25.102,25.102,19.112,-3.279,11.087,7.892,2.081,9.931,8.215,-1.429,8.708,8.375,12.329,7.065,8.457
Fri Nov 22 19:44:34 2024,0,-25.424,25.424,26.597,26.597,20.162,-3.157,10.904,7.879,2.376,9.776,8.233,-1.354,8.300,8.257,12.567,6.744,8.473
Fri Nov 22 19:44:34 2024,5,-25.216,25.216,28.370,28.370,21.417,-2.857,10.655,7.896,2.817,9.373,8.319,-1.170,7.609,8.116,13.007,6.122,8.466
Fri Nov 22 19:44:34 2024,10,-25.210,25.210,29.764,29.764,22.339,-2.647,10.450,7.905,3.154,9.077,8.375,-1.055,7.089,8.007,13.332,5.658,8.465
Fri Nov 22 19:44:34 2024,15,-24.463,24.463,31.280,31.280,23.155,-2.785,10.126,7.736,3.089,8.982,8.124,-1.109,6.576,7.607,13.346,5.292,8.124
Fri Nov 22 19:44:34 2024,20,-23.817,23.817,32.595,32.595,23.823,-2.952,9.833,7.569,2.980,8.929,7.867,-1.179,6.138,7.225,13.314,4.967,7.780
Fri Nov 22 19:44:34 2024,25,-23.520,23.520,33.136,33.136,24.096,-3.004,9.880,7.680,2.851,8.957,7.782,-1.314,5.952,7.030,13.330,4.748,7.642
Fri Nov 22 19:44:34 2024,30,-23.392,23.392,32.974,32.974,24.015,-3.000,10.332,8.136,2.576,9.132,7.816,-1.613,6.002,6.934,13.349,4.631,7.639
Fri Nov 22 19:44:34 2024,35,-23.423,23.423,33.104,33.104,24.099,-3.012,10.588,8.420,2.384,9.232,7.801,-1.831,5.957,6.812,13.364,4.482,7.589
Fri Nov 22 19:44:34 2024,40,-21.608,21.608,32.147,32.147,23.400,-2.763,10.034,8.506,2.550,8.471,7.984,-1.944,5.349,7.050,13.308,4.077,7.841
Fri Nov 22 19:44:34 2024,45,-20.790,20.790,31.673,31.673,23.054,-2.636,9.790,8.614,2.596,8.092,8.077,-2.053,5.019,7.148,13.281,3.813,7.969
Fri Nov 22 19:44:34 2024,50,-19.702,19.702,30.999,30.999,22.748,-2.762,9.990,8.538,2.349,8.062,7.962,-2.492,4.640,6.800,13.024,4.053,8.011
Fri Nov 22 19:44:34 2024,55,-18.983,18.983,30.552,30.552,22.579,-2.847,10.121,8.487,2.177,8.029,7.883,-2.806,4.362,6.565,12.841,4.213,8.044
Fri Nov 22 19:44:34 2024,60,-18.436,18.436,29.840,29.840,21.915,-3.041,10.345,8.511,2.021,8.189,7.704,-2.955,4.518,6.399,12.827,4.286,7.973
Fri Nov 22 19:44:34 2024,65,-18.045,18.045,29.029,29.029,21.033,-3.296,10.612,8.577,1.874,8.460,7.469,-3.008,4.924,6.271,12.907,4.305,7.842
Fri Nov 22 19:44:34 2024,70,-17.814,17.814,28.403,28.403,20.357,-3.516,10.831,8.639,1.754,8.701,7.266,-3.040,5.292,6.169,12.986,4.313,7.727
Fri Nov 22 19:44:34 2024,75,-17.672,17.672,25.954,25.954,17.782,-3.136,11.483,8.423,1.862,9.554,7.271,-2.938,5.957,6.072,12.967,4.423,7.446
Fri Nov 22 19:44:34 2024,80,-17.571,17.571,24.128,24.128,15.883,-2.908,12.003,8.280,1.922,10.221,7.232,-2.868,6.521,5.980,12.971,4.500,7.216
Fri Nov 22 19:44:34 2024,85,-17.406,17.406,22.017,22.017,14.040,-2.919,12.497,8.260,1.902,10.700,7.232,-2.824,6.940,5.962,12.834,4.707,7.068
Fri Nov 22 19:44:34 2024,90,-17.156,17.156,19.462,19.462,12.217,-3.258,12.948,8.409,1.768,10.932,7.287,-2.815,7.167,6.045,12.497,5.095,7.030
Fri Nov 22 19:44:34 2024,95,-17.025,17.025,17.427,17.427,10.755,-3.447,13.330,8.488,1.688,11.221,7.318,-2.794,7.433,6.086,12.267,5.377,6.960
Fri Nov 22 19:44:34 2024,100,-17.048,17.048,14.648,14.648,8.501,-3.417,13.120,8.528,1.795,11.070,7.491,-2.909,7.552,6.215,12.215,5.393,6.822
Fri Nov 22 19:44:34 2024,105,-17.073,17.073,12.263,12.263,6.738,-3.450,13.083,8.578,1.846,11.050,7.617,-2.981,7.707,6.314,12.115,5.483,6.711
Fri Nov 22 19:44:34 2024,110,-17.448,17.448,10.300,10.300,5.084,-3.300,13.390,8.258,1.962,11.050,7.588,-2.887,7.764,6.249,11.956,5.649,6.528
Fri Nov 22 19:44:34 2024,115,-17.798,17.798,8.408,8.408,3.579,-3.166,13.665,7.970,2.069,11.047,7.568,-2.806,7.824,6.197,11.807,5.804,6.357
Fri Nov 22 19:44:34 2024,120,-17.942,17.942,6.901,6.901,2.423,-3.125,13.906,7.680,2.197,11.203,7.533,-2.723,7.925,6.103,11.745,5.910,6.146
Fri Nov 22 19:44:34 2024,125,-17.991,-17.991,5.478,5.478,1.448,-3.139,14.148,7.355,2.352,11.476,7.483,-2.628,8.063,5.970,11.733,5.996,5.887
Fri Nov 22 19:44:34 2024,130,-18.080,-18.080,4.354,4.354,1.079,-3.141,14.338,7.102,2.474,11.671,7.444,-2.554,8.167,5.870,11.718,6.065,5.688
Fri Nov 22 19:44:34 2024,135,-18.387,-18.387,3.378,3.378,-1.270,-3.196,14.435,7.024,2.293,11.769,7.319,-2.813,8.217,5.720,11.538,6.098,5.442
Fri Nov 22 19:44:34 2024,140,-18.648,-18.648,2.524,2.524,-1.702,-3.233,14.531,6.930,2.186,11.866,7.226,-2.982,8.266,5.600,11.408,6.129,5.241
Fri Nov 22 19:44:34 2024,145,-18.911,-18.911,1.682,1.682,-2.208,-3.222,14.678,6.918,2.166,11.976,7.299,-3.028,8.385,5.661,11.375,6.147,5.170
Fri Nov 22 19:44:34 2024,150,-19.175,-19.175,0.162,0.836,-2.746,-3.156,14.886,6.992,2.238,12.102,7.549,-2.946,8.584,5.915,11.443,6.150,5.232
Fri Nov 22 19:44:34 2024,155,-19.440,-19.440,-0.272,0.272,-3.252,-3.114,15.058,7.027,2.270,12.215,7.716,-2.918,8.741,6.080,11.467,6.158,5.238
Fri Nov 22 19:44:34 2024,160,-19.872,-19.872,-0.320,0.320,-3.079,-3.099,14.891,6.993,2.249,12.140,7.767,-3.086,8.334,5.941,11.349,6.144,5.203
Fri Nov 22 19:44:34 2024,165,-20.274,-20.274,-0.514,-0.514,-3.114,-3.075,14.825,6.981,2.245,12.121,7.853,-3.195,8.099,5.895,11.275,6.136,5.182
Fri Nov 22 19:44:34 2024,170,-20.576,-20.576,-0.727,-0.727,-3.193,-3.136,14.831,7.024,2.194,12.211,7.931,-3.206,8.142,5.955,11.252,6.132,5.189
Fri Nov 22 19:44:34 2024,175,-20.874,-20.874,-0.964,-0.964,-3.325,-3.285,14.899,7.129,2.089,12.418,8.022,-3.134,8.441,6.122,11.268,6.134,5.224
Fri Nov 22 19:44:34 2024,180,-21.102,-21.102,-1.206,-1.206,-3.447,-3.322,14.939,7.152,2.030,12.498,8.073,-3.162,8.438,6.158,11.260,6.116,5.237
Fri Nov 22 19:44:34 2024,185,-21.211,-21.211,-1.469,-1.469,-3.612,-3.274,14.999,7.109,1.991,12.493,8.078,-3.265,8.215,6.092,11.248,6.075,5.240
Fri Nov 22 19:44:34 2024,190,-21.368,-21.368,-1.720,-1.720,-3.760,-3.251,15.051,7.085,1.949,12.510,8.095,-3.345,8.060,6.057,11.238,6.041,5.246
Fri Nov 22 19:44:34 2024,195,-21.500,-21.500,-1.980,-1.980,-3.808,-3.196,15.102,7.113,1.942,12.420,8.208,-3.260,8.020,6.172,11.262,6.045,5.332
Fri Nov 22 19:44:34 2024,200,-21.624,-21.624,-2.188,-2.188,-3.862,-3.157,15.144,7.127,1.930,12.365,8.284,-3.218,7.969,6.240,11.275,6.042,5.389
Fri Nov 22 19:44:34 2024,205,-21.788,-21.788,-2.360,-2.360,-3.916,-3.147,15.140,7.112,1.908,12.336,8.283,-3.242,7.855,6.224,11.212,6.043,5.372
Fri Nov 22 19:44:34 2024,210,-21.971,-21.971,-2.442,-2.442,-3.960,-3.185,15.068,7.052,1.872,12.355,8.164,-3.362,7.664,6.078,11.041,6.050,5.246
Fri Nov 22 19:44:34 2024,215,-22.148,-22.148,-2.605,-2.605,-4.053,-3.210,14.966,6.963,1.826,12.302,8.104,-3.441,7.492,5.992,10.943,6.023,5.169
Fri Nov 22 19:44:34 2024,220,-22.290,-22.290,-2.795,-2.795,-4.182,-3.238,14.812,6.834,1.772,12.194,8.070,-3.500,7.337,5.934,10.904,5.963,5.113
Fri Nov 22 19:44:34 2024,225,-22.418,-22.418,-2.960,-2.960,-4.292,-3.262,14.676,6.720,1.723,12.099,8.041,-3.552,7.202,5.884,10.869,5.909,5.065
Fri Nov 22 19:44:34 2024,230,-22.675,-22.675,-3.054,-3.054,-4.236,-3.281,14.523,6.571,1.756,12.164,8.087,-3.676,6.953,5.854,10.759,5.983,5.133
Fri Nov 22 19:44:34 2024,235,-22.921,-22.921,-3.150,-3.150,-4.189,-3.298,14.372,6.426,1.783,12.220,8.128,-3.793,6.714,5.824,10.654,6.047,5.194
Fri Nov 22 19:44:34 2024,240,-23.148,-23.148,-3.236,-3.236,-4.146,-3.315,14.233,6.295,1.808,12.271,8.166,-3.900,6.495,5.796,10.558,6.107,5.250
Fri Nov 22 19:44:34 2024,245,-23.429,-23.429,-3.144,-3.144,-4.105,-3.252,14.387,6.569,1.781,12.128,8.165,-3.693,6.680,5.827,10.651,5.852,5.125
Fri Nov 22 19:44:34 2024,250,-23.652,-23.652,-3.147,-3.147,-4.073,-3.233,14.392,6.644,1.759,12.047,8.185,-3.637,6.666,5.851,10.687,5.749,5.113
Fri Nov 22 19:44:34 2024,255,-23.826,-23.826,-3.254,-3.254,-4.063,-3.258,14.264,6.588,1.676,11.896,8.238,-3.666,6.494,5.939,10.788,5.729,5.246
Fri Nov 22 19:44:34 2024,260,-23.972,-23.972,-3.337,-3.337,-4.054,-3.276,14.164,6.548,1.611,11.772,8.280,-3.688,6.358,6.008,10.868,5.710,5.350
Fri Nov 22 19:44:34 2024,265,-24.114,-24.114,-3.429,-3.429,-4.051,-3.251,14.122,6.601,1.609,11.641,8.254,-3.697,6.278,6.020,10.880,5.605,5.368
Fri Nov 22 19:44:34 2024,270,-24.216,-24.216,-3.497,-3.497,-4.050,-3.223,14.103,6.661,1.620,11.545,8.221,-3.701,6.233,6.016,10.875,5.509,5.361
Fri Nov 22 19:44:34 2024,275,-24.323,-24.323,-3.569,-3.569,-4.049,-3.194,14.083,6.724,1.632,11.442,8.185,-3.705,6.183,6.012,10.871,5.406,5.355
Fri Nov 22 19:44:34 2024,280,-24.514,-24.514,-3.536,-3.536,-4.024,-3.275,14.013,6.661,1.528,11.364,8.122,-3.687,6.198,5.939,10.827,5.320,5.191
Fri Nov 22 19:44:34 2024,285,-24.666,-24.666,-3.532,-3.532,-4.008,-3.320,13.962,6.636,1.462,11.286,8.071,-3.676,6.196,5.890,10.797,5.236,5.082
Fri Nov 22 19:44:34 2024,290,-24.712,-24.712,-3.643,-3.643,-4.067,-3.199,14.178,6.611,1.550,11.465,8.115,-3.585,6.341,5.982,10.899,5.184,5.143
Fri Nov 22 19:44:34 2024,295,-24.745,-24.745,-3.724,-3.724,-4.110,-3.109,14.337,6.592,1.616,11.597,8.147,-3.518,6.448,6.050,10.974,5.145,5.189
Fri Nov 22 19:44:34 2024,300,-24.776,-24.776,-3.799,-3.799,-4.148,-3.026,14.486,6.574,1.677,11.719,8.178,-3.454,6.549,6.114,11.044,5.108,5.232
Fri Nov 22 19:44:34 2024,305,-24.868,-24.868,-3.784,-3.784,-4.118,-3.212,14.226,6.562,1.598,11.524,8.198,-3.586,6.265,6.084,11.082,5.220,5.326
Fri Nov 22 19:44:34 2024,310,-24.925,-24.925,-3.798,-3.798,-4.115,-3.282,14.137,6.549,1.575,11.460,8.218,-3.636,6.149,6.088,11.122,5.265,5.387
Fri Nov 22 19:44:34 2024,315,-24.797,-24.797,-3.770,-3.770,-4.142,-3.167,14.401,6.619,1.636,11.636,8.260,-3.502,6.290,6.116,11.243,5.203,5.399
Fri Nov 22 19:44:34 2024,320,-24.721,-24.721,-3.753,-3.753,-4.159,-3.101,14.562,6.662,1.674,11.742,8.289,-3.421,6.368,6.135,11.327,5.168,5.414
Fri Nov 22 19:44:34 2024,325,-24.569,-24.569,-3.560,-3.560,-4.090,-3.188,14.527,6.727,1.645,11.872,8.312,-3.424,6.517,6.158,11.290,5.182,5.373
Fri Nov 22 19:44:34 2024,330,-24.408,-24.408,-3.340,-3.340,-4.007,-3.298,14.462,6.796,1.606,12.006,8.335,-3.438,6.677,6.182,11.236,5.204,5.324
Fri Nov 22 19:44:34 2024,335,-24.280,-24.280,-3.159,-3.159,-3.938,-3.388,14.409,6.851,1.575,12.116,8.354,-3.451,6.807,6.201,11.191,5.222,5.284
Fri Nov 22 19:44:34 2024,340,-24.181,-24.181,-3.017,-3.017,-3.883,-3.458,14.366,6.895,1.551,12.202,8.368,-3.460,6.909,6.216,11.157,5.236,5.253
Fri Nov 22 19:44:34 2024,345,-24.147,-24.147,-2.970,-2.970,-3.865,-3.481,14.352,6.909,1.543,12.230,8.373,-3.463,6.943,6.221,11.145,5.240,5.243
Fri Nov 22 19:44:34 2024,350,-22.607,-22.607,-0.823,-0.823,-2.647,-3.733,14.001,7.291,1.670,12.106,8.418,-3.380,6.818,6.281,11.166,5.300,5.512
Fri Nov 22 19:44:34 2024,355,-22.215,-22.215,-0.408,0.408,-2.301,-3.830,13.891,7.409,1.692,12.114,8.437,-3.363,6.833,6.305,11.156,5.321,5.568
Fri Nov 22 19:44:34 2024,360,-21.410,-21.410,-0.725,0.725,-2.190,-3.867,13.927,7.484,1.920,12.397,8.475,-3.135,7.015,6.305,11.306,5.286,5.551
Fri Nov 22 19:44:34 2024,365,-20.706,-20.706,-1.269,1.269,-2.181,-3.868,14.026,7.527,2.213,12.750,8.517,-2.839,7.246,6.297,11.509,5.225,5.505
Fri Nov 22 19:44:34 2024,370,-20.272,-20.272,1.819,1.819,-2.152,-3.869,14.116,7.567,2.481,13.050,8.556,-2.571,7.452,6.291,11.694,5.166,5.468
Fri Nov 22 19:44:34 2024,375,-19.854,-19.854,3.417,3.417,-1.408,-3.899,13.976,7.986,2.586,12.988,8.741,-2.221,7.612,6.506,12.167,5.089,5.946
Fri Nov 22 19:44:34 2024,380,-19.825,19.825,4.898,4.898,0.996,-3.921,13.886,8.323,2.728,13.002,8.893,-1.892,7.777,6.674,12.571,4.996,6.318
Fri Nov 22 19:44:34 2024,385,-19.817,19.817,6.720,6.720,1.437,-3.938,13.778,8.714,2.740,13.056,9.126,-1.635,7.909,6.937,12.992,4.797,6.622
Fri Nov 22 19:44:34 2024,390,-20.090,20.090,8.586,8.586,2.519,-3.951,13.674,9.088,2.736,13.111,9.353,-1.404,8.026,7.197,13.386,4.590,6.901
Fri Nov 22 19:44:34 2024,395,-20.607,20.607,10.333,10.333,3.736,-3.960,13.582,9.424,2.733,13.159,9.556,-1.201,8.128,7.430,13.738,4.396,7.154
Fri Nov 22 19:44:34 2024,400,-21.214,21.214,14.351,14.351,6.375,-4.337,12.973,9.086,2.580,12.599,9.467,-1.291,7.881,7.771,14.251,4.272,7.968
Fri Nov 22 19:44:34 2024,405,-21.870,21.870,17.073,17.073,8.503,-4.539,12.620,8.964,2.507,12.285,9.461,-1.300,7.761,8.002,14.586,4.155,8.469
Fri Nov 22 19:44:34 2024,410,-24.102,24.102,19.575,19.575,11.440,-4.656,11.720,9.244,2.522,11.402,10.066,-1.458,6.602,8.336,14.260,4.350,8.862
Fri Nov 22 19:44:34 2024,415,-26.325,26.325,21.872,21.872,14.219,-4.746,10.920,9.483,2.552,10.626,10.584,-1.579,5.599,8.621,13.990,4.502,9.208
Fri Nov 22 19:44:34 2024,420,-27.494,27.494,23.450,23.450,15.963,-4.699,9.854,9.527,2.469,9.822,10.769,-1.646,4.828,8.940,13.946,4.382,9.603
Fri Nov 22 19:44:34 2024,425,-28.358,28.358,25.108,25.108,17.799,-4.533,8.360,9.475,2.332,8.794,10.812,-1.692,4.000,9.347,14.033,4.067,10.113
Fri Nov 22 19:44:34 2024,430,-29.057,29.057,26.420,26.420,19.346,-4.380,7.241,9.436,2.258,8.024,10.840,-1.714,3.390,9.641,14.114,3.815,10.486
Fri Nov 22 19:44:34 2024,435,-29.685,29.685,26.777,26.777,19.770,-4.586,7.424,9.159,2.024,8.447,10.552,-1.790,4.142,9.478,14.150,4.072,10.457
Fri Nov 22 19:44:34 2024,440,-30.429,30.429,27.389,27.389,20.522,-4.719,7.323,8.921,1.817,8.619,10.321,-1.871,4.621,9.409,14.193,4.220,10.529
Fri Nov 22 19:44:34 2024,445,-30.916,30.916,27.843,27.843,21.022,-4.716,7.407,8.841,1.810,8.371,10.369,-1.812,4.515,9.534,14.183,4.042,10.549
Fri Nov 22 19:44:34 2024,450,-31.470,31.470,28.313,28.313,21.523,-4.702,7.512,8.764,1.815,8.073,10.438,-1.741,4.361,9.683,14.165,3.817,10.564
Fri Nov 22 19:44:34 2024,455,-32.087,32.087,28.780,28.780,22.007,-4.686,7.621,8.686,1.817,7.766,10.508,-1.670,4.200,9.838,14.142,3.574,10.576
Fri Nov 22 19:44:34 2024,460,-31.571,31.571,27.799,27.799,21.257,-4.565,7.320,8.180,1.988,7.569,10.215,-1.566,4.399,9.621,14.265,3.768,10.357
Fri Nov 22 19:44:34 2024,465,-31.469,31.469,27.271,27.271,20.881,-4.478,7.148,7.824,2.106,7.352,10.038,-1.480,4.486,9.520,14.336,3.826,10.217
Fri Nov 22 19:44:34 2024,470,-32.109,32.109,25.616,25.616,19.671,-4.731,7.339,7.736,2.085,7.984,9.956,-1.448,5.219,9.477,14.401,4.193,10.124
Fri Nov 22 19:44:34 2024,475,-32.601,32.601,24.342,24.342,18.676,-4.918,7.467,7.656,2.074,8.448,9.888,-1.426,5.772,9.442,14.452,4.434,10.048
Fri Nov 22 19:44:34 2024,480,-33.039,33.039,23.224,23.224,17.758,-5.082,7.574,7.587,2.062,8.850,9.829,-1.411,6.253,9.411,14.497,4.619,9.981
Fri Nov 22 19:44:34 2024,485,-33.218,33.218,22.847,22.847,17.672,-5.285,7.976,7.791,1.866,9.107,9.992,-1.366,6.585,9.628,14.402,4.964,10.480
Fri Nov 22 19:44:34 2024,490,-33.464,33.464,22.304,22.304,17.327,-5.442,8.202,7.873,1.761,9.365,10.055,-1.342,6.906,9.730,14.368,5.164,10.714
Fri Nov 22 19:44:34 2024,495,-33.680,33.680,21.733,21.733,16.826,-5.586,8.318,7.894,1.584,9.576,10.182,-1.377,7.027,9.844,14.193,5.384,10.835
Fri Nov 22 19:44:34 2024,500,-33.891,33.891,21.240,21.240,16.409,-5.714,8.428,7.921,1.440,9.764,10.283,-1.400,7.160,9.942,14.061,5.567,10.956
Fri Nov 22 19:44:34 2024,505,-33.776,33.776,20.934,20.934,16.209,-5.729,8.443,7.945,1.326,9.721,10.224,-1.446,7.236,9.948,13.972,5.709,11.111
Fri Nov 22 19:44:34 2024,510,-33.660,33.660,20.658,20.658,16.033,-5.735,8.451,7.968,1.223,9.662,10.156,-1.492,7.302,9.947,13.890,5.838,11.261
Fri Nov 22 19:44:34 2024,515,-33.567,33.567,20.400,20.400,15.865,-5.740,8.458,7.989,1.129,9.605,10.094,-1.535,7.363,9.947,13.814,5.955,11.401
Fri Nov 22 19:44:34 2024,520,-33.421,33.421,20.108,20.108,15.499,-5.669,8.540,7.875,1.211,9.689,9.963,-1.291,7.574,9.808,13.852,5.911,11.225
Fri Nov 22 19:44:34 2024,525,-33.336,33.336,19.899,19.899,15.267,-5.633,8.586,7.818,1.237,9.723,9.881,-1.171,7.696,9.734,13.858,5.909,11.158
Fri Nov 22 19:44:34 2024,530,-32.837,32.837,19.751,19.751,15.248,-5.567,8.544,7.789,1.245,9.644,9.896,-1.139,7.721,9.778,13.806,5.971,11.263
Fri Nov 22 19:44:34 2024,535,-32.426,32.426,19.625,19.625,15.232,-5.509,8.504,7.766,1.251,9.573,9.913,-1.116,7.736,9.819,13.760,6.025,11.359
Fri Nov 22 19:44:34 2024,540,-32.134,32.134,19.527,19.527,15.214,-5.466,8.475,7.750,1.256,9.519,9.926,-1.098,7.748,9.851,13.726,6.066,11.431
Fri Nov 22 19:44:34 2024,545,-32.017,32.017,19.332,19.332,15.078,-5.460,8.435,7.534,1.104,9.422,9.618,-1.133,7.630,9.506,13.607,6.170,11.140
Fri Nov 22 19:44:34 2024,550,-31.853,31.853,19.184,19.184,14.992,-5.440,8.401,7.409,1.023,9.347,9.454,-1.146,7.569,9.328,13.529,6.242,11.009
Fri Nov 22 19:44:34 2024,555,0.002,31.897,18.598,18.598,14.519,-5.503,8.401,7.406,0.935,9.301,9.458,-1.216,7.544,9.292,13.408,6.331,10.884
Fri Nov 22 19:44:34 2024,560,31.913,31.913,18.219,18.219,14.215,-5.540,8.397,7.391,0.873,9.263,9.443,-1.263,7.520,9.250,13.325,6.393,10.793
Fri Nov 22 19:44:34 2024,565,31.933,31.933,17.857,17.857,13.923,-5.576,8.393,7.376,0.814,9.226,9.428,-1.307,7.498,9.210,13.246,6.452,10.706
Fri Nov 22 19:44:34 2024,570,31.764,31.764,17.703,17.703,13.989,-5.599,8.036,7.227,0.659,9.214,9.281,-1.465,7.512,9.096,13.113,6.566,10.598
Fri Nov 22 19:44:34 2024,575,31.703,31.703,17.518,17.518,13.919,-5.622,7.883,7.159,0.582,9.196,9.214,-1.547,7.510,9.034,13.030,6.633,10.523
Fri Nov 22 19:44:34 2024,580,31.507,31.507,17.420,17.420,13.753,-5.587,8.210,7.192,0.578,9.271,9.143,-1.481,7.874,9.004,13.093,6.530,10.167
Fri Nov 22 19:44:34 2024,585,31.367,31.367,17.298,17.298,13.620,-5.571,8.372,7.193,0.554,9.314,9.078,-1.462,8.106,8.966,13.107,6.484,9.918
Fri Nov 22 19:44:34 2024,590,31.280,31.280,17.218,17.218,13.530,-5.560,8.478,7.194,0.538,9.342,9.036,-1.450,8.256,8.942,13.116,6.453,9.759
Fri Nov 22 19:44:34 2024,595,31.037,31.037,16.504,16.504,12.955,-5.385,8.655,7.178,0.444,9.345,8.888,-1.617,7.994,8.721,12.987,6.659,9.990
Fri Nov 22 19:44:34 2024,600,30.922,30.922,16.215,16.215,12.729,-5.350,8.670,7.116,0.411,9.358,8.830,-1.698,7.957,8.650,12.922,6.738,9.996
Fri Nov 22 19:44:34 2024,605,30.797,30.797,15.877,15.877,12.497,-5.377,8.488,6.922,0.383,9.375,8.790,-1.850,7.897,8.601,12.798,6.870,9.981
Fri Nov 22 19:44:34 2024,610,30.707,30.707,15.622,15.622,12.314,-5.382,8.393,6.803,-0.381,9.386,8.754,-1.952,7.855,8.557,12.715,6.962,9.975
Fri Nov 22 19:44:34 2024,615,30.815,30.815,15.594,15.594,12.239,-5.293,8.495,6.876,-0.367,9.582,8.842,-1.961,7.962,8.522,12.675,6.966,9.817
Fri Nov 22 19:44:34 2024,620,30.874,30.874,15.521,15.521,12.146,-5.230,8.548,6.904,-0.358,9.726,8.900,-1.989,8.030,8.486,12.629,6.988,9.702
Fri Nov 22 19:44:34 2024,625,30.802,30.802,15.226,15.226,11.936,-5.228,8.573,6.899,-0.390,9.642,8.870,-2.020,8.092,8.550,12.648,7.002,9.781
Fri Nov 22 19:44:34 2024,630,30.712,30.712,14.890,14.890,11.702,-5.235,8.594,6.889,-0.449,9.522,8.827,-2.054,8.155,8.629,12.676,7.015,9.889
Fri Nov 22 19:44:34 2024,635,30.648,30.648,14.644,14.644,11.530,-5.240,8.610,6.882,-0.505,9.433,8.796,-2.078,8.201,8.687,12.696,7.022,9.969
Fri Nov 22 19:44:34 2024,640,30.444,30.444,14.277,14.277,11.168,-5.151,8.803,6.905,-0.504,9.608,8.755,-2.253,8.225,8.524,12.590,7.122,9.704
Fri Nov 22 19:44:34 2024,645,30.303,30.303,13.972,13.972,10.888,-5.096,8.930,6.917,-0.522,9.691,8.719,-2.370,8.252,8.439,12.530,7.187,9.561
Fri Nov 22 19:44:34 2024,650,30.071,30.071,13.647,13.647,10.599,-5.121,8.958,6.923,-0.581,9.851,8.777,-2.352,8.408,8.498,12.510,7.242,9.634
Fri Nov 22 19:44:34 2024,655,29.860,29.860,13.344,13.344,10.327,-5.143,8.985,6.928,-0.641,9.998,8.830,-2.338,8.551,8.552,12.491,7.291,9.698
Fri Nov 22 19:44:34 2024,660,29.684,29.684,13.085,13.085,10.092,-5.162,9.009,6.932,-0.696,10.122,8.875,-2.326,8.673,8.597,12.475,7.331,9.753
Fri Nov 22 19:44:34 2024,665,29.417,29.417,12.950,12.950,10.053,-5.116,8.995,6.933,-0.750,10.033,8.920,-2.530,8.340,8.560,12.462,7.271,9.653
Fri Nov 22 19:44:34 2024,670,29.236,29.236,12.803,12.803,9.962,-5.099,8.995,6.935,-0.794,10.027,8.956,-2.628,8.214,8.556,12.450,7.251,9.621
Fri Nov 22 19:44:34 2024,675,29.317,29.317,12.474,12.474,9.734,-5.082,8.929,6.845,-0.911,9.964,8.860,-2.661,8.342,8.559,12.410,7.337,9.722
Fri Nov 22 19:44:34 2024,680,29.346,29.346,12.177,12.177,9.530,-5.064,8.875,6.772,-1.018,9.912,8.790,-2.709,8.418,8.560,12.375,7.400,9.799
Fri Nov 22 19:44:34 2024,685,29.370,29.370,11.942,11.942,9.369,-5.050,8.833,6.715,-1.102,9.868,8.734,-2.747,8.480,8.561,12.348,7.450,9.860
Fri Nov 22 19:44:34 2024,690,29.023,29.023,11.882,11.882,9.193,-5.030,9.162,6.964,-1.057,10.245,8.976,-2.775,8.527,8.681,12.431,7.357,9.778
Fri Nov 22 19:44:34 2024,695,28.908,28.908,11.756,11.756,9.070,-5.024,9.222,7.010,-1.072,10.326,9.022,-2.782,8.565,8.714,12.468,7.328,9.800
Fri Nov 22 19:44:34 2024,700,28.828,28.828,11.574,11.574,8.951,-5.035,9.142,6.969,-1.100,10.271,8.992,-2.745,8.600,8.711,12.542,7.276,9.904
Fri Nov 22 19:44:34 2024,705,28.740,28.740,11.398,11.398,8.828,-5.043,9.084,6.943,-1.126,10.239,8.975,-2.715,8.636,8.714,12.610,7.226,9.997
Fri Nov 22 19:44:34 2024,710,28.688,28.688,11.291,11.291,8.753,-5.047,9.050,6.927,-1.141,10.220,8.964,-2.698,8.657,8.716,12.651,7.196,10.054
Fri Nov 22 19:44:34 2024,715,28.706,28.706,11.217,11.217,8.645,-4.928,9.362,6.960,-1.189,10.293,9.058,-2.766,8.761,8.848,12.609,7.223,10.000
Fri Nov 22 19:44:34 2024,720,28.690,28.690,11.097,11.097,8.567,-4.899,9.355,6.910,-1.227,10.288,8.989,-2.804,8.687,8.736,12.582,7.246,9.927
Fri Nov 22 19:44:34 2024,725,28.678,28.678,10.975,10.975,8.496,-4.878,9.310,6.847,-1.266,10.275,8.892,-2.845,8.580,8.582,12.549,7.275,9.835
Fri Nov 22 19:44:34 2024,730,28.667,28.667,10.864,10.864,8.431,-4.859,9.269,6.789,-1.301,10.264,8.805,-2.882,8.484,8.443,12.518,7.302,9.753
Fri Nov 22 19:44:34 2024,735,28.573,28.573,10.992,10.992,8.518,-4.866,9.435,6.892,-1.404,10.236,8.923,-2.939,8.501,8.546,12.433,7.394,9.826
Fri Nov 22 19:44:34 2024,740,28.499,28.499,11.081,11.081,8.581,-4.870,9.559,6.967,-1.487,10.212,9.007,-2.986,8.504,8.613,12.365,7.470,9.876
Fri Nov 22 19:44:34 2024,745,28.450,28.450,11.137,11.137,8.620,-4.873,9.640,7.015,-1.543,10.196,9.060,-3.018,8.505,8.654,12.319,7.520,9.906
Fri Nov 22 19:44:34 2024,750,28.352,28.352,10.778,10.778,8.314,-4.725,9.747,6.959,-1.413,10.354,8.955,-2.918,8.707,8.691,12.401,7.456,9.901
Fri Nov 22 19:44:34 2024,755,28.313,28.313,10.668,10.668,8.221,-4.694,9.790,6.948,-1.404,10.387,8.936,-2.927,8.722,8.687,12.388,7.477,9.894
Fri Nov 22 19:44:34 2024,760,28.323,28.323,10.596,10.596,8.171,-4.741,9.746,6.922,-1.454,10.351,8.921,-3.039,8.552,8.587,12.297,7.575,9.841
Fri Nov 22 19:44:34 2024,765,28.325,28.325,10.532,10.532,8.125,-4.768,9.722,6.902,-1.487,10.331,8.908,-3.116,8.439,8.519,12.234,7.644,9.805
Fri Nov 22 19:44:34 2024,770,28.327,28.327,10.473,10.473,8.082,-4.792,9.700,6.885,-1.517,10.312,8.897,-3.187,8.336,8.458,12.177,7.707,9.771
Fri Nov 22 19:44:34 2024,775,28.412,28.412,10.794,10.794,8.375,-4.709,9.646,6.903,-1.414,10.224,8.948,-3.044,8.502,8.632,12.314,7.570,9.926
Fri Nov 22 19:44:34 2024,780,28.249,28.249,10.729,10.729,8.256,-4.684,9.799,6.914,-1.392,10.353,8.946,-2.995,8.595,8.637,12.364,7.533,9.952
Fri Nov 22 19:44:34 2024,785,28.051,28.051,10.611,10.611,8.079,-4.666,9.985,6.927,-1.379,10.516,8.937,-2.952,8.688,8.622,12.407,7.504,9.959
Fri Nov 22 19:44:34 2024,790,27.862,27.862,10.500,10.500,7.912,-4.648,10.162,6.939,-1.367,10.673,8.929,-2.910,8.776,8.607,12.448,7.474,9.966
Fri Nov 22 19:44:34 2024,795,27.725,27.725,10.419,10.419,7.792,-4.635,10.291,6.947,-1.358,10.787,8.923,-2.880,8.841,8.596,12.479,7.452,9.971
Fri Nov 22 19:44:34 2024,800,27.974,27.974,10.901,10.901,8.350,-4.580,9.967,6.873,-1.186,10.588,8.941,-2.933,8.901,8.698,12.421,7.497,9.976
Fri Nov 22 19:44:34 2024,805,27.969,27.969,11.090,11.090,8.523,-4.596,9.826,6.929,-1.163,10.531,8.971,-2.946,8.768,8.695,12.425,7.475,9.958
Fri Nov 22 19:44:34 2024,810,27.964,27.964,11.296,11.296,8.708,-4.620,9.666,6.998,-1.144,10.466,9.006,-2.961,8.603,8.687,12.430,7.447,9.936
Fri Nov 22 19:44:34 2024,815,27.960,27.960,11.481,11.481,8.872,-4.642,9.522,7.059,-1.129,10.407,9.038,-2.975,8.455,8.679,12.435,7.420,9.916
Fri Nov 22 19:44:34 2024,820,28.080,28.080,12.407,12.407,9.605,-4.480,9.733,7.108,-0.927,10.514,9.049,-2.741,8.663,8.739,12.561,7.304,10.028
Fri Nov 22 19:44:34 2024,825,28.171,28.171,13.118,13.118,10.179,-4.374,9.834,7.162,-0.784,10.567,9.067,-2.582,8.759,8.779,12.651,7.214,10.101
Fri Nov 22 19:44:34 2024,830,28.178,28.178,13.582,13.582,10.522,-4.341,9.766,7.200,-0.666,10.492,9.064,-2.478,8.760,8.826,12.770,7.092,10.170
Fri Nov 22 19:44:34 2024,835,28.108,28.108,13.882,13.882,10.695,-4.368,9.534,7.231,-0.558,10.290,9.041,-2.408,8.677,8.884,12.934,6.919,10.248
Fri Nov 22 19:44:34 2024,840,28.090,28.090,14.194,14.194,10.904,-4.363,9.420,7.259,-0.479,10.181,9.031,-2.336,8.647,8.925,13.046,6.802,10.307
Fri Nov 22 19:44:34 2024,845,28.205,28.205,15.404,15.404,11.975,-4.231,9.519,7.555,-0.371,10.050,9.114,-2.242,8.682,9.027,13.093,6.748,10.452
Fri Nov 22 19:44:34 2024,850,28.270,28.270,16.001,16.001,12.484,-4.174,9.533,7.688,-0.345,9.965,9.147,-2.185,8.688,9.080,13.140,6.696,10.530
Fri Nov 22 19:44:34 2024,855,28.546,28.546,16.702,16.702,13.012,-4.160,9.215,7.792,0.347,10.046,9.449,-2.076,8.608,9.382,13.290,6.573,10.927
Fri Nov 22 19:44:34 2024,860,28.764,28.764,17.234,17.234,13.411,-4.142,9.007,7.877,0.385,10.088,9.652,-1.996,8.555,9.588,13.394,6.485,11.200
Fri Nov 22 19:44:34 2024,865,28.842,28.842,18.247,18.247,14.224,-4.123,8.926,8.005,0.442,9.920,9.687,-2.062,8.401,9.689,13.425,6.445,11.359
Fri Nov 22 19:44:34 2024,870,28.908,28.908,19.152,19.152,14.940,-4.107,8.884,8.115,0.493,9.743,9.684,-2.143,8.257,9.751,13.435,6.421,11.466
Fri Nov 22 19:44:34 2024,875,28.989,28.989,19.910,19.910,15.525,-4.093,8.849,8.209,0.537,9.594,9.680,-2.212,8.136,9.803,13.444,6.401,11.558
Fri Nov 22 19:44:34 2024,880,-28.513,28.513,20.850,20.850,16.274,-4.156,8.882,8.460,0.654,9.881,9.882,-2.372,8.372,10.059,13.741,6.087,11.549
Fri Nov 22 19:44:34 2024,885,-28.295,28.295,21.776,21.776,16.990,-4.198,8.895,8.674,0.769,10.041,10.027,-2.510,8.505,10.265,13.960,5.850,11.573
Fri Nov 22 19:44:34 2024,890,-28.031,28.031,23.093,23.093,17.970,-4.069,8.408,8.591,0.931,9.478,10.044,-2.389,7.771,10.192,14.032,5.603,11.515
Fri Nov 22 19:44:34 2024,895,-27.818,27.818,24.407,24.407,18.895,-3.953,7.932,8.525,1.095,8.947,10.069,-2.290,7.071,10.137,14.116,5.302,11.460
Fri Nov 22 19:44:34 2024,900,-27.696,27.696,25.353,25.353,19.528,-3.873,7.583,8.478,1.213,8.562,10.087,-2.224,6.561,10.099,14.176,5.055,11.418
Fri Nov 22 19:44:34 2024,905,-26.907,26.907,26.765,26.765,20.707,-4.017,7.103,8.946,1.181,7.954,10.181,-2.446,5.728,10.142,14.106,4.714,11.656
Fri Nov 22 19:44:34 2024,910,-26.519,26.519,27.824,27.824,21.488,-4.074,6.730,9.178,1.200,7.503,10.236,-2.552,5.115,10.149,14.084,4.396,11.765
Fri Nov 22 19:44:34 2024,915,-25.827,25.827,27.388,27.388,21.002,-4.021,6.485,9.403,1.222,7.375,10.093,-2.745,4.725,9.800,14.117,4.202,11.464
Fri Nov 22 19:44:34 2024,920,-25.223,25.223,25.395,25.395,19.207,-3.855,6.474,9.534,1.244,7.660,9.779,-2.960,4.732,9.186,14.201,4.249,10.813
Fri Nov 22 19:44:34 2024,925,-24.460,24.460,23.491,23.491,17.475,-3.836,6.998,9.462,1.372,7.877,9.652,-3.207,4.520,8.702,13.896,4.602,10.319
Fri Nov 22 19:44:34 2024,930,-23.872,23.872,22.137,22.137,16.326,-3.846,7.490,9.367,1.490,8.028,9.587,-3.402,4.318,8.360,13.596,4.925,9.972
Fri Nov 22 19:44:34 2024,935,-23.529,23.529,20.158,20.158,14.619,-4.042,8.273,9.327,1.512,8.530,9.583,-3.569,4.373,8.103,13.413,5.163,9.664
Fri Nov 22 19:44:34 2024,940,-23.540,23.540,18.403,18.403,13.071,-4.326,8.992,9.356,1.442,9.158,9.640,-3.637,4.648,8.028,13.418,5.221,9.524
Fri Nov 22 19:44:34 2024,945,-23.570,23.570,16.912,16.912,11.818,-4.569,9.607,9.380,1.387,9.715,9.690,-3.695,4.891,7.960,13.425,5.269,9.403
Fri Nov 22 19:44:34 2024,950,-22.700,22.700,14.276,14.276,8.927,-4.454,10.287,9.210,1.314,10.195,9.193,-3.597,5.579,7.775,13.679,5.102,9.173
Fri Nov 22 19:44:34 2024,955,-22.056,22.056,12.176,12.176,6.644,-4.356,10.828,9.074,1.260,10.575,8.795,-3.514,6.128,7.626,13.884,4.964,8.993
Fri Nov 22 19:44:34 2024,960,-21.638,21.638,10.726,10.726,5.120,-4.286,11.204,8.980,1.225,10.839,8.517,-3.454,6.511,7.523,14.026,4.865,8.870
Fri Nov 22 19:44:34 2024,965,-20.596,20.596,8.769,8.769,3.390,-3.920,12.314,9.011,1.630,11.875,9.010,-2.957,7.381,7.725,14.282,4.784,8.821
Fri Nov 22 19:44:34 2024,970,-20.000,20.000,7.345,7.345,2.203,-3.709,13.009,8.994,1.834,12.479,9.171,-2.680,7.957,7.794,14.465,4.696,8.753
Fri Nov 22 19:44:34 2024,975,-20.394,20.394,5.460,5.460,0.999,-3.728,13.088,8.968,1.869,12.610,9.282,-2.674,8.070,7.740,14.312,4.808,8.500
Fri Nov 22 19:44:34 2024,980,-20.585,20.585,3.844,3.844,-0.892,-3.700,13.280,8.946,1.936,12.818,9.394,-2.614,8.264,7.714,14.238,4.871,8.305
Fri Nov 22 19:44:34 2024,985,-20.749,20.749,2.573,2.573,-1.567,-3.677,13.433,8.929,1.990,12.983,9.485,-2.566,8.419,7.694,14.178,4.922,8.150
Fri Nov 22 19:44:34 2024,990,-21.567,21.567,-0.765,-0.765,-4.051,-3.504,13.855,8.755,2.467,13.226,9.402,-2.197,8.741,7.494,14.476,4.751,7.811
Fri Nov 22 19:44:34 2024,995,-22.035,22.035,-2.448,-2.448,-5.481,-3.411,14.121,8.665,2.720,13.384,9.397,-2.000,8.955,7.389,14.597,4.684,7.585
Fri Nov 22 19:44:35 2024,0,-21.988,21.988,-4.274,-4.274,-6.692,-3.272,14.559,8.231,2.751,13.480,9.220,-1.900,9.260,7.194,14.511,4.820,7.266
Fri Nov 22 19:44:35 2024,5,-22.086,22.086,-5.711,-5.711,-7.574,-3.172,14.863,7.966,2.827,13.565,9.119,-1.799,9.480,7.060,14.492,4.879,7.036
Fri Nov 22 19:44:35 2024,10,-21.471,21.471,-6.247,-6.247,-7.797,-3.321,14.744,7.945,2.684,13.447,9.069,-2.014,9.467,7.039,14.318,5.019,6.982
Fri Nov 22 19:44:35 2024,15,-21.054,21.054,-6.752,-6.752,-8.009,-3.434,14.663,7.915,2.573,13.352,9.024,-2.181,9.465,7.014,14.179,5.134,6.927
Fri Nov 22 19:44:35 2024,20,-20.895,20.895,-7.265,-7.265,-8.279,-3.364,14.821,7.818,2.609,13.391,8.997,-2.198,9.513,6.955,14.121,5.162,6.787
Fri Nov 22 19:44:35 2024,25,-20.891,20.891,-7.740,-7.740,-8.546,-3.190,15.108,7.690,2.728,13.500,8.982,-2.128,9.585,6.878,14.112,5.139,6.605
Fri Nov 22 19:44:35 2024,30,-20.909,20.909,-8.190,-8.190,-8.781,-3.020,15.389,7.563,2.844,13.602,8.967,-2.059,9.657,6.803,14.103,5.116,6.427
Fri Nov 22 19:44:35 2024,35,-20.935,20.935,-8.485,-8.485,-8.921,-2.905,15.579,7.477,2.924,13.668,8.957,-2.012,9.704,6.752,14.098,5.099,6.307
Fri Nov 22 19:44:35 2024,40,-20.925,20.925,-7.973,-7.973,-8.551,-3.153,15.278,7.704,2.712,13.419,8.865,-2.370,9.438,6.702,13.929,5.171,6.238
Fri Nov 22 19:44:35 2024,45,-20.658,20.658,-7.752,-7.752,-8.344,-3.099,15.234,7.689,2.717,13.338,8.962,-2.387,9.245,6.740,13.762,5.215,6.235
Fri Nov 22 19:44:35 2024,50,-20.426,20.426,-7.522,-7.522,-8.135,-3.034,15.185,7.664,2.731,13.262,9.077,-2.383,9.049,6.791,13.591,5.253,6.250
Fri Nov 22 19:44:35 2024,55,-20.287,20.287,-7.336,-7.336,-7.967,-2.981,15.143,7.644,2.743,13.199,9.172,-2.380,8.887,6.832,13.450,5.279,6.263
Fri Nov 22 19:44:35 2024,60,-20.273,-20.273,-7.083,-7.083,-7.730,-2.986,15.149,7.525,2.525,13.171,9.014,-2.556,8.774,6.728,13.246,5.397,6.159
Fri Nov 22 19:44:35 2024,65,-20.304,-20.304,-6.894,-6.894,-7.556,-2.977,15.144,7.452,2.400,13.137,8.942,-2.659,8.672,6.676,13.096,5.468,6.101
Fri Nov 22 19:44:35 2024,70,-20.380,-20.380,-6.618,-6.618,-7.270,-3.029,14.873,7.410,2.216,12.931,8.952,-2.767,8.366,6.758,12.973,5.463,6.233
Fri Nov 22 19:44:35 2024,75,-20.541,-20.541,-6.315,-6.315,-6.944,-3.110,14.481,7.386,2.010,12.640,9.003,-2.871,7.972,6.902,12.870,5.416,6.452
Fri Nov 22 19:44:35 2024,80,-20.771,-20.771,-6.028,-6.028,-6.658,-3.115,14.287,7.354,1.851,12.435,8.983,-3.003,7.644,6.898,12.715,5.375,6.466
Fri Nov 22 19:44:35 2024,85,-20.966,-20.966,-5.780,-5.780,-6.432,-3.038,14.307,7.326,1.760,12.333,8.896,-3.151,7.390,6.742,12.523,5.325,6.265
Fri Nov 22 19:44:35 2024,90,-21.195,-21.195,-5.549,-5.549,-6.215,-2.986,14.277,7.299,1.662,12.216,8.833,-3.284,7.141,6.633,12.355,5.270,6.130
Fri Nov 22 19:44:35 2024,95,-21.342,-21.342,-5.324,-5.324,-5.997,-3.031,14.141,7.207,1.507,11.961,8.603,-3.402,6.876,6.434,12.158,5.246,5.888
Fri Nov 22 19:44:35 2024,100,-21.526,-21.526,-5.093,-5.093,-5.772,-3.087,13.993,7.108,1.341,11.684,8.355,-3.524,6.602,6.222,11.951,5.217,5.633
Fri Nov 22 19:44:35 2024,105,-21.702,-21.702,-4.931,-4.931,-5.615,-3.118,13.896,7.043,1.229,11.498,8.195,-3.612,6.410,6.082,11.807,5.187,5.466
Fri Nov 22 19:44:35 2024,110,-21.621,-21.621,-4.990,-4.990,-5.447,-2.998,14.086,7.106,1.332,11.553,8.412,-3.637,6.445,6.335,11.730,5.274,5.800
Fri Nov 22 19:44:35 2024,115,-21.694,-21.694,-4.958,-4.958,-5.325,-2.959,14.132,7.111,1.337,11.513,8.448,-3.677,6.395,6.393,11.651,5.299,5.882
Fri Nov 22 19:44:35 2024,120,-21.607,-21.607,-5.109,-5.109,-5.543,-2.812,14.338,7.095,1.387,11.471,8.366,-3.560,6.418,6.319,11.665,5.164,5.674
Fri Nov 22 19:44:35 2024,125,-21.588,-21.588,-5.200,-5.200,-5.647,-2.703,14.488,7.086,1.421,11.431,8.323,-3.495,6.416,6.288,11.649,5.081,5.563
Fri Nov 22 19:44:35 2024,130,-21.621,-21.621,-5.209,-5.209,-5.653,-2.846,14.337,7.025,1.315,11.430,8.303,-3.598,6.368,6.270,11.530,5.156,5.482
Fri Nov 22 19:44:35 2024,135,-21.675,-21.675,-5.220,-5.220,-5.659,-2.964,14.213,6.975,1.226,11.427,8.285,-3.684,6.327,6.255,11.432,5.218,5.414
Fri Nov 22 19:44:35 2024,140,-21.728,-21.728,-5.227,-5.227,-5.663,-3.051,14.121,6.938,1.161,11.424,8.272,-3.748,6.295,6.244,11.358,5.262,5.364
Fri Nov 22 19:44:35 2024,145,-21.621,-21.621,-5.332,-5.332,-5.834,-2.952,14.402,6.966,1.227,11.510,8.233,-3.657,6.377,6.215,11.459,5.208,5.376
Fri Nov 22 19:44:35 2024,150,-21.595,-21.595,-5.388,-5.388,-5.922,-2.931,14.513,6.969,1.239,11.553,8.209,-3.632,6.409,6.196,11.486,5.195,5.366
Fri Nov 22 19:44:35 2024,155,-21.587,-21.587,-5.458,-5.458,-5.930,-2.947,14.517,6.937,1.304,11.408,8.156,-3.571,6.385,6.176,11.396,5.191,5.330
Fri Nov 22 19:44:35 2024,160,-21.597,-21.597,-5.516,-5.516,-5.949,-2.954,14.539,6.915,1.351,11.315,8.116,-3.525,6.374,6.160,11.338,5.185,5.303
Fri Nov 22 19:44:35 2024,165,-21.639,-21.639,-5.564,-5.564,-6.020,-3.041,14.561,6.908,1.359,11.364,8.094,-3.478,6.462,6.178,11.316,5.182,5.250
Fri Nov 22 19:44:35 2024,170,-21.708,-21.708,-5.596,-5.596,-6.148,-3.216,14.579,6.921,1.316,11.584,8.099,-3.437,6.666,6.238,11.342,5.182,5.170
Fri Nov 22 19:44:35 2024,175,-21.776,-21.776,-5.631,-5.631,-6.244,-3.343,14.590,6.925,1.295,11.722,8.094,-3.397,6.811,6.279,11.348,5.180,5.108
Fri Nov 22 19:44:35 2024,180,-21.672,-21.672,-5.804,-5.804,-6.326,-3.108,14.818,7.017,1.439,11.550,8.160,-3.351,6.649,6.285,11.462,5.129,5.211
Fri Nov 22 19:44:35 2024,185,-21.631,-21.631,-5.930,-5.930,-6.406,-2.983,14.975,7.080,1.531,11.470,8.204,-3.310,6.578,6.300,11.540,5.093,5.265
Fri Nov 22 19:44:35 2024,190,-21.774,-21.774,-5.770,-5.770,-6.343,-3.151,14.864,7.114,1.492,11.664,8.290,-3.251,6.771,6.441,11.544,5.197,5.379
Fri Nov 22 19:44:35 2024,195,-21.895,-21.895,-5.648,-5.648,-6.296,-3.280,14.782,7.148,1.467,11.818,8.365,-3.199,6.926,6.560,11.553,5.279,5.478
Fri Nov 22 19:44:35 2024,200,-22.018,-22.018,-5.593,-5.593,-6.282,-3.336,14.785,7.176,1.447,11.838,8.360,-3.157,6.950,6.584,11.556,5.290,5.506
Fri Nov 22 19:44:35 2024,205,-22.179,-22.179,-5.629,-5.629,-6.318,-3.299,14.920,7.198,1.429,11.656,8.234,-3.120,6.781,6.470,11.549,5.196,5.435
Fri Nov 22 19:44:35 2024,210,-22.307,-22.307,-5.640,-5.640,-6.338,-3.288,15.000,7.217,1.414,11.551,8.158,-3.089,6.686,6.408,11.546,5.141,5.399
Fri Nov 22 19:44:35 2024,215,-22.436,-22.436,-5.646,-5.646,-6.425,-3.306,14.983,7.125,1.499,11.669,8.180,-3.200,6.728,6.376,11.450,5.201,5.307
Fri Nov 22 19:44:35 2024,220,-22.562,-22.562,-5.653,-5.653,-6.492,-3.318,14.986,7.060,1.560,11.737,8.183,-3.278,6.742,6.340,11.378,5.235,5.232
Fri Nov 22 19:44:35 2024,225,-22.674,-22.674,-5.645,-5.645,-6.516,-3.348,14.983,7.064,1.561,11.759,8.183,-3.284,6.759,6.341,11.354,5.235,5.210
Fri Nov 22 19:44:35 2024,230,-22.841,-22.841,-5.609,-5.609,-6.487,-3.432,14.967,7.192,1.462,11.719,8.181,-3.173,6.795,6.405,11.394,5.180,5.256
Fri Nov 22 19:44:35 2024,235,-22.991,-22.991,-5.586,-5.586,-6.483,-3.494,14.956,7.266,1.407,11.707,8.180,-3.114,6.823,6.441,11.404,5.148,5.273
Fri Nov 22 19:44:35 2024,240,-23.072,-23.072,-5.478,-5.478,-6.435,-3.411,15.178,7.246,1.472,11.865,8.108,-3.078,6.955,6.379,11.511,5.259,5.382
Fri Nov 22 19:44:35 2024,245,-23.164,-23.164,-5.406,-5.406,-6.403,-3.378,15.308,7.254,1.496,11.960,8.063,-3.040,7.044,6.351,11.580,5.317,5.455
Fri Nov 22 19:44:35 2024,250,-23.057,-23.057,-5.683,-5.683,-6.572,-3.402,15.157,7.239,1.550,11.838,8.139,-3.047,6.960,6.375,11.558,5.227,5.388
Fri Nov 22 19:44:35 2024,255,-22.983,-22.983,-5.877,-5.877,-6.690,-3.419,15.050,7.230,1.588,11.753,8.191,-3.051,6.902,6.392,11.543,5.163,5.343
Fri Nov 22 19:44:35 2024,260,-22.898,-22.898,-6.104,-6.104,-6.825,-3.438,14.925,7.218,1.633,11.655,8.252,-3.055,6.835,6.411,11.527,5.089,5.290
Fri Nov 22 19:44:35 2024,265,-23.131,-23.131,-5.756,-5.756,-6.668,-3.427,15.001,7.035,1.537,11.742,7.980,-3.089,6.869,6.238,11.502,5.205,5.322
Fri Nov 22 19:44:35 2024,270,-23.247,-23.247,-5.622,-5.622,-6.619,-3.427,15.002,6.916,1.493,11.760,7.834,-3.111,6.865,6.138,11.480,5.250,5.322
Fri Nov 22 19:44:35 2024,275,-23.337,-23.337,-5.669,-5.669,-6.672,-3.451,14.957,6.928,1.546,11.725,7.900,-3.101,6.837,6.164,11.507,5.229,5.315
Fri Nov 22 19:44:35 2024,280,-23.441,-23.441,-5.681,-5.681,-6.708,-3.472,14.919,6.915,1.584,11.698,7.928,-3.097,6.811,6.166,11.525,5.220,5.309
Fri Nov 22 19:44:35 2024,285,-23.464,-23.464,-5.787,-5.787,-6.771,-3.451,14.898,6.922,1.626,11.685,7.978,-3.062,6.782,6.191,11.542,5.162,5.301
Fri Nov 22 19:44:35 2024,290,-23.451,-23.451,-5.966,-5.966,-6.866,-3.403,14.881,6.942,1.681,11.676,8.051,-3.004,6.745,6.234,11.562,5.064,5.290
Fri Nov 22 19:44:35 2024,295,-23.452,-23.452,-6.086,-6.086,-6.931,-3.373,14.866,6.954,1.720,11.666,8.101,-2.965,6.718,6.262,11.577,4.999,5.282
Fri Nov 22 19:44:35 2024,300,-23.510,-23.510,-6.012,-6.012,-6.927,-3.278,15.120,7.022,1.716,11.587,8.009,-2.912,6.902,6.280,11.650,5.103,5.401
Fri Nov 22 19:44:35 2024,305,-23.544,-23.544,-5.998,-5.998,-6.940,-3.216,15.260,7.063,1.723,11.540,7.969,-2.873,7.000,6.297,11.695,5.146,5.467
Fri Nov 22 19:44:35 2024,310,-23.613,-23.613,-5.962,-5.962,-6.937,-3.094,15.359,6.958,1.844,11.567,7.955,-2.731,7.026,6.275,11.681,5.184,5.433
Fri Nov 22 19:44:35 2024,315,-23.666,-23.666,-5.935,-5.935,-6.933,-3.003,15.430,6.876,1.938,11.588,7.946,-2.623,7.042,6.258,11.669,5.211,5.405
Fri Nov 22 19:44:35 2024,320,-23.666,-23.666,-5.900,-5.900,-6.918,-2.903,15.505,6.845,1.973,11.538,7.927,-2.508,7.126,6.266,11.681,5.226,5.374
Fri Nov 22 19:44:35 2024,325,-23.568,-23.568,-5.854,-5.854,-6.882,-2.797,15.581,6.909,1.898,11.362,7.892,-2.388,7.328,6.319,11.735,5.214,5.344
Fri Nov 22 19:44:35 2024,330,-23.504,-23.504,-5.816,-5.816,-6.854,-2.705,15.648,6.944,1.856,11.234,7.866,-2.282,7.480,6.357,11.772,5.210,5.316
Fri Nov 22 19:44:35 2024,335,-23.527,-23.527,-5.770,-5.770,-6.783,-2.356,16.010,7.014,1.988,11.085,7.823,-2.138,7.500,6.347,11.730,5.242,5.328
Fri Nov 22 19:44:35 2024,340,-23.534,-23.534,-5.735,-5.735,-6.732,-2.118,16.251,7.065,2.068,10.970,7.792,-2.030,7.533,6.346,11.708,5.262,5.332
Fri Nov 22 19:44:35 2024,345,-23.546,-23.546,-5.670,-5.670,-6.708,-1.740,16.680,7.165,2.202,10.875,7.728,-1.740,7.759,6.377,11.720,5.291,5.365
Fri Nov 22 19:44:35 2024,350,-23.563,-23.563,-5.585,-5.585,-6.702,-1.257,17.245,7.305,2.378,10.790,7.640,-1.321,8.119,6.431,11.757,5.327,5.419
Fri Nov 22 19:44:35 2024,355,-23.578,-23.578,-5.518,-5.518,-6.692,-0.876,17.670,7.415,2.516,10.712,7.572,-1.011,8.381,6.472,11.782,5.356,5.460
Fri Nov 22 19:44:35 2024,360,-23.642,-23.642,-5.312,-5.312,-6.540,-0.507,17.934,7.497,2.464,10.407,7.446,-0.831,8.330,6.344,11.555,5.503,5.274
Fri Nov 22 19:44:35 2024,365,-23.683,-23.683,-5.176,-5.176,-6.448,-0.197,18.152,7.573,2.470,10.211,7.355,-0.667,8.363,6.281,11.432,5.595,5.180
Fri Nov 22 19:44:35 2024,370,-23.760,-23.760,-5.112,-5.112,-6.352,0.228,18.346,7.726,2.530,10.116,7.322,-0.534,8.384,6.258,11.447,5.672,5.288
Fri Nov 22 19:44:35 2024,375,-23.853,-23.853,-5.078,-5.078,-6.255,0.709,18.480,7.918,2.614,10.064,7.314,0.141,8.397,6.250,11.523,5.745,5.487
Fri Nov 22 19:44:35 2024,380,-23.857,-23.857,-5.129,-5.129,-6.239,1.326,18.468,8.460,2.682,10.000,7.252,0.484,8.637,6.204,11.617,5.672,5.477
Fri Nov 22 19:44:35 2024,385,-23.831,-23.831,-5.199,-5.199,-6.258,1.794,18.185,8.964,2.727,9.964,7.197,0.591,8.872,6.163,11.699,5.571,5.415
Fri Nov 22 19:44:35 2024,390,-23.803,-23.803,-5.279,-5.279,-6.278,2.326,17.648,9.550,2.777,9.923,7.135,0.758,9.132,6.116,11.790,5.457,5.345
Fri Nov 22 19:44:35 2024,395,-23.801,-23.801,-5.142,-5.142,-5.980,3.422,16.482,11.127,2.867,9.662,7.231,0.851,8.943,6.028,11.560,5.287,5.329
Fri Nov 22 19:44:35 2024,400,-23.799,-23.799,-5.059,-5.059,-5.774,4.275,24.461,12.359,2.936,9.475,7.291,0.944,8.848,5.961,11.408,5.143,5.307
Fri Nov 22 19:44:35 2024,405,-23.707,-23.707,-4.986,-4.986,-5.536,5.518,26.107,15.313,3.138,9.486,7.378,1.065,8.858,5.906,11.501,4.833,5.393
Fri Nov 22 19:44:35 2024,410,-23.636,-23.636,-4.935,-4.935,-5.356,6.501,27.491,17.842,3.303,9.515,7.445,1.159,8.877,5.866,11.599,4.584,5.469
Fri Nov 22 19:44:35 2024,415,-23.514,-23.514,-4.909,-4.909,-5.225,7.590,29.441,21.661,3.625,9.612,7.455,1.192,8.874,5.695,11.552,4.288,5.274
Fri Nov 22 19:44:35 2024,420,-23.348,-23.348,-4.911,-4.911,-5.147,8.787,32.016,26.933,4.106,9.758,7.401,1.161,8.851,5.392,11.348,3.941,4.801
Fri Nov 22 19:44:35 2024,425,-23.225,-23.225,-4.914,-4.914,-5.084,9.872,34.382,31.875,4.528,9.843,7.345,1.131,8.829,5.125,11.148,3.636,4.380
Fri Nov 22 19:44:35 2024,430,-23.141,-23.141,-4.915,-4.915,-5.035,10.763,36.292,35.883,4.863,9.884,7.297,1.106,8.811,4.915,10.980,3.392,4.048
Fri Nov 22 19:44:35 2024,435,-23.108,-23.108,-4.915,-4.915,-5.013,11.158,37.130,37.632,5.008,9.896,7.275,1.096,8.804,4.824,10.904,3.286,3.904
Fri Nov 22 19:44:35 2024,440,-23.096,-23.096,-4.915,-4.915,-5.005,11.293,37.410,38.218,5.056,9.899,7.267,1.092,8.803,4.792,10.876,3.250,3.855
Fri Nov 22 19:44:35 2024,445,-22.080,-22.080,-5.094,-5.094,-4.824,12.968,44.524,55.286,5.392,10.431,6.850,1.562,8.396,4.738,10.670,4.050,4.434
Fri Nov 22 19:44:35 2024,450,-21.793,-21.793,-5.142,-5.142,-4.758,13.875,47.434,62.536,5.618,10.546,6.724,1.670,8.284,4.636,10.548,4.149,4.450
Fri Nov 22 19:44:35 2024,455,-21.689,-21.689,-5.709,-5.709,-4.951,14.202,48.564,63.720,5.678,10.292,7.410,1.677,7.834,4.841,10.433,3.792,4.436
Fri Nov 22 19:44:35 2024,460,-21.595,-21.595,-6.093,-6.093,-5.074,14.501,49.597,65.219,5.742,10.132,7.860,1.695,7.520,4.970,10.347,3.551,4.429
Fri Nov 22 19:44:35 2024,465,-21.429,-21.429,-6.245,-6.245,-5.121,14.738,50.443,66.227,5.866,10.106,8.149,1.651,7.380,5.039,10.226,3.455,4.452
Fri Nov 22 19:44:35 2024,470,-21.217,-21.217,-6.227,-6.227,-5.112,14.922,51.124,66.846,6.023,10.172,8.309,1.565,7.368,5.062,10.085,3.467,4.494
Fri Nov 22 19:44:35 2024,475,-21.044,-21.044,-6.252,-6.252,-5.116,15.091,51.757,67.471,6.152,10.206,8.481,1.501,7.326,5.092,9.967,3.448,4.526
Fri Nov 22 19:44:35 2024,480,-21.070,-21.070,-6.047,-6.047,-4.877,15.115,53.943,71.560,6.150,10.564,8.420,1.398,7.338,4.943,10.075,3.495,4.488
Fri Nov 22 19:44:35 2024,485,-21.044,-21.044,-5.922,-5.922,-4.722,15.182,55.579,74.384,6.183,10.798,8.426,1.314,7.335,4.854,10.115,3.520,4.476
Fri Nov 22 19:44:35 2024,490,-20.783,-20.783,-6.084,-6.084,-4.613,14.712,57.434,78.432,6.388,11.013,8.630,1.321,7.465,4.814,10.104,3.624,4.479
Fri Nov 22 19:44:35 2024,495,-20.567,-20.567,-6.212,-6.212,-4.515,14.325,59.104,81.858,6.556,11.182,8.802,1.322,7.571,4.777,10.097,3.712,4.480
Fri Nov 22 19:44:35 2024,500,-20.298,-20.298,-6.474,-6.474,-4.549,13.970,61.115,85.206,6.769,11.367,8.990,1.454,7.770,4.796,10.131,3.834,4.474
Fri Nov 22 19:44:35 2024,505,-19.997,-19.997,-6.888,-6.888,-4.776,13.739,63.244,87.853,7.013,11.545,9.165,1.766,8.069,4.901,10.218,3.987,4.455
Fri Nov 22 19:44:35 2024,510,-19.690,-19.690,-7.278,-7.278,-4.956,13.497,65.520,90.562,7.257,11.674,9.359,2.050,8.346,4.989,10.294,4.136,4.439
Fri Nov 22 19:44:35 2024,515,-19.404,-19.404,-7.544,-7.544,-5.102,13.670,68.372,92.770,7.299,11.857,9.340,2.069,8.479,4.781,10.016,4.345,4.248
Fri Nov 22 19:44:35 2024,520,-19.169,-19.169,-7.780,-7.780,-5.225,13.822,70.668,94.435,7.363,11.973,9.361,2.124,8.610,4.655,9.842,4.507,4.122
Fri Nov 22 19:44:35 2024,525,-18.974,-18.974,-7.956,-7.956,-5.328,13.908,72.687,95.698,7.490,12.035,9.440,2.224,8.834,4.606,9.734,4.626,4.028
Fri Nov 22 19:44:35 2024,530,-18.831,-18.831,-8.052,-8.052,-5.406,13.869,74.330,96.589,7.698,12.018,9.598,2.382,9.184,4.658,9.710,4.688,3.972
Fri Nov 22 19:44:35 2024,535,-18.696,-18.696,-8.160,-8.160,-5.478,13.955,75.864,97.357,7.842,11.989,9.706,2.494,9.431,4.666,9.661,4.760,3.911
Fri Nov 22 19:44:35 2024,540,-18.498,-18.498,-8.244,-8.244,-5.563,13.920,77.050,97.755,8.021,11.932,9.749,2.466,9.901,4.582,9.450,4.998,3.800
Fri Nov 22 19:44:35 2024,545,-18.360,-18.360,-8.315,-8.315,-5.625,13.977,78.073,98.109,8.149,11.844,9.801,2.475,10.215,4.538,9.322,5.145,3.725
Fri Nov 22 19:44:35 2024,550,-18.001,-18.001,-8.384,-8.384,-5.773,14.344,79.079,98.181,8.425,11.576,9.947,2.555,10.453,4.495,9.207,5.142,3.618
Fri Nov 22 19:44:35 2024,555,-17.665,-17.665,-8.450,-8.450,-5.912,14.707,80.026,98.232,8.684,11.305,10.085,2.630,10.673,4.456,9.098,5.140,3.520
Fri Nov 22 19:44:35 2024,560,-17.408,-17.408,-8.500,-8.500,-6.018,14.996,80.755,98.263,8.883,11.085,10.192,2.689,10.840,4.425,9.014,5.138,3.446
Fri Nov 22 19:44:35 2024,565,-17.253,-17.253,-8.573,-8.573,-6.132,15.373,82.034,98.269,8.851,11.069,10.231,2.877,11.350,4.543,9.005,5.353,3.369
Fri Nov 22 19:44:35 2024,570,-17.094,-17.094,-8.626,-8.626,-6.223,15.688,82.923,98.266,8.895,10.977,10.285,2.990,11.656,4.595,8.973,5.462,3.306
Fri Nov 22 19:44:35 2024,575,-16.897,-16.897,-8.561,-8.561,-6.269,16.458,84.197,98.403,8.984,10.795,10.421,2.910,11.827,4.439,8.953,5.545,3.230
Fri Nov 22 19:44:35 2024,580,-16.715,-16.715,-8.473,-8.473,-6.298,17.264,85.414,98.543,9.073,10.602,10.562,2.790,11.940,4.248,8.939,5.612,3.161
