Timestamp,Millis,thumb_tm_aa,thumb_tm_flex,thumb_mcp_aa,thumb_mcp_flex,thumb_ip,index_mcp_aa,index_mcp_flex,index_pip,middle_mcp_aa,middle_mcp_flex,middle_pip,ring_mcp_aa,ring_mcp_flex,ring_pip,little_mcp_aa,little_mcp_flex,little_pip
Fri Nov 22 20:53:18 2024,945,-10.171,10.171,-9.420,-9.420,-10.622,0.819,17.767,6.631,6.103,12.042,8.808,-3.781,6.911,5.486,9.623,7.816,3.663
Fri Nov 22 20:53:18 2024,950,-10.099,10.099,-9.412,-9.412,-10.606,0.768,17.833,6.540,6.079,12.155,8.804,-3.800,6.945,5.479,9.654,7.919,3.749
Fri Nov 22 20:53:18 2024,955,-10.023,10.023,-9.403,-9.403,-10.588,0.714,17.902,6.443,6.052,12.275,8.799,-3.821,6.981,5.471,9.687,8.026,3.841
Fri Nov 22 20:53:18 2024,960,-10.006,10.006,-9.425,-9.425,-10.600,0.753,17.846,6.439,6.090,12.220,8.804,-3.804,6.931,5.459,9.710,7.962,3.812
Fri Nov 22 20:53:18 2024,965,-9.986,9.986,-9.445,-9.445,-10.610,0.786,17.797,6.430,6.124,12.173,8.809,-3.790,6.886,5.448,9.733,7.908,3.790
Fri Nov 22 20:53:18 2024,970,-9.948,9.948,-9.420,-9.420,-10.584,0.780,17.770,6.404,6.122,12.174,8.788,-3.812,6.839,5.404,9.725,7.909,3.775
Fri Nov 22 20:53:18 2024,975,-9.889,9.889,-9.355,-9.355,-10.525,0.744,17.754,6.357,6.089,12.213,8.744,-3.866,6.781,5.327,9.690,7.953,3.764
Fri Nov 22 20:53:18 2024,980,-9.833,9.833,-9.292,-9.292,-10.469,0.709,17.738,6.311,6.058,12.251,8.701,-3.918,6.725,5.253,9.656,7.995,3.755
Fri Nov 22 20:53:18 2024,985,-9.880,9.880,-9.263,-9.263,-10.500,0.732,17.771,6.294,6.091,12.246,8.680,-3.945,6.624,5.169,9.627,7.966,3.688
Fri Nov 22 20:53:18 2024,990,-9.928,9.928,-9.234,-9.234,-10.530,0.755,17.804,6.278,6.126,12.240,8.659,-3.972,6.520,5.085,9.598,7.936,3.620
Fri Nov 22 20:53:18 2024,995,-9.945,9.945,-9.260,-9.260,-10.553,0.785,17.871,6.315,6.174,12.238,8.696,-3.932,6.581,5.100,9.620,7.934,3.623
Fri Nov 22 20:53:19 2024,0,-9.949,9.949,-9.314,-9.314,-10.576,0.822,17.962,6.382,6.235,12.238,8.766,-3.854,6.728,5.164,9.671,7.944,3.662
Fri Nov 22 20:53:19 2024,5,-9.959,9.959,-9.349,-9.349,-10.582,0.846,18.025,6.433,6.279,12.241,8.820,-3.791,6.844,5.216,9.716,7.956,3.700
Fri Nov 22 20:53:19 2024,10,-10.004,10.004,-9.291,-9.291,-10.503,0.803,17.957,6.408,6.240,12.266,8.800,-3.795,6.817,5.215,9.740,7.981,3.744
Fri Nov 22 20:53:19 2024,15,-10.040,10.040,-9.242,-9.242,-10.437,0.767,17.897,6.386,6.206,12.288,8.783,-3.799,6.793,5.214,9.759,8.002,3.781
Fri Nov 22 20:53:19 2024,20,-10.019,10.019,-9.298,-9.298,-10.459,0.731,17.883,6.337,6.187,12.312,8.772,-3.790,6.802,5.217,9.684,8.105,3.796
Fri Nov 22 20:53:19 2024,25,-9.977,9.977,-9.386,-9.386,-10.513,0.702,17.892,6.286,6.176,12.334,8.766,-3.776,6.822,5.221,9.582,8.224,3.800
Fri Nov 22 20:53:19 2024,30,-9.941,9.941,-9.463,-9.463,-10.559,0.678,17.898,6.241,6.167,12.353,8.761,-3.765,6.840,5.225,9.496,8.325,3.804
Fri Nov 22 20:53:19 2024,35,-9.952,9.952,-9.381,-9.381,-10.476,0.687,18.042,6.346,6.150,12.365,8.800,-3.746,6.990,5.353,9.387,8.530,3.978
Fri Nov 22 20:53:19 2024,40,-9.953,9.953,-9.338,-9.338,-10.427,0.688,18.139,6.409,6.138,12.376,8.826,-3.731,7.093,5.441,9.298,8.684,4.098
Fri Nov 22 20:53:19 2024,45,-9.955,9.955,-9.296,-9.296,-10.380,0.689,18.233,6.471,6.125,12.387,8.851,-3.717,7.194,5.526,9.213,8.833,4.216
Fri Nov 22 20:53:19 2024,50,-9.962,9.962,-9.256,-9.256,-10.346,0.659,18.118,6.348,6.023,12.426,8.746,-3.796,7.077,5.450,9.032,9.017,4.226
Fri Nov 22 20:53:19 2024,55,-9.975,9.975,-9.229,-9.229,-10.320,0.640,18.109,6.324,5.991,12.439,8.723,-3.812,7.095,5.454,8.908,9.156,4.249
Fri Nov 22 20:53:19 2024,60,-9.999,9.999,-9.217,-9.217,-10.305,0.618,18.125,6.328,5.999,12.440,8.732,-3.797,7.182,5.477,8.782,9.284,4.237
Fri Nov 22 20:53:19 2024,65,-10.023,10.023,-9.206,-9.206,-10.291,0.597,18.141,6.332,6.006,12.440,8.741,-3.783,7.266,5.500,8.660,9.409,4.225
Fri Nov 22 20:53:19 2024,70,-10.014,10.014,-9.183,-9.183,-10.289,0.642,18.117,6.282,6.007,12.438,8.653,-3.813,7.280,5.447,8.504,9.585,4.235
Fri Nov 22 20:53:19 2024,75,-10.005,10.005,-9.164,-9.164,-10.288,0.683,18.095,6.238,6.008,12.436,8.574,-3.840,7.288,5.399,8.374,9.734,4.244
Fri Nov 22 20:53:19 2024,80,-10.065,10.065,-9.150,-9.150,-10.284,0.709,18.078,6.216,6.002,12.430,8.507,-3.864,7.279,5.344,8.251,9.897,4.252
Fri Nov 22 20:53:19 2024,85,-10.181,10.181,-9.146,-9.146,-10.278,0.714,18.072,6.223,5.989,12.421,8.470,-3.879,7.256,5.298,8.169,10.031,4.255
Fri Nov 22 20:53:19 2024,90,-10.295,10.295,-9.143,-9.143,-10.271,0.719,18.067,6.229,5.976,12.412,8.434,-3.893,7.233,5.253,8.091,10.159,4.259
Fri Nov 22 20:53:19 2024,95,-10.357,10.357,-9.078,-9.078,-10.223,0.713,18.040,6.209,6.009,12.434,8.449,-3.843,7.277,5.268,8.091,10.206,4.268
Fri Nov 22 20:53:19 2024,100,-10.426,10.426,-9.008,-9.008,-10.171,0.707,18.010,6.189,6.043,12.456,8.464,-3.791,7.322,5.283,8.088,10.259,4.278
Fri Nov 22 20:53:19 2024,105,-10.510,10.510,-8.964,-8.964,-10.139,0.733,18.015,6.171,6.072,12.464,8.443,-3.771,7.388,5.272,8.039,10.366,4.277
Fri Nov 22 20:53:19 2024,110,-10.610,10.610,-8.945,-8.945,-10.125,0.790,18.051,6.157,6.099,12.460,8.384,-3.784,7.477,5.239,7.942,10.528,4.265
Fri Nov 22 20:53:19 2024,115,-10.691,10.691,-8.930,-8.930,-10.115,0.836,18.077,6.145,6.120,12.456,8.336,-3.794,7.549,5.211,7.863,10.659,4.255
Fri Nov 22 20:53:19 2024,120,-10.856,10.856,-8.925,-8.925,-10.118,0.849,18.038,6.109,6.137,12.437,8.305,-3.771,7.498,5.174,7.813,10.714,4.268
Fri Nov 22 20:53:19 2024,125,-11.017,11.017,-8.920,-8.920,-10.120,0.861,17.999,6.074,6.152,12.418,8.275,-3.748,7.448,5.140,7.764,10.766,4.282
Fri Nov 22 20:53:19 2024,130,-11.134,11.134,-8.930,-8.930,-10.104,0.893,17.980,6.052,6.180,12.400,8.263,-3.748,7.440,5.126,7.680,10.874,4.289
Fri Nov 22 20:53:19 2024,135,-11.212,11.212,-8.949,-8.949,-10.074,0.937,17.977,6.038,6.216,12.383,8.265,-3.763,7.466,5.128,7.574,11.021,4.290
Fri Nov 22 20:53:19 2024,140,-11.279,11.279,-8.964,-8.964,-10.059,0.970,17.984,6.022,6.246,12.376,8.260,-3.771,7.499,5.123,7.502,11.136,4.293
Fri Nov 22 20:53:19 2024,145,-11.335,11.335,-8.973,-8.973,-10.101,0.978,18.046,5.986,6.271,12.413,8.217,-3.750,7.595,5.077,7.527,11.191,4.311
Fri Nov 22 20:53:19 2024,150,-11.398,11.398,-8.982,-8.982,-10.150,0.986,18.118,5.944,6.300,12.454,8.168,-3.724,7.704,5.024,7.562,11.248,4.332
Fri Nov 22 20:53:19 2024,155,-11.475,11.475,-8.982,-8.982,-10.169,0.967,18.178,5.941,6.329,12.493,8.172,-3.702,7.811,5.025,7.514,11.310,4.310
Fri Nov 22 20:53:19 2024,160,-11.578,11.578,-8.977,-8.977,-10.177,0.932,18.246,5.956,6.367,12.537,8.204,-3.677,7.940,5.053,7.418,11.389,4.265
Fri Nov 22 20:53:19 2024,165,-11.631,11.631,-8.971,-8.971,-10.180,0.911,18.280,5.970,6.389,12.560,8.226,-3.665,8.018,5.076,7.348,11.448,4.243
Fri Nov 22 20:53:19 2024,170,-11.569,11.569,-8.955,-8.955,-10.170,0.919,18.233,5.991,6.378,12.536,8.236,-3.691,7.987,5.102,7.312,11.479,4.278
Fri Nov 22 20:53:19 2024,175,-11.502,11.502,-8.939,-8.939,-10.159,0.928,18.181,6.014,6.366,12.511,8.247,-3.720,7.953,5.129,7.275,11.513,4.316
Fri Nov 22 20:53:19 2024,180,-11.515,11.515,-8.914,-8.914,-10.141,0.914,18.178,6.004,6.378,12.507,8.241,-3.717,7.984,5.123,7.276,11.510,4.302
Fri Nov 22 20:53:19 2024,185,-11.541,11.541,-8.891,-8.891,-10.125,0.898,18.184,5.991,6.393,12.508,8.232,-3.709,8.022,5.112,7.284,11.502,4.281
Fri Nov 22 20:53:19 2024,190,-11.572,11.572,-8.865,-8.865,-10.105,0.880,18.191,5.974,6.410,12.509,8.222,-3.701,8.067,5.099,7.293,11.492,4.256
Fri Nov 22 20:53:19 2024,195,-11.657,11.657,-8.901,-8.901,-10.168,0.853,18.287,6.022,6.414,12.544,8.221,-3.730,8.045,5.080,7.260,11.487,4.204
Fri Nov 22 20:53:19 2024,200,-11.721,11.721,-8.922,-8.922,-10.208,0.833,18.355,6.053,6.419,12.567,8.218,-3.750,8.036,5.064,7.238,11.482,4.163
Fri Nov 22 20:53:19 2024,205,-11.734,11.734,-8.911,-8.911,-10.186,0.867,18.339,6.078,6.452,12.513,8.203,-3.736,7.971,5.031,7.272,11.408,4.123
Fri Nov 22 20:53:19 2024,210,-11.728,11.728,-8.893,-8.893,-10.152,0.908,18.302,6.093,6.482,12.453,8.188,-3.716,7.909,5.003,7.311,11.336,4.096
Fri Nov 22 20:53:19 2024,215,-11.723,11.723,-8.878,-8.878,-10.123,0.942,18.270,6.106,6.508,12.403,8.176,-3.700,7.857,4.979,7.344,11.276,4.073
Fri Nov 22 20:53:19 2024,220,-11.817,11.817,-8.976,-8.976,-10.240,0.996,18.378,6.154,6.489,12.429,8.215,-3.629,8.063,5.083,7.433,11.264,4.135
Fri Nov 22 20:53:19 2024,225,-11.870,11.870,-9.029,-9.029,-10.302,1.031,18.428,6.183,6.482,12.436,8.234,-3.586,8.172,5.139,7.488,11.248,4.168
Fri Nov 22 20:53:19 2024,230,-11.820,11.820,-9.040,-9.040,-10.333,0.980,18.471,6.202,6.426,12.499,8.242,-3.617,8.188,5.143,7.478,11.263,4.152
Fri Nov 22 20:53:19 2024,235,-11.760,11.760,-9.044,-9.044,-10.357,0.921,18.506,6.218,6.369,12.563,8.247,-3.657,8.187,5.139,7.458,11.281,4.131
Fri Nov 22 20:53:19 2024,240,-11.718,11.718,-9.033,-9.033,-10.352,0.901,18.511,6.216,6.342,12.586,8.254,-3.668,8.171,5.147,7.471,11.290,4.156
Fri Nov 22 20:53:19 2024,245,-11.697,11.697,-8.986,-8.986,-10.280,0.954,18.457,6.172,6.365,12.529,8.271,-3.619,8.116,5.184,7.560,11.279,4.298
Fri Nov 22 20:53:19 2024,250,-11.669,11.669,-8.943,-8.943,-10.217,0.993,18.420,6.149,6.378,12.485,8.295,-3.580,8.075,5.227,7.634,11.271,4.429
Fri Nov 22 20:53:19 2024,255,-11.632,11.632,-8.924,-8.924,-10.210,0.962,18.506,6.304,6.362,12.500,8.384,-3.580,8.170,5.335,7.604,11.281,4.487
Fri Nov 22 20:53:19 2024,260,-11.595,11.595,-8.905,-8.905,-10.203,0.933,18.591,6.458,6.347,12.515,8.471,-3.580,8.264,5.441,7.574,11.290,4.546
Fri Nov 22 20:53:19 2024,265,-11.564,11.564,-8.889,-8.889,-10.197,0.907,18.662,6.590,6.333,12.527,8.546,-3.580,8.345,5.533,7.548,11.299,4.596
Fri Nov 22 20:53:19 2024,270,-11.540,11.540,-8.919,-8.919,-10.184,0.919,18.516,6.472,6.332,12.488,8.470,-3.573,8.272,5.491,7.485,11.296,4.579
Fri Nov 22 20:53:19 2024,275,-11.512,11.512,-8.935,-8.935,-10.175,0.920,18.441,6.435,6.329,12.466,8.443,-3.571,8.244,5.487,7.438,11.296,4.579
Fri Nov 22 20:53:19 2024,280,-11.419,11.419,-8.956,-8.956,-10.187,0.942,18.434,6.416,6.342,12.451,8.438,-3.632,8.170,5.425,7.402,11.317,4.523
Fri Nov 22 20:53:19 2024,285,-11.346,11.346,-8.973,-8.973,-10.198,0.960,18.427,6.400,6.353,12.439,8.434,-3.681,8.110,5.376,7.374,11.333,4.478
Fri Nov 22 20:53:19 2024,290,-11.247,11.247,-8.986,-8.986,-10.191,0.968,18.424,6.446,6.368,12.407,8.473,-3.654,8.152,5.423,7.398,11.287,4.456
Fri Nov 22 20:53:19 2024,295,-11.172,11.172,-8.992,-8.992,-10.177,0.967,18.424,6.510,6.380,12.375,8.523,-3.592,8.238,5.509,7.443,11.224,4.456
Fri Nov 22 20:53:19 2024,300,-11.091,11.091,-8.998,-8.998,-10.162,0.966,18.424,6.579,6.392,12.340,8.577,-3.526,8.330,5.600,7.492,11.156,4.457
Fri Nov 22 20:53:19 2024,305,-11.106,11.106,-9.031,-9.031,-10.211,0.997,18.403,6.569,6.385,12.363,8.628,-3.518,8.294,5.638,7.482,11.171,4.506
Fri Nov 22 20:53:19 2024,310,-11.111,11.111,-9.065,-9.065,-10.259,1.028,18.382,6.568,6.379,12.381,8.686,-3.501,8.271,5.688,7.478,11.177,4.555
Fri Nov 22 20:53:19 2024,315,-11.101,11.101,-9.044,-9.044,-10.249,1.020,18.418,6.614,6.371,12.407,8.741,-3.474,8.304,5.738,7.507,11.176,4.626
Fri Nov 22 20:53:19 2024,320,-11.087,11.087,-9.009,-9.009,-10.225,1.003,18.469,6.673,6.363,12.435,8.796,-3.443,8.354,5.789,7.546,11.173,4.705
Fri Nov 22 20:53:19 2024,325,-11.093,11.093,-8.992,-8.992,-10.212,1.006,18.508,6.737,6.360,12.441,8.846,-3.408,8.380,5.842,7.588,11.154,4.775
Fri Nov 22 20:53:19 2024,330,-11.154,11.154,-9.031,-9.031,-10.237,1.066,18.490,6.788,6.375,12.380,8.860,-3.380,8.331,5.878,7.624,11.099,4.794
Fri Nov 22 20:53:19 2024,335,-11.209,11.209,-9.066,-9.066,-10.260,1.119,18.471,6.834,6.388,12.326,8.871,-3.353,8.288,5.910,7.655,11.051,4.809
Fri Nov 22 20:53:19 2024,340,-11.224,11.224,-9.078,-9.078,-10.260,1.120,18.503,6.839,6.382,12.332,8.894,-3.364,8.285,5.933,7.703,11.062,4.884
Fri Nov 22 20:53:19 2024,345,-11.222,11.222,-9.079,-9.079,-10.253,1.104,18.539,6.829,6.372,12.354,8.911,-3.383,8.296,5.945,7.739,11.087,4.949
Fri Nov 22 20:53:19 2024,350,-11.233,11.233,-9.081,-9.081,-10.258,1.087,18.561,6.826,6.349,12.367,8.929,-3.399,8.302,5.967,7.763,11.081,4.991
Fri Nov 22 20:53:19 2024,355,-11.260,11.260,-9.086,-9.086,-10.282,1.081,18.546,6.837,6.321,12.356,8.935,-3.400,8.293,5.993,7.752,11.030,4.968
Fri Nov 22 20:53:19 2024,360,-11.286,11.286,-9.090,-9.090,-10.304,1.076,18.532,6.847,6.295,12.345,8.941,-3.400,8.285,6.017,7.742,10.981,4.945
Fri Nov 22 20:53:19 2024,365,-11.308,11.308,-9.093,-9.093,-10.324,1.070,18.518,6.857,6.272,12.334,8.946,-3.401,8.278,6.038,7.734,10.937,4.926
Fri Nov 22 20:53:19 2024,370,-11.335,11.335,-9.200,-9.200,-10.342,1.113,18.561,6.912,6.256,12.384,9.029,-3.337,8.443,6.154,7.891,10.892,4.998
Fri Nov 22 20:53:19 2024,375,-11.356,11.356,-9.234,-9.234,-10.352,1.123,18.570,6.944,6.227,12.395,9.057,-3.317,8.502,6.211,7.936,10.864,5.035
Fri Nov 22 20:53:19 2024,380,-11.380,11.380,-9.234,-9.234,-10.350,1.114,18.574,6.987,6.168,12.388,9.061,-3.313,8.535,6.263,7.934,10.855,5.096
Fri Nov 22 20:53:19 2024,385,-11.400,11.400,-9.234,-9.234,-10.349,1.106,18.577,7.022,6.121,12.380,9.064,-3.310,8.562,6.304,7.933,10.848,5.146
Fri Nov 22 20:53:19 2024,390,-11.420,11.420,-9.224,-9.224,-10.320,1.134,18.556,7.044,6.125,12.320,9.079,-3.297,8.470,6.317,7.960,10.773,5.136
Fri Nov 22 20:53:19 2024,395,-11.437,11.437,-9.215,-9.215,-10.294,1.161,18.536,7.063,6.132,12.263,9.095,-3.284,8.380,6.325,7.986,10.702,5.124
Fri Nov 22 20:53:19 2024,400,-11.426,11.426,-9.214,-9.214,-10.282,1.160,18.540,7.084,6.114,12.261,9.124,-3.277,8.359,6.350,8.018,10.658,5.132
Fri Nov 22 20:53:19 2024,405,-11.397,11.397,-9.221,-9.221,-10.291,1.136,18.562,7.097,6.084,12.306,9.151,-3.277,8.404,6.379,8.041,10.657,5.154
Fri Nov 22 20:53:19 2024,410,-11.394,11.394,-9.222,-9.222,-10.289,1.138,18.559,7.099,6.082,12.303,9.154,-3.279,8.400,6.382,8.045,10.653,5.160
Fri Nov 22 20:53:19 2024,415,-11.392,11.392,-9.223,-9.223,-10.286,1.140,18.557,7.102,6.081,12.300,9.156,-3.281,8.397,6.386,8.050,10.650,5.165
Fri Nov 22 20:53:19 2024,420,-11.390,11.390,-9.224,-9.224,-10.284,1.142,18.554,7.105,6.080,12.297,9.159,-3.283,8.393,6.390,8.054,10.646,5.170
Fri Nov 22 20:53:19 2024,425,-11.387,11.387,-9.225,-9.225,-10.282,1.144,18.552,7.108,6.079,12.293,9.161,-3.284,8.389,6.393,8.059,10.642,5.176
Fri Nov 22 20:53:19 2024,430,-11.385,11.385,-9.226,-9.226,-10.280,1.145,18.549,7.111,6.077,12.290,9.164,-3.286,8.385,6.397,8.063,10.638,5.181
Fri Nov 22 20:53:19 2024,435,-11.383,11.383,-9.226,-9.226,-10.278,1.147,18.547,7.114,6.076,12.287,9.166,-3.288,8.382,6.400,8.067,10.635,5.187
Fri Nov 22 20:53:19 2024,440,-11.380,11.380,-9.227,-9.227,-10.276,1.149,18.544,7.117,6.075,12.284,9.168,-3.290,8.378,6.404,8.072,10.631,5.192
Fri Nov 22 20:53:19 2024,445,-11.378,11.378,-9.228,-9.228,-10.274,1.151,18.542,7.120,6.073,12.280,9.171,-3.291,8.374,6.408,8.076,10.627,5.198
Fri Nov 22 20:53:19 2024,450,-11.375,11.375,-9.229,-9.229,-10.272,1.152,18.539,7.123,6.072,12.277,9.173,-3.293,8.370,6.411,8.081,10.623,5.203
Fri Nov 22 20:53:19 2024,455,-11.373,11.373,-9.230,-9.230,-10.270,1.154,18.537,7.125,6.071,12.274,9.176,-3.295,8.366,6.415,8.085,10.620,5.209
Fri Nov 22 20:53:19 2024,460,-11.371,11.371,-9.231,-9.231,-10.268,1.156,18.534,7.128,6.069,12.270,9.178,-3.297,8.363,6.418,8.090,10.616,5.214
Fri Nov 22 20:53:19 2024,465,-11.368,11.368,-9.232,-9.232,-10.266,1.158,18.532,7.131,6.068,12.267,9.180,-3.298,8.359,6.422,8.094,10.612,5.220
Fri Nov 22 20:53:19 2024,470,-11.366,11.366,-9.233,-9.233,-10.264,1.160,18.529,7.134,6.067,12.264,9.183,-3.300,8.355,6.426,8.098,10.608,5.225
Fri Nov 22 20:53:19 2024,475,-11.364,11.364,-9.234,-9.234,-10.262,1.161,18.527,7.137,6.066,12.261,9.185,-3.302,8.351,6.429,8.103,10.604,5.231
Fri Nov 22 20:53:19 2024,480,-11.361,11.361,-9.234,-9.234,-10.260,1.163,18.524,7.140,6.064,12.257,9.188,-3.304,8.347,6.433,8.107,10.601,5.236
Fri Nov 22 20:53:19 2024,485,-11.359,11.359,-9.235,-9.235,-10.258,1.165,18.522,7.143,6.063,12.254,9.190,-3.305,8.344,6.437,8.112,10.597,5.242
Fri Nov 22 20:53:19 2024,490,-11.357,11.357,-9.236,-9.236,-10.256,1.167,18.519,7.146,6.062,12.251,9.193,-3.307,8.340,6.440,8.116,10.593,5.247
Fri Nov 22 20:53:19 2024,495,-11.354,11.354,-9.237,-9.237,-10.254,1.169,18.517,7.149,6.060,12.248,9.195,-3.309,8.336,6.444,8.121,10.589,5.252
Fri Nov 22 20:53:19 2024,500,-11.352,11.352,-9.238,-9.238,-10.252,1.170,18.515,7.151,6.059,12.244,9.197,-3.311,8.332,6.447,8.125,10.586,5.258
Fri Nov 22 20:53:19 2024,505,-11.350,11.350,-9.239,-9.239,-10.250,1.172,18.512,7.154,6.058,12.241,9.200,-3.313,8.329,6.451,8.129,10.582,5.263
Fri Nov 22 20:53:19 2024,510,-11.347,11.347,-9.240,-9.240,-10.247,1.174,18.510,7.157,6.056,12.238,9.202,-3.314,8.325,6.455,8.134,10.578,5.269
Fri Nov 22 20:53:19 2024,515,-11.345,11.345,-9.241,-9.241,-10.245,1.176,18.507,7.160,6.055,12.235,9.205,-3.316,8.321,6.458,8.138,10.574,5.274
Fri Nov 22 20:53:19 2024,520,-11.343,11.343,-9.242,-9.242,-10.243,1.177,18.505,7.163,6.054,12.231,9.207,-3.318,8.317,6.462,8.143,10.570,5.280
Fri Nov 22 20:53:19 2024,525,-11.340,11.340,-9.242,-9.242,-10.241,1.179,18.502,7.166,6.052,12.228,9.209,-3.320,8.313,6.465,8.147,10.567,5.285
Fri Nov 22 20:53:19 2024,530,-11.338,11.338,-9.243,-9.243,-10.239,1.181,18.500,7.169,6.051,12.225,9.212,-3.321,8.310,6.469,8.152,10.563,5.291
Fri Nov 22 20:53:19 2024,535,-11.336,11.336,-9.244,-9.244,-10.237,1.183,18.497,7.172,6.050,12.222,9.214,-3.323,8.306,6.473,8.156,10.559,5.296
Fri Nov 22 20:53:19 2024,540,-11.333,11.333,-9.245,-9.245,-10.235,1.185,18.495,7.175,6.049,12.218,9.217,-3.325,8.302,6.476,8.160,10.555,5.302
Fri Nov 22 20:53:19 2024,545,-11.331,11.331,-9.246,-9.246,-10.233,1.186,18.492,7.177,6.047,12.215,9.219,-3.327,8.298,6.480,8.165,10.552,5.307
Fri Nov 22 20:53:19 2024,550,-11.329,11.329,-9.247,-9.247,-10.231,1.188,18.490,7.180,6.046,12.212,9.222,-3.328,8.295,6.483,8.169,10.548,5.313
Fri Nov 22 20:53:19 2024,555,-11.326,11.326,-9.248,-9.248,-10.229,1.190,18.487,7.183,6.045,12.209,9.224,-3.330,8.291,6.487,8.174,10.544,5.318
Fri Nov 22 20:53:19 2024,560,-11.324,11.324,-9.249,-9.249,-10.227,1.192,18.485,7.186,6.043,12.205,9.226,-3.332,8.287,6.491,8.178,10.540,5.324
Fri Nov 22 20:53:19 2024,565,-11.322,11.322,-9.249,-9.249,-10.225,1.194,18.482,7.189,6.042,12.202,9.229,-3.334,8.283,6.494,8.183,10.536,5.329
Fri Nov 22 20:53:19 2024,570,-11.319,11.319,-9.250,-9.250,-10.223,1.195,18.480,7.192,6.041,12.199,9.231,-3.335,8.279,6.498,8.187,10.533,5.334
Fri Nov 22 20:53:19 2024,575,-11.317,11.317,-9.251,-9.251,-10.221,1.197,18.477,7.195,6.039,12.195,9.234,-3.337,8.276,6.502,8.191,10.529,5.340
Fri Nov 22 20:53:19 2024,580,-11.315,11.315,-9.252,-9.252,-10.219,1.199,18.475,7.198,6.038,12.192,9.236,-3.339,8.272,6.505,8.196,10.525,5.345
Fri Nov 22 20:53:19 2024,585,-11.312,11.312,-9.253,-9.253,-10.217,1.201,18.473,7.201,6.037,12.189,9.238,-3.341,8.268,6.509,8.200,10.521,5.351
Fri Nov 22 20:53:19 2024,590,-11.310,11.310,-9.254,-9.254,-10.215,1.202,18.470,7.203,6.036,12.186,9.241,-3.342,8.264,6.512,8.205,10.518,5.356
Fri Nov 22 20:53:19 2024,595,-11.308,11.308,-9.255,-9.255,-10.213,1.204,18.468,7.206,6.034,12.182,9.243,-3.344,8.260,6.516,8.209,10.514,5.362
Fri Nov 22 20:53:19 2024,600,-11.305,11.305,-9.256,-9.256,-10.211,1.206,18.465,7.209,6.033,12.179,9.246,-3.346,8.257,6.520,8.214,10.510,5.367
Fri Nov 22 20:53:19 2024,605,-11.303,11.303,-9.257,-9.257,-10.208,1.208,18.463,7.212,6.032,12.176,9.248,-3.348,8.253,6.523,8.218,10.506,5.373
Fri Nov 22 20:53:19 2024,610,-11.301,11.301,-9.257,-9.257,-10.206,1.210,18.460,7.215,6.030,12.173,9.250,-3.349,8.249,6.527,8.223,10.503,5.378
Fri Nov 22 20:53:19 2024,615,-11.298,11.298,-9.258,-9.258,-10.204,1.211,18.458,7.218,6.029,12.169,9.253,-3.351,8.245,6.530,8.227,10.499,5.384
Fri Nov 22 20:53:19 2024,620,-11.296,11.296,-9.259,-9.259,-10.202,1.213,18.455,7.221,6.028,12.166,9.255,-3.353,8.242,6.534,8.231,10.495,5.389
Fri Nov 22 20:53:19 2024,625,-11.294,11.294,-9.260,-9.260,-10.200,1.215,18.453,7.224,6.026,12.163,9.258,-3.355,8.238,6.538,8.236,10.491,5.395
Fri Nov 22 20:53:19 2024,630,-11.291,11.291,-9.261,-9.261,-10.198,1.217,18.450,7.227,6.025,12.160,9.260,-3.356,8.234,6.541,8.240,10.487,5.400
Fri Nov 22 20:53:19 2024,635,-11.289,11.289,-9.262,-9.262,-10.196,1.219,18.448,7.230,6.024,12.156,9.263,-3.358,8.230,6.545,8.245,10.484,5.406
Fri Nov 22 20:53:19 2024,640,-11.287,11.287,-9.263,-9.263,-10.194,1.220,18.445,7.232,6.023,12.153,9.265,-3.360,8.226,6.548,8.249,10.480,5.411
Fri Nov 22 20:53:19 2024,645,-11.284,11.284,-9.264,-9.264,-10.192,1.222,18.443,7.235,6.021,12.150,9.267,-3.362,8.223,6.552,8.254,10.476,5.416
Fri Nov 22 20:53:19 2024,650,-11.282,11.282,-9.264,-9.264,-10.190,1.224,18.440,7.238,6.020,12.147,9.270,-3.364,8.219,6.556,8.258,10.472,5.422
Fri Nov 22 20:53:19 2024,655,-11.280,11.280,-9.265,-9.265,-10.188,1.226,18.438,7.241,6.019,12.143,9.272,-3.365,8.215,6.559,8.262,10.469,5.427
Fri Nov 22 20:53:19 2024,660,-11.277,11.277,-9.266,-9.266,-10.186,1.227,18.435,7.244,6.017,12.140,9.275,-3.367,8.211,6.563,8.267,10.465,5.433
Fri Nov 22 20:53:19 2024,665,-11.275,11.275,-9.267,-9.267,-10.184,1.229,18.433,7.247,6.016,12.137,9.277,-3.369,8.208,6.567,8.271,10.461,5.438
Fri Nov 22 20:53:19 2024,670,-11.273,11.273,-9.268,-9.268,-10.182,1.231,18.431,7.250,6.015,12.134,9.279,-3.371,8.204,6.570,8.276,10.457,5.444
Fri Nov 22 20:53:19 2024,675,-11.270,11.270,-9.269,-9.269,-10.180,1.233,18.428,7.253,6.013,12.130,9.282,-3.372,8.200,6.574,8.280,10.453,5.449
Fri Nov 22 20:53:19 2024,680,-11.268,11.268,-9.270,-9.270,-10.178,1.235,18.426,7.256,6.012,12.127,9.284,-3.374,8.196,6.577,8.285,10.450,5.455
Fri Nov 22 20:53:19 2024,685,-11.266,11.266,-9.271,-9.271,-10.176,1.236,18.423,7.258,6.011,12.124,9.287,-3.376,8.192,6.581,8.289,10.446,5.460
Fri Nov 22 20:53:19 2024,690,-11.263,11.263,-9.272,-9.272,-10.174,1.238,18.421,7.261,6.010,12.121,9.289,-3.378,8.189,6.585,8.293,10.442,5.466
Fri Nov 22 20:53:19 2024,695,-11.261,11.261,-9.272,-9.272,-10.172,1.240,18.418,7.264,6.008,12.117,9.292,-3.379,8.185,6.588,8.298,10.438,5.471
Fri Nov 22 20:53:19 2024,700,-11.259,11.259,-9.273,-9.273,-10.169,1.242,18.416,7.267,6.007,12.114,9.294,-3.381,8.181,6.592,8.302,10.435,5.477
Fri Nov 22 20:53:19 2024,705,-11.256,11.256,-9.274,-9.274,-10.167,1.244,18.413,7.270,6.006,12.111,9.296,-3.383,8.177,6.595,8.307,10.431,5.482
Fri Nov 22 20:53:19 2024,710,-11.254,11.254,-9.275,-9.275,-10.165,1.245,18.411,7.273,6.004,12.107,9.299,-3.385,8.173,6.599,8.311,10.427,5.488
Fri Nov 22 20:53:19 2024,715,-11.252,11.252,-9.276,-9.276,-10.163,1.247,18.408,7.276,6.003,12.104,9.301,-3.386,8.170,6.603,8.316,10.423,5.493
Fri Nov 22 20:53:19 2024,720,-11.249,11.249,-9.277,-9.277,-10.161,1.249,18.406,7.279,6.002,12.101,9.304,-3.388,8.166,6.606,8.320,10.419,5.498
Fri Nov 22 20:53:19 2024,725,-11.247,11.247,-9.278,-9.278,-10.159,1.251,18.403,7.282,6.000,12.098,9.306,-3.390,8.162,6.610,8.324,10.416,5.504
Fri Nov 22 20:53:19 2024,730,-11.245,11.245,-9.279,-9.279,-10.157,1.253,18.401,7.284,5.999,12.094,9.308,-3.392,8.158,6.614,8.329,10.412,5.509
Fri Nov 22 20:53:19 2024,735,-11.242,11.242,-9.280,-9.280,-10.155,1.254,18.398,7.287,5.998,12.091,9.311,-3.393,8.155,6.617,8.333,10.408,5.515
Fri Nov 22 20:53:19 2024,740,-11.240,11.240,-9.280,-9.280,-10.153,1.256,18.396,7.290,5.996,12.088,9.313,-3.395,8.151,6.621,8.338,10.404,5.520
Fri Nov 22 20:53:19 2024,745,-11.238,11.238,-9.281,-9.281,-10.151,1.258,18.393,7.293,5.995,12.085,9.316,-3.397,8.147,6.624,8.342,10.401,5.526
Fri Nov 22 20:53:19 2024,750,-11.235,11.235,-9.282,-9.282,-10.149,1.260,18.391,7.296,5.994,12.081,9.318,-3.399,8.143,6.628,8.347,10.397,5.531
Fri Nov 22 20:53:19 2024,755,-11.233,11.233,-9.283,-9.283,-10.147,1.261,18.389,7.299,5.993,12.078,9.320,-3.400,8.139,6.632,8.351,10.393,5.537
Fri Nov 22 20:53:19 2024,760,-11.231,11.231,-9.284,-9.284,-10.145,1.263,18.386,7.302,5.991,12.075,9.323,-3.402,8.136,6.635,8.355,10.389,5.542
Fri Nov 22 20:53:19 2024,765,-11.228,11.228,-9.285,-9.285,-10.143,1.265,18.384,7.305,5.990,12.072,9.325,-3.404,8.132,6.639,8.360,10.386,5.548
Fri Nov 22 20:53:19 2024,770,-11.226,11.226,-9.286,-9.286,-10.141,1.267,18.381,7.308,5.989,12.068,9.328,-3.406,8.128,6.642,8.364,10.382,5.553
Fri Nov 22 20:53:19 2024,775,-11.223,11.223,-9.287,-9.287,-10.139,1.269,18.379,7.310,5.987,12.065,9.330,-3.407,8.124,6.646,8.369,10.378,5.559
Fri Nov 22 20:53:19 2024,780,-11.221,11.221,-9.287,-9.287,-10.137,1.270,18.376,7.313,5.986,12.062,9.333,-3.409,8.120,6.650,8.373,10.374,5.564
Fri Nov 22 20:53:19 2024,785,-11.219,11.219,-9.288,-9.288,-10.135,1.272,18.374,7.316,5.985,12.059,9.335,-3.411,8.117,6.653,8.378,10.370,5.569
Fri Nov 22 20:53:19 2024,790,-11.216,11.216,-9.289,-9.289,-10.132,1.274,18.371,7.319,5.983,12.055,9.337,-3.413,8.113,6.657,8.382,10.367,5.575
Fri Nov 22 20:53:19 2024,795,-11.214,11.214,-9.290,-9.290,-10.130,1.276,18.369,7.322,5.982,12.052,9.340,-3.415,8.109,6.660,8.386,10.363,5.580
Fri Nov 22 20:53:19 2024,800,-11.212,11.212,-9.291,-9.291,-10.128,1.278,18.366,7.325,5.981,12.049,9.342,-3.416,8.105,6.664,8.391,10.359,5.586
Fri Nov 22 20:53:19 2024,805,-11.209,11.209,-9.292,-9.292,-10.126,1.279,18.364,7.328,5.980,12.046,9.345,-3.418,8.102,6.668,8.395,10.355,5.591
Fri Nov 22 20:53:19 2024,810,-11.207,11.207,-9.293,-9.293,-10.124,1.281,18.361,7.331,5.978,12.042,9.347,-3.420,8.098,6.671,8.400,10.352,5.597
Fri Nov 22 20:53:19 2024,815,-11.205,11.205,-9.294,-9.294,-10.122,1.283,18.359,7.334,5.977,12.039,9.349,-3.422,8.094,6.675,8.404,10.348,5.602
Fri Nov 22 20:53:19 2024,820,-11.202,11.202,-9.295,-9.295,-10.120,1.285,18.356,7.336,5.976,12.036,9.352,-3.423,8.090,6.679,8.409,10.344,5.608
Fri Nov 22 20:53:19 2024,825,-11.200,11.200,-9.295,-9.295,-10.118,1.286,18.354,7.339,5.974,12.032,9.354,-3.425,8.086,6.682,8.413,10.340,5.613
Fri Nov 22 20:53:19 2024,830,-11.198,11.198,-9.296,-9.296,-10.116,1.288,18.351,7.342,5.973,12.029,9.357,-3.427,8.083,6.686,8.417,10.336,5.619
Fri Nov 22 20:53:19 2024,835,-11.195,11.195,-9.297,-9.297,-10.114,1.290,18.349,7.345,5.972,12.026,9.359,-3.429,8.079,6.689,8.422,10.333,5.624
Fri Nov 22 20:53:19 2024,840,-11.193,11.193,-9.298,-9.298,-10.112,1.292,18.346,7.348,5.970,12.023,9.362,-3.430,8.075,6.693,8.426,10.329,5.630
Fri Nov 22 20:53:19 2024,845,-11.191,11.191,-9.299,-9.299,-10.110,1.294,18.344,7.351,5.969,12.019,9.364,-3.432,8.071,6.697,8.431,10.325,5.635
Fri Nov 22 20:53:19 2024,850,-11.188,11.188,-9.300,-9.300,-10.108,1.295,18.342,7.354,5.968,12.016,9.366,-3.434,8.068,6.700,8.435,10.321,5.641
Fri Nov 22 20:53:19 2024,855,-11.186,11.186,-9.301,-9.301,-10.106,1.297,18.339,7.357,5.967,12.013,9.369,-3.436,8.064,6.704,8.440,10.318,5.646
Fri Nov 22 20:53:19 2024,860,-11.184,11.184,-9.302,-9.302,-10.104,1.299,18.337,7.360,5.965,12.010,9.371,-3.437,8.060,6.707,8.444,10.314,5.651
Fri Nov 22 20:53:19 2024,865,-11.181,11.181,-9.303,-9.303,-10.102,1.301,18.334,7.362,5.964,12.006,9.374,-3.439,8.056,6.711,8.448,10.310,5.657
Fri Nov 22 20:53:19 2024,870,-11.179,11.179,-9.303,-9.303,-10.100,1.303,18.332,7.365,5.963,12.003,9.376,-3.441,8.052,6.715,8.453,10.306,5.662
Fri Nov 22 20:53:19 2024,875,-11.177,11.177,-9.304,-9.304,-10.098,1.304,18.329,7.368,5.961,12.000,9.378,-3.443,8.049,6.718,8.457,10.303,5.668
Fri Nov 22 20:53:19 2024,880,-11.174,11.174,-9.305,-9.305,-10.096,1.306,18.327,7.371,5.960,11.997,9.381,-3.444,8.045,6.722,8.462,10.299,5.673
Fri Nov 22 20:53:19 2024,885,-11.172,11.172,-9.306,-9.306,-10.093,1.308,18.324,7.374,5.959,11.993,9.383,-3.446,8.041,6.725,8.466,10.295,5.679
Fri Nov 22 20:53:19 2024,890,-11.170,11.170,-9.307,-9.307,-10.091,1.310,18.322,7.377,5.957,11.990,9.386,-3.448,8.037,6.729,8.471,10.291,5.684
Fri Nov 22 20:53:19 2024,895,-11.167,11.167,-9.308,-9.308,-10.089,1.311,18.319,7.380,5.956,11.987,9.388,-3.450,8.033,6.733,8.475,10.287,5.690
Fri Nov 22 20:53:19 2024,900,-11.165,11.165,-9.309,-9.309,-10.087,1.313,18.317,7.383,5.955,11.984,9.391,-3.451,8.030,6.736,8.479,10.284,5.695
Fri Nov 22 20:53:19 2024,905,-11.163,11.163,-9.310,-9.310,-10.085,1.315,18.314,7.386,5.954,11.980,9.393,-3.453,8.026,6.740,8.484,10.280,5.701
Fri Nov 22 20:53:19 2024,910,-11.160,11.160,-9.310,-9.310,-10.083,1.317,18.312,7.388,5.952,11.977,9.395,-3.455,8.022,6.744,8.488,10.276,5.706
Fri Nov 22 20:53:19 2024,915,-11.158,11.158,-9.311,-9.311,-10.081,1.319,18.309,7.391,5.951,11.974,9.398,-3.457,8.018,6.747,8.493,10.272,5.712
Fri Nov 22 20:53:19 2024,920,-11.156,11.156,-9.312,-9.312,-10.079,1.320,18.307,7.394,5.950,11.971,9.400,-3.458,8.015,6.751,8.497,10.269,5.717
Fri Nov 22 20:53:19 2024,925,-11.153,11.153,-9.313,-9.313,-10.077,1.322,18.304,7.397,5.948,11.967,9.403,-3.460,8.011,6.754,8.502,10.265,5.723
Fri Nov 22 20:53:19 2024,930,-11.151,11.151,-9.314,-9.314,-10.075,1.324,18.302,7.400,5.947,11.964,9.405,-3.462,8.007,6.758,8.506,10.261,5.728
Fri Nov 22 20:53:19 2024,935,-11.113,11.113,-9.321,-9.321,-10.087,1.297,18.298,7.416,5.917,11.951,9.429,-3.447,8.020,6.807,8.486,10.221,5.700
Fri Nov 22 20:53:19 2024,940,-11.071,11.071,-9.328,-9.328,-10.100,1.268,18.292,7.434,5.884,11.936,9.454,-3.430,8.035,6.860,8.465,10.178,5.671
Fri Nov 22 20:53:19 2024,945,-11.132,11.132,-9.334,-9.334,-10.124,1.263,18.332,7.457,5.873,11.950,9.421,-3.490,7.960,6.791,8.512,10.158,5.642
Fri Nov 22 20:53:19 2024,950,-11.168,11.168,-9.340,-9.340,-10.146,1.252,18.360,7.478,5.858,11.956,9.402,-3.531,7.907,6.752,8.542,10.133,5.613
Fri Nov 22 20:53:19 2024,955,-11.189,11.189,-9.343,-9.343,-10.158,1.246,18.376,7.490,5.849,11.960,9.390,-3.556,7.876,6.729,8.560,10.118,5.597
Fri Nov 22 20:53:19 2024,960,-11.210,11.210,-9.347,-9.347,-10.170,1.240,18.393,7.503,5.840,11.964,9.379,-3.580,7.846,6.706,8.577,10.103,5.580
Fri Nov 22 20:53:19 2024,965,-11.215,11.215,-9.348,-9.348,-10.173,1.239,18.396,7.505,5.838,11.965,9.377,-3.586,7.839,6.701,8.580,10.100,5.576
Fri Nov 22 20:53:19 2024,970,-11.216,11.216,-9.348,-9.348,-10.174,1.238,18.397,7.506,5.837,11.965,9.376,-3.587,7.837,6.700,8.582,10.099,5.575
Fri Nov 22 20:53:19 2024,975,-11.216,11.216,-9.348,-9.348,-10.174,1.238,18.397,7.506,5.837,11.965,9.376,-3.587,7.837,6.700,8.582,10.099,5.575
Fri Nov 22 20:53:19 2024,980,-11.216,11.216,-9.348,-9.348,-10.174,1.238,18.397,7.506,5.837,11.965,9.376,-3.587,7.837,6.700,8.582,10.099,5.575
Fri Nov 22 20:53:19 2024,985,-11.216,11.216,-9.347,-9.347,-10.173,1.238,18.398,7.506,5.836,11.966,9.376,-3.587,7.836,6.699,8.582,10.098,5.575
Fri Nov 22 20:53:19 2024,990,-11.216,11.216,-9.347,-9.347,-10.173,1.238,18.398,7.506,5.836,11.966,9.376,-3.587,7.836,6.699,8.582,10.098,5.575
Fri Nov 22 20:53:19 2024,995,-11.216,11.216,-9.347,-9.347,-10.173,1.238,18.398,7.506,5.836,11.966,9.376,-3.587,7.836,6.699,8.582,10.098,5.575
Fri Nov 22 20:53:20 2024,0,-10.877,10.877,-9.326,-9.326,-10.025,1.283,18.239,7.441,5.936,11.893,9.492,-3.390,8.054,6.863,8.411,10.288,5.782
Fri Nov 22 20:53:20 2024,5,-10.968,10.968,-9.335,-9.335,-10.104,1.207,18.305,7.439,5.909,11.955,9.406,-3.591,7.951,6.736,8.345,10.430,5.766
Fri Nov 22 20:53:20 2024,10,-10.967,10.967,-9.336,-9.336,-10.108,1.200,18.307,7.437,5.909,11.960,9.400,-3.608,7.945,6.727,8.332,10.451,5.771
Fri Nov 22 20:53:20 2024,15,-10.966,10.966,-9.336,-9.336,-10.112,1.192,18.310,7.435,5.910,11.964,9.394,-3.624,7.938,6.717,8.320,10.472,5.775
Fri Nov 22 20:53:20 2024,20,-10.966,10.966,-9.337,-9.337,-10.116,1.185,18.312,7.434,5.910,11.968,9.388,-3.640,7.933,6.708,8.309,10.492,5.780
Fri Nov 22 20:53:20 2024,25,-10.965,10.965,-9.337,-9.337,-10.119,1.180,18.314,7.433,5.910,11.971,9.384,-3.653,7.928,6.701,8.300,10.507,5.783
Fri Nov 22 20:53:20 2024,30,-10.947,10.947,-9.318,-9.318,-10.131,1.213,18.373,7.365,5.985,12.003,9.362,-3.635,8.044,6.648,8.213,10.573,5.663
Fri Nov 22 20:53:20 2024,35,-10.942,10.942,-9.314,-9.314,-10.136,1.218,18.389,7.347,6.004,12.013,9.353,-3.639,8.071,6.630,8.185,10.601,5.634
Fri Nov 22 20:53:20 2024,40,-10.916,10.916,-9.302,-9.302,-10.133,1.216,18.415,7.357,6.004,12.063,9.366,-3.634,8.128,6.645,8.162,10.628,5.630
Fri Nov 22 20:53:20 2024,45,-10.880,10.880,-9.289,-9.289,-10.124,1.209,18.445,7.383,5.991,12.133,9.390,-3.624,8.197,6.680,8.146,10.651,5.644
Fri Nov 22 20:53:20 2024,50,-10.853,10.853,-9.276,-9.276,-10.116,1.203,18.470,7.409,5.978,12.181,9.415,-3.615,8.246,6.704,8.140,10.654,5.641
Fri Nov 22 20:53:20 2024,55,-10.839,10.839,-9.262,-9.262,-10.106,1.192,18.496,7.445,5.957,12.185,9.453,-3.604,8.251,6.705,8.163,10.597,5.584
Fri Nov 22 20:53:20 2024,60,-10.824,10.824,-9.247,-9.247,-10.096,1.180,18.523,7.483,5.935,12.190,9.492,-3.593,8.256,6.706,8.186,10.538,5.524
Fri Nov 22 20:53:20 2024,65,-10.866,10.866,-9.261,-9.261,-10.084,1.182,18.504,7.510,5.916,12.127,9.453,-3.573,8.232,6.699,8.181,10.522,5.515
Fri Nov 22 20:53:20 2024,70,-10.916,10.916,-9.280,-9.280,-10.074,1.186,18.474,7.530,5.902,12.058,9.400,-3.553,8.204,6.692,8.169,10.522,5.520
Fri Nov 22 20:53:20 2024,75,-10.934,10.934,-9.284,-9.284,-10.061,1.198,18.431,7.522,5.901,12.005,9.355,-3.547,8.129,6.656,8.159,10.516,5.511
Fri Nov 22 20:53:20 2024,80,-10.891,10.891,-9.259,-9.259,-10.047,1.219,18.373,7.468,5.926,11.999,9.336,-3.565,7.993,6.580,8.155,10.502,5.479
Fri Nov 22 20:53:20 2024,85,-10.866,10.866,-9.240,-9.240,-10.043,1.232,18.331,7.423,5.947,11.994,9.317,-3.580,7.900,6.523,8.148,10.494,5.445
Fri Nov 22 20:53:20 2024,90,-10.904,10.904,-9.236,-9.236,-10.073,1.214,18.340,7.398,5.964,11.986,9.294,-3.582,7.933,6.510,8.130,10.504,5.397
Fri Nov 22 20:53:20 2024,95,-10.959,10.959,-9.237,-9.237,-10.113,1.186,18.366,7.381,5.977,11.979,9.270,-3.582,8.007,6.514,8.112,10.519,5.347
Fri Nov 22 20:53:20 2024,100,-11.019,11.019,-9.241,-9.241,-10.135,1.166,18.384,7.369,5.986,11.970,9.248,-3.611,8.018,6.495,8.087,10.538,5.317
Fri Nov 22 20:53:20 2024,105,-11.069,11.069,-9.247,-9.247,-10.127,1.162,18.385,7.363,5.988,11.960,9.234,-3.670,7.941,6.448,8.061,10.556,5.318
Fri Nov 22 20:53:20 2024,110,-11.118,11.118,-9.252,-9.252,-10.120,1.160,18.386,7.356,5.990,11.950,9.220,-3.729,7.866,6.403,8.034,10.574,5.320
Fri Nov 22 20:53:20 2024,115,-11.131,11.131,-9.261,-9.261,-10.150,1.144,18.390,7.327,6.018,11.986,9.210,-3.728,7.892,6.390,8.025,10.574,5.279
Fri Nov 22 20:53:20 2024,120,-11.133,11.133,-9.270,-9.270,-10.184,1.128,18.394,7.297,6.047,12.026,9.203,-3.712,7.941,6.389,8.022,10.568,5.235
Fri Nov 22 20:53:20 2024,125,-11.163,11.163,-9.269,-9.269,-10.197,1.132,18.386,7.264,6.085,12.021,9.187,-3.712,7.927,6.366,8.033,10.572,5.237
Fri Nov 22 20:53:20 2024,130,-11.239,11.239,-9.255,-9.255,-10.183,1.167,18.359,7.223,6.141,11.951,9.156,-3.734,7.824,6.313,8.064,10.589,5.304
Fri Nov 22 20:53:20 2024,135,-11.304,11.304,-9.242,-9.242,-10.170,1.197,18.336,7.188,6.189,11.891,9.130,-3.753,7.735,6.267,8.091,10.603,5.363
Fri Nov 22 20:53:20 2024,140,-11.344,11.344,-9.240,-9.240,-10.226,1.136,18.355,7.166,6.214,11.896,9.104,-3.738,7.760,6.252,8.118,10.546,5.285
Fri Nov 22 20:53:20 2024,145,-11.373,11.373,-9.240,-9.240,-10.279,1.076,18.373,7.150,6.232,11.908,9.081,-3.723,7.793,6.242,8.140,10.492,5.206
Fri Nov 22 20:53:20 2024,150,-11.364,11.364,-9.257,-9.257,-10.342,1.063,18.411,7.104,6.250,11.938,9.049,-3.724,7.789,6.197,8.169,10.457,5.151
Fri Nov 22 20:53:20 2024,155,-11.322,11.322,-9.283,-9.283,-10.391,1.097,18.451,7.049,6.261,11.974,9.021,-3.741,7.753,6.137,8.195,10.453,5.139
Fri Nov 22 20:53:20 2024,160,-11.290,11.290,-9.304,-9.304,-10.430,1.130,18.475,6.998,6.275,11.999,8.994,-3.756,7.710,6.078,8.212,10.447,5.123
Fri Nov 22 20:53:20 2024,165,-11.317,11.317,-9.298,-9.298,-10.417,1.170,18.413,6.962,6.320,11.955,8.970,-3.758,7.606,6.008,8.170,10.423,5.074
Fri Nov 22 20:53:20 2024,170,-11.344,11.344,-9.290,-9.290,-10.403,1.205,18.354,6.932,6.359,11.912,8.949,-3.759,7.512,5.948,8.131,10.399,5.030
Fri Nov 22 20:53:20 2024,175,-11.366,11.366,-9.284,-9.284,-10.391,1.234,18.304,6.907,6.392,11.876,8.931,-3.760,7.434,5.897,8.097,10.378,4.994
Fri Nov 22 20:53:20 2024,180,-11.374,11.374,-9.253,-9.253,-10.421,1.215,18.350,6.848,6.428,11.964,8.916,-3.698,7.462,5.831,8.097,10.378,4.911
Fri Nov 22 20:53:20 2024,185,-11.387,11.387,-9.232,-9.232,-10.435,1.212,18.361,6.804,6.460,12.003,8.901,-3.661,7.454,5.776,8.086,10.371,4.850
Fri Nov 22 20:53:20 2024,190,-11.392,11.392,-9.262,-9.262,-10.494,1.184,18.391,6.804,6.501,11.996,8.902,-3.660,7.599,5.823,8.141,10.323,4.790
Fri Nov 22 20:53:20 2024,195,-11.395,11.395,-9.285,-9.285,-10.541,1.161,18.415,6.803,6.533,11.990,8.903,-3.659,7.715,5.861,8.184,10.285,4.743
Fri Nov 22 20:53:20 2024,200,-11.408,11.408,-9.286,-9.286,-10.529,1.129,18.449,6.762,6.514,11.995,8.832,-3.690,7.749,5.820,8.167,10.330,4.717
Fri Nov 22 20:53:20 2024,205,-11.426,11.426,-9.270,-9.270,-10.478,1.092,18.489,6.694,6.462,12.007,8.715,-3.742,7.727,5.727,8.110,10.431,4.707
Fri Nov 22 20:53:20 2024,210,-11.461,11.461,-9.259,-9.259,-10.445,1.076,18.523,6.653,6.429,12.004,8.631,-3.776,7.709,5.662,8.078,10.497,4.699
Fri Nov 22 20:53:20 2024,215,-11.562,11.562,-9.258,-9.258,-10.467,1.127,18.538,6.695,6.459,11.956,8.639,-3.760,7.704,5.680,8.123,10.465,4.695
Fri Nov 22 20:53:20 2024,220,-11.634,11.634,-9.257,-9.257,-10.483,1.164,18.545,6.725,6.480,11.921,8.644,-3.748,7.700,5.694,8.155,10.441,4.692
Fri Nov 22 20:53:20 2024,225,-11.646,11.646,-9.251,-9.251,-10.507,1.160,18.570,6.719,6.482,11.930,8.631,-3.758,7.722,5.682,8.163,10.458,4.685
Fri Nov 22 20:53:20 2024,230,-11.526,11.526,-9.236,-9.236,-10.544,1.070,18.632,6.640,6.442,12.028,8.581,-3.811,7.789,5.622,8.120,10.557,4.673
Fri Nov 22 20:53:20 2024,235,-11.464,11.464,-9.226,-9.226,-10.568,1.022,18.669,6.596,6.421,12.082,8.552,-3.841,7.829,5.588,8.099,10.613,4.665
Fri Nov 22 20:53:20 2024,240,-11.498,11.498,-9.216,-9.216,-10.511,1.016,18.702,6.687,6.371,12.136,8.621,-3.913,7.698,5.612,8.053,10.645,4.746
Fri Nov 22 20:53:20 2024,245,-11.512,11.512,-9.208,-9.208,-10.476,1.006,18.728,6.742,6.334,12.179,8.663,-3.965,7.616,5.624,8.020,10.674,4.800
Fri Nov 22 20:53:20 2024,250,-11.534,11.534,-9.192,-9.192,-10.456,1.003,18.735,6.728,6.364,12.209,8.688,-3.952,7.627,5.613,8.017,10.660,4.758
Fri Nov 22 20:53:20 2024,255,-11.551,11.551,-9.177,-9.177,-10.445,1.002,18.737,6.704,6.401,12.229,8.703,-3.929,7.656,5.598,8.021,10.640,4.707
Fri Nov 22 20:53:20 2024,260,-11.587,11.587,-9.177,-9.177,-10.442,1.007,18.716,6.678,6.425,12.223,8.680,-3.922,7.641,5.555,7.998,10.635,4.646
Fri Nov 22 20:53:20 2024,265,-11.641,11.641,-9.197,-9.197,-10.450,1.018,18.670,6.655,6.425,12.185,8.607,-3.940,7.569,5.479,7.942,10.652,4.585
Fri Nov 22 20:53:20 2024,270,-11.692,11.692,-9.215,-9.215,-10.457,1.028,18.626,6.634,6.425,12.149,8.540,-3.956,7.503,5.409,7.891,10.668,4.529
Fri Nov 22 20:53:20 2024,275,-11.744,11.744,-9.188,-9.188,-10.456,1.038,18.638,6.639,6.472,12.157,8.586,-3.894,7.572,5.447,7.945,10.643,4.558
Fri Nov 22 20:53:20 2024,280,-11.796,11.796,-9.153,-9.153,-10.454,1.047,18.657,6.648,6.526,12.172,8.650,-3.820,7.661,5.502,8.015,10.611,4.603
Fri Nov 22 20:53:20 2024,285,-11.826,11.826,-9.126,-9.126,-10.458,1.044,18.689,6.661,6.531,12.182,8.664,-3.820,7.656,5.496,8.030,10.590,4.566
Fri Nov 22 20:53:20 2024,290,-11.836,11.836,-9.111,-9.111,-10.468,1.030,18.724,6.671,6.497,12.188,8.637,-3.879,7.580,5.442,7.996,10.580,4.472
Fri Nov 22 20:53:20 2024,295,-11.846,11.846,-9.097,-9.097,-10.477,1.017,18.758,6.682,6.463,12.194,8.610,-3.936,7.506,5.389,7.964,10.571,4.381
Fri Nov 22 20:53:20 2024,300,-11.856,11.856,-9.020,-9.020,-10.461,0.977,18.758,6.666,6.474,12.171,8.566,-3.923,7.533,5.357,8.001,10.529,4.333
Fri Nov 22 20:53:20 2024,305,-11.865,11.865,-8.954,-8.954,-10.447,0.943,18.752,6.651,6.487,12.150,8.530,-3.907,7.562,5.334,8.037,10.493,4.298
Fri Nov 22 20:53:20 2024,310,-11.827,11.827,-8.928,-8.928,-10.458,0.934,18.733,6.574,6.516,12.136,8.481,-3.910,7.557,5.284,8.055,10.462,4.242
Fri Nov 22 20:53:20 2024,315,-11.756,11.756,-8.946,-8.946,-10.490,0.953,18.710,6.464,6.551,12.134,8.436,-3.931,7.521,5.224,8.052,10.446,4.184
Fri Nov 22 20:53:20 2024,320,-11.690,11.690,-8.964,-8.964,-10.519,0.970,18.689,6.364,6.583,12.130,8.396,-3.950,7.488,5.170,8.048,10.431,4.130
Fri Nov 22 20:53:20 2024,325,-11.638,11.638,-8.933,-8.933,-10.505,0.961,18.695,6.380,6.586,12.127,8.390,-3.950,7.512,5.174,8.060,10.483,4.175
Fri Nov 22 20:53:20 2024,330,-11.591,11.591,-8.904,-8.904,-10.491,0.952,18.702,6.399,6.589,12.123,8.386,-3.949,7.536,5.180,8.071,10.531,4.218
Fri Nov 22 20:53:20 2024,335,-11.573,11.573,-8.937,-8.937,-10.516,0.935,18.703,6.396,6.587,12.152,8.434,-3.974,7.531,5.212,8.068,10.532,4.236
Fri Nov 22 20:53:20 2024,340,-11.572,11.572,-8.992,-8.992,-10.554,0.919,18.699,6.384,6.584,12.188,8.496,-4.005,7.514,5.248,8.059,10.511,4.237
Fri Nov 22 20:53:20 2024,345,-11.572,11.572,-9.042,-9.042,-10.587,0.905,18.696,6.373,6.582,12.220,8.551,-4.032,7.498,5.281,8.051,10.491,4.239
Fri Nov 22 20:53:20 2024,350,-11.608,11.608,-9.038,-9.038,-10.541,0.898,18.708,6.462,6.556,12.197,8.601,-4.027,7.485,5.365,8.117,10.415,4.298
Fri Nov 22 20:53:20 2024,355,-11.633,11.633,-9.037,-9.037,-10.509,0.893,18.717,6.524,6.537,12.182,8.639,-4.024,7.475,5.425,8.163,10.361,4.340
Fri Nov 22 20:53:20 2024,360,-11.685,11.685,-9.079,-9.079,-10.527,0.917,18.709,6.528,6.515,12.165,8.651,-3.991,7.454,5.450,8.191,10.330,4.345
Fri Nov 22 20:53:20 2024,365,-11.730,11.730,-9.123,-9.123,-10.557,0.944,18.696,6.509,6.499,12.154,8.650,-3.956,7.435,5.454,8.203,10.318,4.334
Fri Nov 22 20:53:20 2024,370,-11.798,11.798,-9.180,-9.180,-10.591,0.969,18.693,6.517,6.487,12.144,8.653,-3.925,7.440,5.462,8.214,10.308,4.319
Fri Nov 22 20:53:20 2024,375,-11.889,11.889,-9.233,-9.233,-10.611,0.966,18.725,6.603,6.496,12.148,8.665,-3.925,7.514,5.477,8.212,10.309,4.303
Fri Nov 22 20:53:20 2024,380,-11.970,11.970,-9.280,-9.280,-10.630,0.962,18.753,6.679,6.503,12.152,8.677,-3.926,7.579,5.491,8.211,10.310,4.288
Fri Nov 22 20:53:20 2024,385,-11.952,11.952,-9.301,-9.301,-10.632,0.944,18.773,6.741,6.464,12.138,8.687,-3.943,7.642,5.554,8.177,10.338,4.300
Fri Nov 22 20:53:20 2024,390,-11.909,11.909,-9.315,-9.315,-10.630,0.923,18.791,6.797,6.414,12.119,8.697,-3.964,7.703,5.629,8.136,10.372,4.318
Fri Nov 22 20:53:20 2024,395,-11.872,11.872,-9.327,-9.327,-10.629,0.905,18.806,6.846,6.370,12.101,8.706,-3.983,7.755,5.693,8.100,10.401,4.334
Fri Nov 22 20:53:20 2024,400,-11.875,11.875,-9.280,-9.280,-10.612,0.885,18.874,6.915,6.421,12.202,8.804,-3.915,7.870,5.718,8.151,10.428,4.368
Fri Nov 22 20:53:20 2024,405,-11.873,11.873,-9.252,-9.252,-10.602,0.870,18.918,6.966,6.447,12.260,8.868,-3.874,7.950,5.742,8.177,10.449,4.391
Fri Nov 22 20:53:20 2024,410,-11.901,11.901,-9.261,-9.261,-10.646,0.829,19.013,7.089,6.457,12.316,8.992,-3.850,8.096,5.855,8.142,10.450,4.363
Fri Nov 22 20:53:20 2024,415,-11.934,11.934,-9.280,-9.280,-10.700,0.786,19.106,7.217,6.462,12.364,9.118,-3.832,8.242,5.981,8.092,10.445,4.323
Fri Nov 22 20:53:20 2024,420,-11.963,11.963,-9.298,-9.298,-10.747,0.750,19.182,7.330,6.465,12.405,9.227,-3.817,8.369,6.090,8.048,10.439,4.289
Fri Nov 22 20:53:20 2024,425,-11.865,11.865,-9.227,-9.227,-10.705,0.753,19.208,7.284,6.422,12.417,9.121,-3.804,8.484,6.010,8.062,10.486,4.225
Fri Nov 22 20:53:20 2024,430,-11.808,11.808,-9.184,-9.184,-10.689,0.747,19.236,7.282,6.395,12.436,9.080,-3.791,8.593,5.984,8.061,10.516,4.174
Fri Nov 22 20:53:20 2024,435,-11.750,11.750,-9.183,-9.183,-10.650,0.709,19.230,7.316,6.330,12.421,9.165,-3.819,8.552,6.090,8.002,10.488,4.219
Fri Nov 22 20:53:20 2024,440,-11.701,11.701,-9.186,-9.186,-10.614,0.676,19.198,7.348,6.272,12.402,9.250,-3.848,8.500,6.193,7.947,10.456,4.266
Fri Nov 22 20:53:20 2024,445,-11.736,11.736,-9.212,-9.212,-10.622,0.662,19.216,7.408,6.220,12.446,9.336,-3.856,8.503,6.259,7.926,10.448,4.282
Fri Nov 22 20:53:20 2024,450,-11.826,11.826,-9.248,-9.248,-10.663,0.666,19.270,7.478,6.182,12.528,9.407,-3.849,8.544,6.288,7.933,10.462,4.271
Fri Nov 22 20:53:20 2024,455,-11.922,11.922,-9.279,-9.279,-10.701,0.678,19.300,7.537,6.142,12.610,9.479,-3.830,8.593,6.320,7.938,10.466,4.252
Fri Nov 22 20:53:20 2024,460,-11.934,11.934,-9.226,-9.226,-10.676,0.725,19.249,7.438,6.143,12.572,9.456,-3.758,8.640,6.332,7.925,10.405,4.198
Fri Nov 22 20:53:20 2024,465,-11.939,11.939,-9.177,-9.177,-10.652,0.766,19.203,7.347,6.146,12.535,9.431,-3.695,8.678,6.342,7.914,10.350,4.151
Fri Nov 22 20:53:20 2024,470,-11.990,11.990,-9.179,-9.179,-10.666,0.817,19.172,7.341,6.130,12.518,9.412,-3.673,8.677,6.337,7.935,10.336,4.138
Fri Nov 22 20:53:20 2024,475,-12.078,12.078,-9.218,-9.218,-10.710,0.878,19.121,7.397,6.099,12.513,9.396,-3.680,8.647,6.319,7.983,10.350,4.149
Fri Nov 22 20:53:20 2024,480,-12.146,12.146,-9.238,-9.238,-10.730,0.919,19.066,7.443,6.056,12.517,9.393,-3.688,8.620,6.312,8.013,10.366,4.164
Fri Nov 22 20:53:20 2024,485,-12.093,12.093,-9.169,-9.169,-10.641,0.855,19.144,7.421,5.983,12.558,9.449,-3.701,8.616,6.353,7.955,10.381,4.189
Fri Nov 22 20:53:20 2024,490,-12.046,12.046,-9.108,-9.108,-10.562,0.800,19.191,7.403,5.919,12.594,9.498,-3.712,8.613,6.389,7.903,10.394,4.211
Fri Nov 22 20:53:20 2024,495,-12.100,12.100,-9.117,-9.117,-10.547,0.852,19.130,7.340,5.920,12.576,9.501,-3.681,8.631,6.395,7.881,10.410,4.200
Fri Nov 22 20:53:20 2024,500,-12.178,12.178,-9.156,-9.156,-10.569,0.932,19.053,7.285,5.952,12.541,9.480,-3.644,8.652,6.385,7.882,10.420,4.177
Fri Nov 22 20:53:20 2024,505,-12.250,12.250,-9.178,-9.178,-10.582,1.014,18.975,7.243,5.982,12.504,9.460,-3.608,8.664,6.373,7.888,10.426,4.160
Fri Nov 22 20:53:20 2024,510,-12.235,12.235,-9.100,-9.100,-10.540,1.037,18.956,7.298,5.981,12.489,9.464,-3.604,8.623,6.364,7.909,10.403,4.183
Fri Nov 22 20:53:20 2024,515,-12.221,12.221,-9.029,-9.029,-10.501,1.059,18.938,7.348,5.980,12.475,9.467,-3.602,8.586,6.356,7.929,10.383,4.204
Fri Nov 22 20:53:20 2024,520,-12.198,12.198,-8.978,-8.978,-10.478,1.102,18.890,7.310,5.999,12.431,9.429,-3.579,8.582,6.350,7.918,10.354,4.211
Fri Nov 22 20:53:20 2024,525,-12.172,12.172,-8.940,-8.940,-10.464,1.158,18.825,7.223,6.029,12.369,9.368,-3.545,8.599,6.344,7.889,10.320,4.208
Fri Nov 22 20:53:20 2024,530,-12.156,12.156,-8.957,-8.957,-10.475,1.209,18.765,7.165,6.082,12.328,9.355,-3.535,8.578,6.333,7.883,10.312,4.218
Fri Nov 22 20:53:20 2024,535,-12.159,12.159,-9.063,-9.063,-10.525,1.248,18.725,7.153,6.165,12.320,9.415,-3.563,8.504,6.316,7.908,10.346,4.245
Fri Nov 22 20:53:20 2024,540,-12.162,12.162,-9.164,-9.164,-10.572,1.285,18.687,7.140,6.245,12.310,9.474,-3.590,8.433,6.300,7.934,10.377,4.270
Fri Nov 22 20:53:20 2024,545,-12.164,12.164,-9.247,-9.247,-10.611,1.316,18.656,7.131,6.311,12.301,9.521,-3.612,8.375,6.286,7.954,10.402,4.291
Fri Nov 22 20:53:20 2024,550,-12.247,12.247,-9.119,-9.119,-10.591,1.281,18.714,7.277,6.297,12.236,9.347,-3.646,8.435,6.198,7.855,10.415,4.194
Fri Nov 22 20:53:20 2024,555,-12.256,12.256,-9.089,-9.089,-10.604,1.281,18.717,7.311,6.325,12.210,9.285,-3.681,8.434,6.137,7.827,10.440,4.173
Fri Nov 22 20:53:20 2024,560,-12.222,12.222,-9.067,-9.067,-10.626,1.288,18.711,7.295,6.365,12.201,9.240,-3.724,8.421,6.067,7.818,10.474,4.181
Fri Nov 22 20:53:20 2024,565,-12.189,12.189,-9.045,-9.045,-10.647,1.294,18.705,7.279,6.402,12.193,9.196,-3.765,8.408,6.001,7.810,10.506,4.189
Fri Nov 22 20:53:20 2024,570,-12.177,12.177,-9.027,-9.027,-10.667,1.306,18.693,7.273,6.451,12.166,9.149,-3.800,8.392,5.932,7.790,10.543,4.188
Fri Nov 22 20:53:20 2024,575,-12.208,12.208,-9.013,-9.013,-10.686,1.329,18.668,7.284,6.525,12.105,9.094,-3.822,8.368,5.855,7.748,10.588,4.167
Fri Nov 22 20:53:20 2024,580,-12.209,12.209,-8.985,-8.985,-10.691,1.333,18.661,7.262,6.558,12.090,9.040,-3.854,8.352,5.793,7.725,10.638,4.183
Fri Nov 22 20:53:20 2024,585,-12.180,12.180,-8.931,-8.931,-10.661,1.300,18.690,7.177,6.510,12.155,8.989,-3.892,8.348,5.772,7.731,10.702,4.267
Fri Nov 22 20:53:20 2024,590,-12.155,12.155,-8.878,-8.878,-10.636,1.271,18.713,7.098,6.475,12.209,8.932,-3.933,8.342,5.740,7.731,10.769,4.346
Fri Nov 22 20:53:20 2024,595,-12.147,12.147,-8.852,-8.852,-10.632,1.266,18.713,7.046,6.466,12.206,8.875,-3.967,8.298,5.685,7.716,10.786,4.340
Fri Nov 22 20:53:20 2024,600,-12.170,12.170,-8.854,-8.854,-10.674,1.307,18.667,6.992,6.505,12.074,8.748,-4.027,8.119,5.514,7.649,10.717,4.145
Fri Nov 22 20:53:20 2024,605,-12.175,12.175,-8.844,-8.844,-10.688,1.320,18.650,6.952,6.516,12.023,8.679,-4.062,8.037,5.431,7.619,10.696,4.070
Fri Nov 22 20:53:20 2024,610,-12.119,12.119,-8.692,-8.692,-10.572,1.273,18.672,6.953,6.439,12.038,8.670,-4.116,8.048,5.466,7.562,10.740,4.148
Fri Nov 22 20:53:20 2024,615,-12.088,12.088,-8.604,-8.604,-10.511,1.251,18.676,6.942,6.399,12.030,8.645,-4.156,8.029,5.461,7.521,10.759,4.168
Fri Nov 22 20:53:20 2024,620,-12.134,12.134,-8.522,-8.522,-10.476,1.222,18.709,6.937,6.378,12.077,8.630,-4.158,8.065,5.449,7.519,10.789,4.176
Fri Nov 22 20:53:20 2024,625,-12.342,12.342,-8.401,-8.401,-10.466,1.164,18.812,6.942,6.376,12.244,8.624,-4.095,8.212,5.420,7.582,10.856,4.168
Fri Nov 22 20:53:20 2024,630,-12.353,12.353,-8.350,-8.350,-10.474,1.155,18.824,6.896,6.398,12.272,8.555,-4.096,8.232,5.348,7.582,10.870,4.104
Fri Nov 22 20:53:20 2024,635,-12.324,12.324,-8.326,-8.326,-10.493,1.159,18.817,6.842,6.426,12.270,8.478,-4.107,8.226,5.270,7.574,10.873,4.030
Fri Nov 22 20:53:20 2024,640,-12.291,12.291,-8.298,-8.298,-10.513,1.164,18.810,6.780,6.460,12.267,8.390,-4.120,8.218,5.183,7.564,10.876,3.946
Fri Nov 22 20:53:20 2024,645,-12.252,12.252,-8.259,-8.259,-10.551,1.165,18.781,6.676,6.463,12.159,8.251,-4.136,8.083,5.046,7.518,10.792,3.814
Fri Nov 22 20:53:20 2024,650,-12.219,12.219,-8.226,-8.226,-10.582,1.165,18.751,6.589,6.469,12.073,8.134,-4.150,7.978,4.932,7.482,10.723,3.705
Fri Nov 22 20:53:20 2024,655,-12.223,12.223,-8.225,-8.225,-10.598,1.132,18.778,6.508,6.458,12.080,8.060,-4.196,7.910,4.824,7.436,10.784,3.650
Fri Nov 22 20:53:20 2024,660,-12.236,12.236,-8.234,-8.234,-10.606,1.099,18.813,6.451,6.446,12.111,8.019,-4.237,7.871,4.748,7.401,10.864,3.626
Fri Nov 22 20:53:20 2024,665,-12.250,12.250,-8.244,-8.244,-10.613,1.064,18.853,6.389,6.433,12.145,7.973,-4.283,7.830,4.666,7.361,10.951,3.600
Fri Nov 22 20:53:20 2024,670,-12.142,12.142,-8.357,-8.357,-10.683,1.118,18.804,6.375,6.501,12.099,7.999,-4.334,7.697,4.606,7.374,10.934,3.572
Fri Nov 22 20:53:20 2024,675,-12.069,12.069,-8.433,-8.433,-10.730,1.151,18.775,6.359,6.545,12.072,8.011,-4.374,7.602,4.556,7.379,10.933,3.550
Fri Nov 22 20:53:20 2024,680,-12.038,12.038,-8.451,-8.451,-10.705,1.165,18.767,6.313,6.543,12.094,8.046,-4.370,7.571,4.539,7.386,10.955,3.562
Fri Nov 22 20:53:20 2024,685,-12.020,12.020,-8.451,-8.451,-10.665,1.172,18.765,6.266,6.529,12.127,8.084,-4.356,7.560,4.534,7.394,10.980,3.581
Fri Nov 22 20:53:20 2024,690,-12.001,12.001,-8.452,-8.452,-10.626,1.179,18.763,6.219,6.516,12.159,8.120,-4.343,7.548,4.528,7.401,11.004,3.600
Fri Nov 22 20:53:20 2024,695,-11.999,11.999,-8.601,-8.601,-10.715,1.243,18.710,6.202,6.563,12.100,8.080,-4.313,7.517,4.508,7.420,10.952,3.543
Fri Nov 22 20:53:20 2024,700,-11.994,11.994,-8.697,-8.697,-10.766,1.285,18.673,6.184,6.591,12.067,8.059,-4.291,7.495,4.494,7.434,10.921,3.509
Fri Nov 22 20:53:20 2024,705,-11.974,11.974,-8.779,-8.779,-10.795,1.312,18.650,6.162,6.596,12.056,8.049,-4.276,7.491,4.490,7.440,10.929,3.507
Fri Nov 22 20:53:20 2024,710,-11.886,11.886,-8.844,-8.844,-10.758,1.299,18.665,6.119,6.524,12.119,8.073,-4.277,7.552,4.518,7.426,11.077,3.617
Fri Nov 22 20:53:20 2024,715,-11.827,11.827,-8.914,-8.914,-10.748,1.302,18.664,6.084,6.483,12.151,8.084,-4.272,7.586,4.533,7.419,11.164,3.680
Fri Nov 22 20:53:20 2024,720,-11.856,11.856,-8.884,-8.884,-10.717,1.318,18.658,6.124,6.499,12.141,8.110,-4.256,7.672,4.557,7.352,11.205,3.650
Fri Nov 22 20:53:20 2024,725,-11.860,11.860,-8.880,-8.880,-10.693,1.328,18.654,6.143,6.500,12.142,8.130,-4.245,7.737,4.577,7.306,11.251,3.645
Fri Nov 22 20:53:20 2024,730,-11.863,11.863,-8.877,-8.877,-10.677,1.336,18.650,6.155,6.501,12.142,8.144,-4.237,7.781,4.590,7.274,11.282,3.642
Fri Nov 22 20:53:20 2024,735,-11.972,11.972,-8.920,-8.920,-10.625,1.358,18.636,6.196,6.423,12.109,8.099,-4.148,7.852,4.634,7.300,11.284,3.694
Fri Nov 22 20:53:20 2024,740,-12.015,12.015,-8.936,-8.936,-10.598,1.370,18.627,6.217,6.392,12.095,8.087,-4.110,7.895,4.655,7.297,11.297,3.714
Fri Nov 22 20:53:20 2024,745,-12.043,12.043,-8.949,-8.949,-10.548,1.429,18.560,6.243,6.470,12.051,8.169,-4.041,7.928,4.734,7.282,11.250,3.739
Fri Nov 22 20:53:20 2024,750,-12.068,12.068,-8.960,-8.960,-10.512,1.468,18.517,6.263,6.509,12.022,8.215,-3.992,7.957,4.785,7.273,11.224,3.760
Fri Nov 22 20:53:20 2024,755,-12.061,12.061,-8.880,-8.880,-10.452,1.403,18.569,6.281,6.432,12.071,8.176,-4.024,7.983,4.771,7.196,11.249,3.741
Fri Nov 22 20:53:20 2024,760,-12.055,12.055,-8.820,-8.820,-10.406,1.356,18.605,6.295,6.377,12.106,8.148,-4.047,8.003,4.762,7.139,11.267,3.727
Fri Nov 22 20:53:20 2024,765,-12.073,12.073,-8.766,-8.766,-10.368,1.279,18.671,6.305,6.324,12.171,8.144,-4.066,8.039,4.774,7.105,11.294,3.744
Fri Nov 22 20:53:20 2024,770,-12.151,12.151,-8.753,-8.753,-10.375,1.150,18.797,6.300,6.304,12.292,8.210,-4.062,8.109,4.842,7.153,11.339,3.843
Fri Nov 22 20:53:20 2024,775,-12.211,12.211,-8.733,-8.733,-10.372,1.041,18.900,6.299,6.278,12.392,8.258,-4.063,8.167,4.894,7.181,11.375,3.920
Fri Nov 22 20:53:20 2024,780,-12.304,12.304,-8.668,-8.668,-10.311,0.986,18.972,6.392,6.258,12.420,8.279,-4.026,8.240,4.938,7.146,11.371,3.881
Fri Nov 22 20:53:20 2024,785,-12.379,12.379,-8.616,-8.616,-10.264,0.940,19.028,6.463,6.242,12.445,8.296,-3.996,8.298,4.974,7.119,11.368,3.852
Fri Nov 22 20:53:20 2024,790,-12.343,12.343,-8.548,-8.548,-10.188,0.860,19.091,6.481,6.204,12.488,8.276,-4.000,8.355,4.985,7.074,11.414,3.851
Fri Nov 22 20:53:20 2024,795,-12.116,12.116,-8.447,-8.447,-10.058,0.720,19.144,6.404,6.124,12.567,8.189,-4.060,8.413,4.950,6.998,11.552,3.895
Fri Nov 22 20:53:20 2024,800,-11.940,11.940,-8.357,-8.357,-9.945,0.599,19.150,6.349,6.056,12.634,8.120,-4.105,8.466,4.927,6.932,11.663,3.927
Fri Nov 22 20:53:20 2024,805,-11.985,11.985,-8.346,-8.346,-9.943,0.550,19.158,6.377,6.024,12.629,8.134,-4.103,8.384,4.951,6.964,11.642,3.963
Fri Nov 22 20:53:20 2024,810,-12.096,12.096,-8.359,-8.359,-9.974,0.523,19.174,6.431,6.002,12.600,8.173,-4.086,8.258,4.990,7.028,11.580,4.000
Fri Nov 22 20:53:20 2024,815,-12.112,12.112,-8.324,-8.324,-9.928,0.510,19.150,6.499,5.974,12.626,8.251,-4.113,8.162,5.018,7.047,11.522,4.004
Fri Nov 22 20:53:20 2024,820,-12.114,12.114,-8.285,-8.285,-9.872,0.506,19.118,6.571,5.950,12.661,8.338,-4.146,8.072,5.042,7.061,11.460,4.000
Fri Nov 22 20:53:20 2024,825,-12.116,12.116,-8.246,-8.246,-9.817,0.502,19.086,6.639,5.926,12.694,8.422,-4.178,7.985,5.065,7.073,11.399,3.995
Fri Nov 22 20:53:20 2024,830,-12.076,12.076,-8.246,-8.246,-9.806,0.494,18.990,6.560,5.916,12.576,8.298,-4.119,7.950,5.031,7.078,11.460,4.062
Fri Nov 22 20:53:20 2024,835,-12.045,12.045,-8.237,-8.237,-9.786,0.488,18.907,6.515,5.905,12.491,8.222,-4.081,7.904,5.010,7.084,11.491,4.112
Fri Nov 22 20:53:20 2024,840,-12.044,12.044,-8.183,-8.183,-9.739,0.500,18.866,6.560,5.939,12.437,8.213,-4.072,7.877,4.992,7.093,11.389,4.029
Fri Nov 22 20:53:20 2024,845,-12.048,12.048,-8.134,-8.134,-9.696,0.512,18.840,6.610,5.974,12.399,8.216,-4.069,7.858,4.979,7.101,11.284,3.941
Fri Nov 22 20:53:20 2024,850,-12.021,12.021,-8.089,-8.089,-9.654,0.516,18.832,6.643,6.000,12.391,8.231,-4.064,7.858,4.975,7.128,11.240,3.924
Fri Nov 22 20:53:20 2024,855,-11.951,11.951,-8.052,-8.052,-9.610,0.507,18.851,6.654,6.012,12.430,8.262,-4.056,7.886,4.985,7.187,11.288,4.010
Fri Nov 22 20:53:20 2024,860,-11.881,11.881,-8.016,-8.016,-9.567,0.498,18.870,6.664,6.023,12.468,8.293,-4.047,7.915,4.994,7.245,11.337,4.097
Fri Nov 22 20:53:20 2024,865,-11.830,11.830,-7.990,-7.990,-9.539,0.492,18.882,6.669,6.033,12.495,8.318,-4.040,7.934,5.000,7.289,11.363,4.152
Fri Nov 22 20:53:20 2024,870,-11.812,11.812,-7.982,-7.982,-9.538,0.497,18.876,6.662,6.044,12.504,8.335,-4.042,7.942,5.002,7.318,11.337,4.138
Fri Nov 22 20:53:20 2024,875,-11.793,11.793,-7.974,-7.974,-9.537,0.502,18.870,6.654,6.054,12.513,8.353,-4.045,7.949,5.004,7.348,11.311,4.124
Fri Nov 22 20:53:20 2024,880,-11.775,11.775,-7.965,-7.965,-9.536,0.507,18.864,6.646,6.065,12.522,8.370,-4.047,7.956,5.006,7.377,11.286,4.109
Fri Nov 22 20:53:20 2024,885,-11.756,11.756,-7.957,-7.957,-9.534,0.513,18.858,6.638,6.075,12.531,8.388,-4.049,7.963,5.008,7.407,11.260,4.095
Fri Nov 22 20:53:20 2024,890,-11.738,11.738,-7.949,-7.949,-9.533,0.518,18.852,6.630,6.086,12.540,8.405,-4.051,7.971,5.010,7.436,11.234,4.081
Fri Nov 22 20:53:20 2024,895,-11.720,11.720,-7.940,-7.940,-9.532,0.523,18.846,6.623,6.096,12.549,8.423,-4.053,7.978,5.012,7.466,11.209,4.066
Fri Nov 22 20:53:20 2024,900,-11.701,11.701,-7.932,-7.932,-9.531,0.528,18.840,6.615,6.107,12.559,8.440,-4.055,7.985,5.014,7.495,11.183,4.052
Fri Nov 22 20:53:20 2024,905,-11.683,11.683,-7.924,-7.924,-9.530,0.533,18.834,6.607,6.117,12.568,8.458,-4.057,7.992,5.016,7.525,11.157,4.038
Fri Nov 22 20:53:20 2024,910,-11.664,11.664,-7.915,-7.915,-9.529,0.538,18.828,6.599,6.128,12.577,8.476,-4.059,8.000,5.018,7.554,11.132,4.023
Fri Nov 22 20:53:20 2024,915,-11.646,11.646,-7.907,-7.907,-9.528,0.543,18.822,6.591,6.138,12.586,8.493,-4.061,8.007,5.020,7.584,11.106,4.009
Fri Nov 22 20:53:20 2024,920,-11.627,11.627,-7.899,-7.899,-9.527,0.548,18.816,6.583,6.149,12.595,8.511,-4.063,8.014,5.022,7.613,11.080,3.995
Fri Nov 22 20:53:20 2024,925,-11.609,11.609,-7.890,-7.890,-9.526,0.554,18.810,6.576,6.159,12.604,8.528,-4.065,8.021,5.023,7.643,11.054,3.981
Fri Nov 22 20:53:20 2024,930,-11.590,11.590,-7.882,-7.882,-9.525,0.559,18.804,6.568,6.170,12.613,8.546,-4.067,8.029,5.025,7.672,11.029,3.966
Fri Nov 22 20:53:20 2024,935,-11.572,11.572,-7.874,-7.874,-9.524,0.564,18.798,6.560,6.180,12.622,8.563,-4.069,8.036,5.027,7.702,11.003,3.952
Fri Nov 22 20:53:20 2024,940,-11.553,11.553,-7.865,-7.865,-9.522,0.569,18.792,6.552,6.191,12.631,8.581,-4.071,8.043,5.029,7.731,10.977,3.938
Fri Nov 22 20:53:20 2024,945,-11.546,11.546,-7.887,-7.887,-9.525,0.559,18.799,6.520,6.196,12.668,8.608,-4.074,8.038,5.023,7.756,10.968,3.924
Fri Nov 22 20:53:20 2024,950,-11.513,11.513,-7.927,-7.927,-9.562,0.552,18.770,6.465,6.207,12.696,8.631,-4.078,7.999,5.013,7.857,10.899,3.918
Fri Nov 22 20:53:20 2024,955,-11.480,11.480,-7.953,-7.953,-9.597,0.551,18.737,6.427,6.218,12.705,8.642,-4.079,7.965,5.007,7.948,10.830,3.915
Fri Nov 22 20:53:20 2024,960,-11.439,11.439,-7.979,-7.979,-9.633,0.552,18.716,6.380,6.220,12.716,8.640,-4.094,7.923,4.988,8.026,10.767,3.897
Fri Nov 22 20:53:20 2024,965,-11.385,11.385,-7.991,-7.991,-9.658,0.549,18.765,6.319,6.191,12.734,8.588,-4.153,7.870,4.928,8.003,10.762,3.828
Fri Nov 22 20:53:20 2024,970,-11.339,11.339,-8.001,-8.001,-9.678,0.548,18.806,6.268,6.166,12.748,8.544,-4.204,7.825,4.876,7.983,10.758,3.770
Fri Nov 22 20:53:20 2024,975,-11.287,11.287,-7.976,-7.976,-9.637,0.560,18.729,6.254,6.190,12.705,8.558,-4.216,7.720,4.857,8.015,10.694,3.766
Fri Nov 22 20:53:20 2024,980,-11.241,11.241,-7.946,-7.946,-9.586,0.574,18.632,6.251,6.224,12.654,8.586,-4.216,7.615,4.848,8.056,10.624,3.778
Fri Nov 22 20:53:20 2024,985,-11.248,11.248,-7.950,-7.950,-9.580,0.603,18.587,6.247,6.266,12.614,8.599,-4.218,7.542,4.839,8.072,10.582,3.776
Fri Nov 22 20:53:20 2024,990,-11.320,11.320,-7.999,-7.999,-9.634,0.642,18.621,6.244,6.302,12.601,8.591,-4.224,7.532,4.830,8.053,10.591,3.758
Fri Nov 22 20:53:20 2024,995,-11.395,11.395,-8.050,-8.050,-9.690,0.681,18.653,6.242,6.341,12.587,8.583,-4.230,7.523,4.820,8.033,10.600,3.739
Fri Nov 22 20:53:21 2024,0,-11.312,11.312,-8.048,-8.048,-9.704,0.667,18.654,6.200,6.334,12.591,8.534,-4.265,7.459,4.768,8.036,10.614,3.745
Fri Nov 22 20:53:21 2024,5,-11.218,11.218,-8.039,-8.039,-9.710,0.647,18.650,6.158,6.321,12.597,8.485,-4.300,7.395,4.716,8.041,10.627,3.753
Fri Nov 22 20:53:21 2024,10,-11.171,11.171,-8.031,-8.031,-9.698,0.658,18.645,6.131,6.322,12.591,8.459,-4.313,7.368,4.697,8.024,10.635,3.740
Fri Nov 22 20:53:21 2024,15,-11.171,11.171,-8.025,-8.025,-9.672,0.692,18.639,6.120,6.335,12.576,8.455,-4.305,7.374,4.705,7.991,10.638,3.711
Fri Nov 22 20:53:21 2024,20,-11.170,11.170,-8.018,-8.018,-9.647,0.725,18.633,6.109,6.347,12.561,8.452,-4.297,7.380,4.713,7.961,10.640,3.683
Fri Nov 22 20:53:21 2024,25,-11.213,11.213,-8.020,-8.020,-9.665,0.697,18.692,6.124,6.325,12.554,8.412,-4.298,7.418,4.730,7.969,10.647,3.711
Fri Nov 22 20:53:21 2024,30,-11.246,11.246,-8.022,-8.022,-9.682,0.671,18.738,6.137,6.307,12.550,8.383,-4.299,7.446,4.742,7.980,10.652,3.736
Fri Nov 22 20:53:21 2024,35,-11.294,11.294,-8.033,-8.033,-9.709,0.661,18.777,6.142,6.309,12.546,8.369,-4.287,7.461,4.748,8.007,10.641,3.745
Fri Nov 22 20:53:21 2024,40,-11.344,11.344,-8.050,-8.050,-9.737,0.673,18.795,6.137,6.335,12.543,8.380,-4.263,7.456,4.745,8.046,10.612,3.731
Fri Nov 22 20:53:21 2024,45,-11.388,11.388,-8.065,-8.065,-9.762,0.683,18.810,6.133,6.358,12.540,8.389,-4.242,7.451,4.743,8.080,10.588,3.719
Fri Nov 22 20:53:21 2024,50,-11.435,11.435,-8.068,-8.068,-9.796,0.667,18.949,6.157,6.394,12.594,8.470,-4.174,7.605,4.831,8.160,10.563,3.763
Fri Nov 22 20:53:21 2024,55,-11.476,11.476,-8.071,-8.071,-9.825,0.653,19.057,6.176,6.425,12.636,8.537,-4.118,7.729,4.902,8.227,10.540,3.799
Fri Nov 22 20:53:21 2024,60,-11.473,11.473,-8.094,-8.094,-9.846,0.653,19.069,6.145,6.439,12.621,8.507,-4.116,7.717,4.877,8.234,10.524,3.783
Fri Nov 22 20:53:21 2024,65,-11.441,11.441,-8.136,-8.136,-9.870,0.659,19.024,6.073,6.447,12.566,8.406,-4.148,7.613,4.781,8.204,10.507,3.729
Fri Nov 22 20:53:21 2024,70,-11.428,11.428,-8.170,-8.170,-9.889,0.673,18.977,6.021,6.460,12.519,8.337,-4.188,7.502,4.703,8.179,10.487,3.690
Fri Nov 22 20:53:21 2024,75,-11.472,11.472,-8.177,-8.177,-9.894,0.706,18.939,6.037,6.489,12.503,8.373,-4.243,7.388,4.688,8.175,10.461,3.696
Fri Nov 22 20:53:21 2024,80,-11.509,11.509,-8.182,-8.182,-9.897,0.736,18.906,6.051,6.513,12.489,8.404,-4.290,7.291,4.674,8.172,10.439,3.702
Fri Nov 22 20:53:21 2024,85,-11.505,11.505,-8.192,-8.192,-9.902,0.697,18.939,6.045,6.483,12.520,8.414,-4.318,7.272,4.688,8.152,10.463,3.733
Fri Nov 22 20:53:21 2024,90,-11.481,11.481,-8.201,-8.201,-9.907,0.636,18.995,6.031,6.435,12.564,8.409,-4.324,7.302,4.711,8.130,10.502,3.766
Fri Nov 22 20:53:21 2024,95,-11.461,11.461,-8.214,-8.214,-9.908,0.599,19.023,6.023,6.405,12.585,8.410,-4.333,7.304,4.729,8.108,10.526,3.788
Fri Nov 22 20:53:21 2024,100,-11.455,11.455,-8.234,-8.234,-9.903,0.627,18.982,6.034,6.425,12.546,8.423,-4.343,7.242,4.730,8.088,10.509,3.777
Fri Nov 22 20:53:21 2024,105,-11.450,11.450,-8.253,-8.253,-9.898,0.656,18.941,6.044,6.444,12.506,8.437,-4.353,7.180,4.731,8.068,10.492,3.765
Fri Nov 22 20:53:21 2024,110,-11.445,11.445,-8.292,-8.292,-9.918,0.651,18.935,6.055,6.434,12.500,8.426,-4.366,7.183,4.752,8.074,10.506,3.815
Fri Nov 22 20:53:21 2024,115,-11.443,11.443,-8.326,-8.326,-9.939,0.638,18.938,6.064,6.419,12.503,8.410,-4.376,7.204,4.773,8.085,10.525,3.870
Fri Nov 22 20:53:21 2024,120,-11.479,11.479,-8.343,-8.343,-9.962,0.646,18.938,6.076,6.418,12.481,8.386,-4.389,7.188,4.767,8.086,10.505,3.861
Fri Nov 22 20:53:21 2024,125,-11.572,11.572,-8.322,-8.322,-9.980,0.692,18.928,6.091,6.444,12.421,8.356,-4.400,7.108,4.712,8.065,10.417,3.732
Fri Nov 22 20:53:21 2024,130,-11.675,11.675,-8.298,-8.298,-9.998,0.743,18.913,6.107,6.472,12.353,8.322,-4.414,7.019,4.652,8.041,10.316,3.590
Fri Nov 22 20:53:21 2024,135,-11.631,11.631,-8.275,-8.275,-9.980,0.701,18.930,6.109,6.424,12.387,8.298,-4.430,7.069,4.666,8.013,10.392,3.645
Fri Nov 22 20:53:21 2024,140,-11.570,11.570,-8.250,-8.250,-9.956,0.646,18.951,6.109,6.365,12.433,8.274,-4.449,7.138,4.689,7.983,10.492,3.724
Fri Nov 22 20:53:21 2024,145,-11.520,11.520,-8.238,-8.238,-9.950,0.601,18.927,6.091,6.329,12.441,8.231,-4.443,7.155,4.689,7.957,10.535,3.754
Fri Nov 22 20:53:21 2024,150,-11.504,11.504,-8.247,-8.247,-9.970,0.585,18.860,6.057,6.337,12.400,8.183,-4.411,7.103,4.661,7.946,10.489,3.709
Fri Nov 22 20:53:21 2024,155,-11.489,11.489,-8.256,-8.256,-9.988,0.571,18.793,6.025,6.345,12.361,8.138,-4.380,7.054,4.635,7.936,10.446,3.667
Fri Nov 22 20:53:21 2024,160,-11.544,11.544,-8.290,-8.290,-9.978,0.562,18.845,6.102,6.326,12.378,8.170,-4.376,7.079,4.668,7.950,10.466,3.706
Fri Nov 22 20:53:21 2024,165,-11.603,11.603,-8.324,-8.324,-9.966,0.552,18.905,6.186,6.305,12.400,8.208,-4.375,7.110,4.705,7.966,10.491,3.752
Fri Nov 22 20:53:21 2024,170,-11.612,11.612,-8.340,-8.340,-9.960,0.542,18.909,6.240,6.306,12.407,8.252,-4.370,7.110,4.740,7.976,10.476,3.782
Fri Nov 22 20:53:21 2024,175,-11.556,11.556,-8.330,-8.330,-9.962,0.534,18.839,6.250,6.336,12.395,8.300,-4.362,7.071,4.767,7.978,10.412,3.787
Fri Nov 22 20:53:21 2024,180,-11.499,11.499,-8.320,-8.320,-9.966,0.524,18.764,6.261,6.368,12.382,8.351,-4.353,7.030,4.795,7.979,10.343,3.793
Fri Nov 22 20:53:21 2024,185,-11.648,11.648,-8.313,-8.313,-10.012,0.571,18.899,6.278,6.385,12.377,8.341,-4.320,7.038,4.768,8.068,10.235,3.721
Fri Nov 22 20:53:21 2024,190,-11.772,11.772,-8.306,-8.306,-10.050,0.610,18.997,6.292,6.401,12.372,8.334,-4.293,7.043,4.745,8.143,10.142,3.661
Fri Nov 22 20:53:21 2024,195,-11.832,11.832,-8.332,-8.332,-10.082,0.621,18.978,6.294,6.413,12.360,8.330,-4.298,7.031,4.751,8.145,10.113,3.649
Fri Nov 22 20:53:21 2024,200,-11.837,11.837,-8.373,-8.373,-10.100,0.612,18.895,6.288,6.420,12.347,8.328,-4.322,7.013,4.773,8.101,10.131,3.672
Fri Nov 22 20:53:21 2024,205,-11.842,11.842,-8.414,-8.414,-10.119,0.602,18.804,6.281,6.427,12.333,8.327,-4.348,6.994,4.795,8.056,10.149,3.696
Fri Nov 22 20:53:21 2024,210,-11.857,11.857,-8.386,-8.386,-10.108,0.611,18.833,6.288,6.400,12.362,8.317,-4.347,7.106,4.802,7.979,10.187,3.646
Fri Nov 22 20:53:21 2024,215,-11.869,11.869,-8.363,-8.363,-10.099,0.619,18.856,6.294,6.378,12.385,8.309,-4.346,7.197,4.807,7.917,10.217,3.606
Fri Nov 22 20:53:21 2024,220,-11.913,11.913,-8.332,-8.332,-10.081,0.610,18.884,6.336,6.352,12.414,8.321,-4.327,7.285,4.825,7.880,10.231,3.585
Fri Nov 22 20:53:21 2024,225,-11.959,11.959,-8.310,-8.310,-10.064,0.596,18.904,6.382,6.335,12.434,8.340,-4.306,7.336,4.844,7.873,10.231,3.584
Fri Nov 22 20:53:21 2024,230,-12.000,12.000,-8.290,-8.290,-10.049,0.583,18.923,6.424,6.320,12.453,8.357,-4.286,7.381,4.860,7.867,10.231,3.583
Fri Nov 22 20:53:21 2024,235,-11.923,11.923,-8.326,-8.326,-10.094,0.604,18.918,6.435,6.305,12.441,8.373,-4.262,7.442,4.923,7.870,10.235,3.608
Fri Nov 22 20:53:21 2024,240,-11.867,11.867,-8.353,-8.353,-10.126,0.618,18.914,6.446,6.292,12.433,8.388,-4.242,7.491,4.972,7.873,10.238,3.627
Fri Nov 22 20:53:21 2024,245,-11.837,11.837,-8.354,-8.354,-10.137,0.598,18.950,6.434,6.256,12.465,8.378,-4.253,7.501,4.953,7.855,10.225,3.584
Fri Nov 22 20:53:21 2024,250,-11.820,11.820,-8.347,-8.347,-10.138,0.568,18.993,6.417,6.216,12.507,8.361,-4.274,7.496,4.912,7.833,10.207,3.525
Fri Nov 22 20:53:21 2024,255,-11.816,11.816,-8.345,-8.345,-10.144,0.552,19.037,6.406,6.186,12.534,8.338,-4.286,7.490,4.873,7.806,10.192,3.469
Fri Nov 22 20:53:21 2024,260,-11.874,11.874,-8.369,-8.369,-10.169,0.616,19.057,6.427,6.214,12.471,8.289,-4.250,7.486,4.856,7.771,10.199,3.448
Fri Nov 22 20:53:21 2024,265,-11.924,11.924,-8.390,-8.390,-10.191,0.669,19.068,6.445,6.236,12.419,8.246,-4.221,7.482,4.841,7.740,10.204,3.428
Fri Nov 22 20:53:21 2024,270,-11.952,11.952,-8.382,-8.382,-10.193,0.631,19.058,6.473,6.228,12.447,8.291,-4.222,7.526,4.887,7.743,10.211,3.468
Fri Nov 22 20:53:21 2024,275,-11.975,11.975,-8.369,-8.369,-10.192,0.576,19.038,6.502,6.215,12.490,8.352,-4.230,7.577,4.942,7.752,10.218,3.518
Fri Nov 22 20:53:21 2024,280,-12.050,12.050,-8.325,-8.325,-10.170,0.543,19.030,6.529,6.208,12.516,8.376,-4.238,7.614,4.965,7.772,10.204,3.537
Fri Nov 22 20:53:21 2024,285,-12.226,12.226,-8.221,-8.221,-10.111,0.555,19.062,6.554,6.217,12.506,8.326,-4.245,7.620,4.919,7.813,10.146,3.493
Fri Nov 22 20:53:21 2024,290,-12.367,12.367,-8.137,-8.137,-10.064,0.565,19.086,6.574,6.223,12.498,8.286,-4.251,7.624,4.882,7.846,10.100,3.458
Fri Nov 22 20:53:21 2024,295,-12.469,12.469,-8.076,-8.076,-10.022,0.524,19.145,6.520,6.227,12.556,8.300,-4.233,7.693,4.889,7.867,10.118,3.468
Fri Nov 22 20:53:21 2024,300,-12.534,12.534,-8.037,-8.037,-9.992,0.480,19.196,6.464,6.229,12.611,8.323,-4.214,7.758,4.905,7.881,10.147,3.487
Fri Nov 22 20:53:21 2024,305,-12.593,12.593,-8.002,-8.002,-9.966,0.441,19.241,6.413,6.231,12.661,8.344,-4.198,7.817,4.919,7.893,10.172,3.504
Fri Nov 22 20:53:21 2024,310,-12.639,12.639,-7.976,-7.976,-9.946,0.412,19.275,6.375,6.232,12.697,8.360,-4.185,7.861,4.930,7.902,10.191,3.517
Fri Nov 22 20:53:21 2024,315,-12.663,12.663,-7.962,-7.962,-9.936,0.397,19.293,6.355,6.233,12.716,8.369,-4.179,7.883,4.935,7.906,10.200,3.524
Fri Nov 22 20:53:21 2024,320,-12.886,12.886,-7.646,-7.646,-9.804,0.396,19.348,6.386,6.306,12.651,8.302,-4.052,7.760,4.772,8.462,9.716,3.365
Fri Nov 22 20:53:21 2024,325,-12.971,12.971,-7.547,-7.547,-9.758,0.381,19.379,6.376,6.327,12.651,8.292,-4.011,7.748,4.733,8.620,9.590,3.329
Fri Nov 22 20:53:21 2024,330,-13.057,13.057,-7.445,-7.445,-9.711,0.366,19.412,6.365,6.349,12.650,8.282,-3.970,7.735,4.694,8.780,9.461,3.292
Fri Nov 22 20:53:21 2024,335,-13.302,13.302,-7.388,-7.388,-9.666,0.209,19.541,6.320,6.361,12.706,8.350,-3.748,7.755,4.630,9.125,9.208,3.209
Fri Nov 22 20:53:21 2024,340,-13.479,13.479,-7.328,-7.328,-9.627,0.107,19.616,6.289,6.374,12.740,8.392,-3.596,7.761,4.580,9.383,9.012,3.149
Fri Nov 22 20:53:21 2024,345,-13.688,13.688,-7.280,-7.280,-9.535,-0.145,19.599,6.422,6.309,12.785,8.476,-3.383,7.894,4.691,9.810,8.714,3.187
Fri Nov 22 20:53:21 2024,350,-13.907,13.907,-7.230,-7.230,-9.439,-0.412,19.440,6.564,6.240,12.832,8.564,-3.159,8.033,4.809,10.256,8.394,3.227
Fri Nov 22 20:53:21 2024,355,-14.059,14.059,-7.195,-7.195,-9.373,-0.596,19.291,6.662,6.192,12.864,8.625,-3.004,8.127,4.891,10.564,8.168,3.254
Fri Nov 22 20:53:21 2024,360,-14.273,14.273,-7.220,-7.220,-9.350,-0.813,19.065,6.600,6.300,12.805,8.739,-2.763,8.071,4.925,11.391,7.528,3.330
Fri Nov 22 20:53:21 2024,365,-14.462,14.462,-7.225,-7.225,-9.313,-1.014,18.864,6.594,6.352,12.777,8.832,-2.556,8.062,4.974,12.022,7.026,3.388
Fri Nov 22 20:53:21 2024,370,-14.835,14.835,-7.338,-7.338,-9.308,-1.199,18.702,6.758,6.281,12.863,9.055,-2.394,8.180,5.180,12.748,6.490,3.585
Fri Nov 22 20:53:21 2024,375,-15.129,15.129,-7.423,-7.423,-9.302,-1.355,18.559,6.877,6.233,12.924,9.227,-2.256,8.265,5.336,13.337,6.031,3.735
Fri Nov 22 20:53:21 2024,380,-15.391,15.391,-7.498,-7.498,-9.296,-1.492,18.430,6.982,6.191,12.978,9.379,-2.133,8.339,5.474,13.856,5.614,3.868
Fri Nov 22 20:53:21 2024,385,-15.755,15.755,-7.575,-7.575,-9.273,-1.723,18.149,7.009,6.046,13.063,9.489,-1.940,8.508,5.579,14.431,5.115,3.928
Fri Nov 22 20:53:21 2024,390,-16.028,16.028,-7.620,-7.620,-9.247,-1.870,17.970,7.036,5.961,13.114,9.569,-1.812,8.607,5.659,14.837,4.770,4.004
Fri Nov 22 20:53:21 2024,395,-16.372,16.372,-7.588,-7.588,-9.156,-1.968,17.793,6.982,5.876,13.128,9.558,-1.699,8.672,5.683,15.095,4.574,4.115
Fri Nov 22 20:53:21 2024,400,-16.726,16.726,-7.557,-7.557,-9.065,-2.067,17.605,6.927,5.791,13.138,9.549,-1.586,8.737,5.708,15.356,4.371,4.227
Fri Nov 22 20:53:21 2024,405,-17.198,17.198,-7.329,-7.329,-8.885,-2.211,17.491,6.930,5.730,13.183,9.517,-1.480,8.954,5.757,15.581,4.201,4.318
Fri Nov 22 20:53:21 2024,410,-17.561,17.561,-7.117,-7.117,-8.736,-2.323,17.430,6.949,5.697,13.224,9.488,-1.409,9.147,5.799,15.724,4.093,4.373
Fri Nov 22 20:53:21 2024,415,-17.985,17.985,-6.876,-6.876,-8.562,-2.453,17.351,6.971,5.658,13.272,9.455,-1.329,9.369,5.846,15.889,3.965,4.438
Fri Nov 22 20:53:21 2024,420,-18.330,18.330,-6.506,-6.506,-8.258,-2.430,17.410,7.050,5.619,13.283,9.534,-1.328,9.533,5.971,15.975,3.939,4.674
Fri Nov 22 20:53:21 2024,425,-18.690,18.690,-6.178,-6.178,-7.984,-2.440,17.434,7.114,5.582,13.300,9.587,-1.312,9.702,6.074,16.071,3.882,4.870
Fri Nov 22 20:53:21 2024,430,-18.958,18.958,-5.813,-5.813,-7.737,-2.488,17.418,7.239,5.539,13.338,9.625,-1.476,9.885,6.141,16.074,3.890,4.937
Fri Nov 22 20:53:21 2024,435,-19.158,19.158,-5.517,-5.517,-7.541,-2.532,17.396,7.347,5.504,13.371,9.654,-1.634,10.027,6.187,16.062,3.907,4.970
Fri Nov 22 20:53:21 2024,440,-19.503,19.503,-5.145,-5.145,-7.303,-2.604,22.657,7.509,5.460,13.453,9.723,-1.778,10.249,6.249,16.090,3.885,4.987
Fri Nov 22 20:53:21 2024,445,-19.900,19.900,-4.839,-4.839,-7.119,-2.685,22.729,7.675,5.425,13.569,9.823,-1.825,10.493,6.307,16.167,3.810,4.969
Fri Nov 22 20:53:21 2024,450,-20.285,20.285,-4.544,-4.544,-6.938,-2.763,22.799,7.835,5.390,13.678,9.920,-1.870,10.726,6.362,16.242,3.738,4.952
Fri Nov 22 20:53:21 2024,455,-20.415,20.415,-4.147,-4.147,-6.681,-2.786,22.819,7.811,5.368,13.768,9.928,-1.900,10.795,6.337,16.258,3.727,4.976
Fri Nov 22 20:53:21 2024,460,-20.549,20.549,-3.729,-3.729,-6.405,-2.809,22.840,7.785,5.345,13.861,9.935,-1.932,10.865,6.311,16.273,3.715,5.002
Fri Nov 22 20:53:21 2024,465,-20.720,20.720,-3.399,-3.399,-6.171,-2.807,22.831,7.848,5.336,13.923,9.972,-1.956,10.979,6.334,16.288,3.704,5.048
Fri Nov 22 20:53:21 2024,470,-20.903,20.903,-3.157,-3.157,-5.988,-2.786,22.804,7.969,5.338,13.958,10.027,-1.970,11.116,6.392,16.300,3.694,5.106
Fri Nov 22 20:53:21 2024,475,-21.094,21.094,-2.908,-2.908,-5.795,-2.765,22.776,8.096,5.340,13.995,10.084,-1.987,11.259,6.453,16.313,3.683,5.166
Fri Nov 22 20:53:21 2024,480,-21.102,21.102,-2.549,-2.549,-5.511,-2.798,22.826,8.122,5.311,13.987,10.070,-2.048,11.237,6.444,16.264,3.731,5.220
Fri Nov 22 20:53:21 2024,485,-21.128,21.128,-2.247,-2.247,-5.268,-2.817,22.864,8.151,5.302,13.976,10.069,-2.092,11.221,6.444,16.234,3.761,5.273
Fri Nov 22 20:53:21 2024,490,-21.200,21.200,-1.880,-1.880,-4.967,-2.822,17.112,8.193,5.325,13.948,10.090,-2.130,11.197,6.456,16.224,3.772,5.351
Fri Nov 22 20:53:21 2024,495,-21.305,21.305,-1.590,-1.590,-4.720,-2.806,17.120,8.238,5.384,13.910,10.132,-2.141,11.174,6.482,16.244,3.752,5.431
Fri Nov 22 20:53:21 2024,500,-21.429,21.429,-1.265,-1.265,-4.428,-2.785,17.126,8.289,5.455,13.864,10.181,-2.153,11.147,6.513,16.270,3.728,5.526
Fri Nov 22 20:53:21 2024,505,-21.422,21.422,-0.754,0.754,-3.634,-2.846,17.048,8.346,5.402,13.956,10.202,-2.216,11.090,6.492,16.217,3.775,5.535
Fri Nov 22 20:53:21 2024,510,-21.426,21.426,-1.325,1.325,-2.944,-2.894,16.984,8.397,5.364,14.028,10.222,-2.268,11.042,6.476,16.175,3.811,5.549
Fri Nov 22 20:53:21 2024,515,-21.380,21.380,-2.522,2.522,-1.982,-2.967,16.867,8.486,5.319,14.037,10.237,-2.325,10.930,6.456,16.136,3.842,5.530
Fri Nov 22 20:53:21 2024,520,-21.299,21.299,3.950,3.950,-0.892,-3.054,16.711,8.600,5.274,13.994,10.247,-2.384,10.778,6.433,16.102,3.865,5.490
Fri Nov 22 20:53:21 2024,525,-21.233,21.233,5.150,5.150,0.477,-3.126,16.574,8.694,5.236,13.955,10.255,-2.433,10.651,6.415,16.074,3.882,5.456
Fri Nov 22 20:53:21 2024,530,-21.057,21.057,6.622,6.622,1.510,-3.221,16.389,8.774,5.101,13.915,10.145,-2.483,10.558,6.490,15.981,3.975,5.679
Fri Nov 22 20:53:21 2024,535,-20.908,20.908,7.953,7.953,2.636,-3.305,16.218,8.849,4.989,13.862,10.059,-2.530,10.467,6.548,15.903,4.051,5.854
Fri Nov 22 20:53:21 2024,540,-20.776,20.776,9.150,9.150,3.675,-3.381,16.060,8.917,4.889,13.804,9.982,-2.571,10.385,6.599,15.834,4.120,6.012
Fri Nov 22 20:53:21 2024,545,-20.561,20.561,10.539,10.539,4.819,-3.699,15.650,8.860,4.751,13.740,9.794,-2.664,10.183,6.515,15.675,4.275,6.043
Fri Nov 22 20:53:21 2024,550,-20.338,20.338,11.812,11.812,5.880,-3.914,15.349,8.845,4.642,13.680,9.682,-2.722,10.042,6.496,15.580,4.366,6.124
Fri Nov 22 20:53:21 2024,555,-19.949,19.949,13.159,13.159,6.911,-4.123,15.054,8.816,4.552,13.665,9.662,-2.738,9.932,6.519,15.572,4.365,6.229
Fri Nov 22 20:53:21 2024,560,-19.588,19.588,14.435,14.435,7.912,-4.321,14.774,8.790,4.467,13.644,9.639,-2.756,9.825,6.539,15.560,4.368,6.327
Fri Nov 22 20:53:21 2024,565,-19.273,19.273,15.549,15.549,8.798,-4.493,14.530,8.768,4.393,13.623,9.619,-2.771,9.732,6.557,15.551,4.370,6.412
Fri Nov 22 20:53:21 2024,570,-20.048,20.048,16.858,16.858,9.687,-4.429,14.802,8.925,4.752,13.334,9.649,-2.644,9.622,6.637,15.721,4.208,6.613
Fri Nov 22 20:53:21 2024,575,-20.281,20.281,17.769,17.769,10.377,-4.456,14.836,8.983,4.878,13.207,9.656,-2.596,9.547,6.675,15.790,4.141,6.724
Fri Nov 22 20:53:21 2024,580,-20.454,20.454,19.830,19.830,11.952,-4.665,14.370,9.026,4.760,12.994,9.732,-2.658,9.133,6.742,15.918,3.974,6.958
Fri Nov 22 20:53:21 2024,585,-20.612,20.612,21.338,21.338,13.138,-4.801,14.074,9.065,4.710,12.824,9.783,-2.687,8.856,6.792,16.015,3.849,7.128
Fri Nov 22 20:53:21 2024,590,-20.826,20.826,22.961,22.961,14.544,-4.889,13.831,9.254,4.696,12.610,9.931,-2.698,8.568,6.892,16.027,3.793,7.257
Fri Nov 22 20:53:21 2024,595,-21.146,21.146,24.969,24.969,16.425,-4.929,13.623,9.667,4.724,12.314,10.228,-2.690,8.222,7.070,15.931,3.814,7.352
Fri Nov 22 20:53:21 2024,600,-21.460,21.460,26.472,26.472,17.756,-4.911,13.288,9.920,4.703,11.939,10.422,-2.618,7.848,7.246,15.930,3.744,7.495
Fri Nov 22 20:53:21 2024,605,-21.683,21.683,26.996,26.996,18.196,-4.819,12.963,10.006,4.663,11.601,10.497,-2.500,7.577,7.379,15.979,3.655,7.612
Fri Nov 22 20:53:21 2024,610,-21.951,21.951,27.604,27.604,18.724,-4.713,12.572,10.101,4.623,11.213,10.583,-2.367,7.275,7.527,16.035,3.550,7.742
Fri Nov 22 20:53:21 2024,615,-22.292,22.292,28.321,28.321,19.276,-4.624,11.947,10.388,4.683,10.611,10.706,-2.252,6.888,7.870,16.050,3.390,7.963
Fri Nov 22 20:53:21 2024,620,-22.549,22.549,28.853,28.853,19.696,-4.565,11.463,10.608,4.736,10.164,10.797,-2.175,6.608,8.133,16.056,3.258,8.127
Fri Nov 22 20:53:21 2024,625,-23.343,23.343,29.560,29.560,20.070,-4.640,11.334,10.653,4.875,10.340,10.766,-2.010,6.780,8.258,16.162,3.088,7.967
Fri Nov 22 20:53:21 2024,630,-24.212,24.212,30.055,30.055,20.202,-4.790,11.606,10.518,5.034,10.961,10.636,-1.844,7.279,8.189,16.307,2.977,7.593
Fri Nov 22 20:53:21 2024,635,-25.181,25.181,30.618,30.618,20.378,-4.950,11.893,10.370,5.225,11.586,10.490,-1.652,7.827,8.115,16.470,2.849,7.182
Fri Nov 22 20:53:21 2024,640,-25.755,25.755,31.131,31.131,20.663,-4.971,12.063,10.108,5.406,11.742,10.277,-1.613,8.059,7.819,16.360,3.052,7.052
Fri Nov 22 20:53:21 2024,645,-26.443,26.443,31.714,31.714,20.979,-5.005,12.258,9.827,5.611,11.930,10.046,-1.553,8.346,7.507,16.267,3.238,6.883
Fri Nov 22 20:53:21 2024,650,-26.920,26.920,32.154,32.154,21.303,-5.029,12.160,9.535,5.724,11.965,9.897,-1.582,8.378,7.328,16.202,3.362,6.844
Fri Nov 22 20:53:21 2024,655,-27.301,27.301,32.541,32.541,21.659,-5.048,11.895,9.230,5.788,11.925,9.791,-1.661,8.267,7.219,16.148,3.456,6.871
Fri Nov 22 20:53:21 2024,660,-27.694,27.694,32.935,32.935,22.032,-5.067,11.632,8.930,5.852,11.886,9.686,-1.738,8.158,7.111,16.096,3.548,6.899
Fri Nov 22 20:53:21 2024,665,-28.112,28.112,32.933,32.933,22.254,-5.047,11.216,8.965,5.768,11.593,9.854,-1.768,7.805,7.352,16.039,3.562,7.091
Fri Nov 22 20:53:21 2024,670,-28.489,28.489,32.974,32.974,22.477,-5.032,10.857,8.968,5.706,11.346,9.976,-1.798,7.518,7.534,15.991,3.580,7.246
Fri Nov 22 20:53:21 2024,675,-29.004,29.004,32.973,32.973,22.596,-4.973,10.805,9.007,5.664,11.233,9.999,-1.751,7.499,7.655,15.939,3.574,7.260
Fri Nov 22 20:53:21 2024,680,-29.448,29.448,32.959,32.959,22.650,-4.912,10.886,9.051,5.639,11.201,9.978,-1.686,7.584,7.722,15.898,3.561,7.219
Fri Nov 22 20:53:21 2024,685,-29.929,29.929,32.950,32.950,22.717,-4.847,10.970,9.098,5.612,11.168,9.957,-1.617,7.675,7.793,15.853,3.546,7.177
Fri Nov 22 20:53:21 2024,690,-30.506,30.506,32.626,32.626,22.501,-4.775,11.278,8.999,5.630,11.287,9.868,-1.528,7.751,7.707,15.818,3.582,7.077
Fri Nov 22 20:53:21 2024,695,-31.004,31.004,32.396,32.396,22.358,-4.712,11.512,8.934,5.640,11.366,9.802,-1.453,7.819,7.657,15.785,3.605,7.000
Fri Nov 22 20:53:21 2024,700,-31.713,31.713,31.740,31.740,21.925,-4.619,11.777,8.963,5.649,11.387,9.777,-1.362,8.004,7.678,15.687,3.735,7.018
Fri Nov 22 20:53:21 2024,705,-32.434,32.434,31.012,31.012,21.434,-4.525,12.029,9.018,5.657,11.389,9.767,-1.274,8.207,7.719,15.578,3.883,7.062
Fri Nov 22 20:53:21 2024,710,-33.125,33.125,30.321,30.321,20.960,-4.435,12.267,9.070,5.665,11.390,9.757,-1.191,8.399,7.758,15.475,4.023,7.104
Fri Nov 22 20:53:21 2024,715,-33.134,33.134,29.842,29.842,20.694,-4.284,12.601,8.942,5.724,11.534,9.794,-1.039,8.504,7.715,15.388,4.175,7.163
Fri Nov 22 20:53:21 2024,720,-33.286,33.286,29.359,29.359,20.401,-4.161,12.888,8.860,5.767,11.637,9.818,-0.916,8.617,7.692,15.305,4.310,7.213
Fri Nov 22 20:53:21 2024,725,-33.317,33.317,28.722,28.722,20.006,-4.092,13.000,8.784,5.793,11.688,9.869,-0.869,8.593,7.663,15.237,4.426,7.235
Fri Nov 22 20:53:21 2024,730,-33.337,33.337,28.078,28.078,19.592,-4.033,13.085,8.711,5.816,11.731,9.922,-0.835,8.550,7.633,15.172,4.533,7.252
Fri Nov 22 20:53:21 2024,735,-33.361,33.361,27.555,27.555,19.245,-3.985,13.153,8.652,5.835,11.765,9.965,-0.807,8.515,7.609,15.120,4.618,7.266
Fri Nov 22 20:53:21 2024,740,-33.234,33.234,27.174,27.174,19.121,-3.733,13.458,8.602,5.844,11.827,10.048,-0.699,8.531,7.614,15.010,4.757,7.318
Fri Nov 22 20:53:21 2024,745,-33.180,33.180,26.851,26.851,18.976,-3.579,13.646,8.561,5.854,11.868,10.105,-0.634,8.533,7.613,14.936,4.852,7.350
Fri Nov 22 20:53:21 2024,750,-33.012,33.012,26.355,26.355,18.672,-3.443,13.888,8.520,5.914,11.891,10.140,-0.534,8.590,7.606,14.853,4.937,7.312
Fri Nov 22 20:53:21 2024,755,-32.866,32.866,25.895,25.895,18.381,-3.322,14.110,8.484,5.973,11.908,10.169,-0.452,8.643,7.599,14.778,5.011,7.273
Fri Nov 22 20:53:21 2024,760,-32.757,32.757,25.521,25.521,18.139,-3.225,14.288,8.454,6.020,11.921,10.193,-0.393,8.686,7.594,14.718,5.072,7.241
Fri Nov 22 20:53:21 2024,765,-32.886,32.886,24.763,24.763,17.513,-3.242,14.323,8.365,5.980,12.015,10.216,-0.377,8.782,7.594,14.764,5.065,7.239
Fri Nov 22 20:53:21 2024,770,-32.952,32.952,24.127,24.127,16.995,-3.224,14.400,8.296,5.966,12.083,10.239,-0.353,8.861,7.592,14.777,5.076,7.229
Fri Nov 22 20:53:21 2024,775,-32.918,32.918,23.732,23.732,16.751,-3.082,14.539,8.230,6.042,12.092,10.286,-0.333,8.795,7.527,14.812,5.055,7.207
Fri Nov 22 20:53:21 2024,780,-32.886,32.886,23.369,23.369,16.527,-2.945,14.668,8.169,6.115,12.096,10.332,-0.324,8.728,7.465,14.846,5.034,7.186
Fri Nov 22 20:53:21 2024,785,-32.864,32.864,23.065,23.065,16.335,-2.830,14.776,8.119,6.177,12.098,10.370,0.322,8.672,7.413,14.875,5.016,7.168
Fri Nov 22 20:53:21 2024,790,-32.750,32.750,22.854,22.854,16.100,-2.817,14.910,8.226,6.224,12.148,10.430,0.329,8.877,7.503,14.959,4.945,7.216
Fri Nov 22 20:53:21 2024,795,-32.695,32.695,22.672,22.672,15.935,-2.780,15.002,8.263,6.262,12.170,10.469,0.353,8.956,7.531,15.007,4.905,7.234
Fri Nov 22 20:53:21 2024,800,-32.530,32.530,22.536,22.536,15.892,-2.632,15.138,8.196,6.336,12.133,10.454,0.452,8.843,7.441,15.016,4.902,7.244
Fri Nov 22 20:53:21 2024,805,-32.379,32.379,22.407,22.407,15.849,-2.493,15.265,8.134,6.406,12.098,10.440,0.565,8.737,7.359,15.025,4.898,7.254
Fri Nov 22 20:53:21 2024,810,-32.296,32.296,22.247,22.247,15.678,-2.409,15.402,8.164,6.413,12.102,10.450,0.687,8.717,7.378,15.107,4.818,7.254
Fri Nov 22 20:53:21 2024,815,-32.233,32.233,22.073,22.073,15.463,-2.341,15.544,8.224,6.401,12.119,10.466,0.816,8.724,7.430,15.213,4.711,7.251
Fri Nov 22 20:53:21 2024,820,-32.171,32.171,21.915,21.915,15.283,-2.263,15.674,8.289,6.395,12.131,10.497,0.944,8.722,7.484,15.311,4.610,7.249
Fri Nov 22 20:53:21 2024,825,-32.148,32.148,21.946,21.946,15.425,-2.182,15.646,8.347,6.433,12.112,10.593,0.960,8.684,7.517,15.303,4.609,7.265
Fri Nov 22 20:53:21 2024,830,-32.130,32.130,21.968,21.968,15.537,-2.116,15.624,8.396,6.464,12.096,10.671,0.975,8.652,7.544,15.298,4.605,7.278
Fri Nov 22 20:53:21 2024,835,-32.113,32.113,21.989,21.989,15.640,-2.054,15.602,8.440,6.493,12.081,10.744,0.990,8.623,7.569,15.294,4.601,7.289
Fri Nov 22 20:53:21 2024,840,-32.283,32.283,22.391,22.391,15.934,-1.805,15.796,8.714,6.584,11.849,10.762,1.112,8.457,7.652,15.442,4.434,7.258
Fri Nov 22 20:53:21 2024,845,-32.361,32.361,22.588,22.588,16.105,-1.668,15.875,8.857,6.635,11.733,10.794,1.174,8.369,7.699,15.510,4.353,7.246
Fri Nov 22 20:53:21 2024,850,-32.255,32.255,22.976,22.976,16.362,-1.675,16.001,8.944,6.597,11.801,10.819,1.163,8.261,7.689,15.670,4.187,7.263
Fri Nov 22 20:53:21 2024,855,-32.186,32.186,23.314,23.314,16.589,-1.660,16.112,9.034,6.576,11.837,10.844,1.164,8.162,7.688,15.808,4.042,7.274
Fri Nov 22 20:53:21 2024,860,-32.133,32.133,23.582,23.582,16.767,-1.647,16.200,9.106,6.559,11.865,10.865,1.164,8.083,7.688,15.916,3.927,7.283
Fri Nov 22 20:53:21 2024,865,-32.375,32.375,24.301,24.301,17.257,-1.527,16.225,9.341,6.659,11.706,10.896,1.102,7.949,7.682,16.191,3.590,7.145
Fri Nov 22 20:53:21 2024,870,-32.487,32.487,24.776,24.776,17.603,-1.480,16.225,9.464,6.680,11.642,10.898,1.051,7.819,7.654,16.338,3.406,7.084
Fri Nov 22 20:53:21 2024,875,-32.639,32.639,25.502,25.502,18.192,-1.463,16.108,9.584,6.650,11.559,10.847,0.925,7.541,7.545,16.473,3.224,7.009
Fri Nov 22 20:53:21 2024,880,-32.828,32.828,26.271,26.271,18.793,-1.444,15.986,9.715,6.620,11.468,10.794,0.797,7.247,7.432,16.618,3.021,6.927
Fri Nov 22 20:53:21 2024,885,-33.018,33.018,26.966,26.966,19.232,-1.382,15.982,9.952,6.610,11.354,10.777,0.736,7.024,7.416,16.827,2.751,6.921
Fri Nov 22 20:53:21 2024,890,-33.252,33.252,27.773,27.773,19.712,-1.300,16.001,10.256,6.604,11.215,10.764,0.678,6.773,7.417,17.086,2.415,6.928
Fri Nov 22 20:53:21 2024,895,-33.386,33.386,28.608,28.608,20.246,-1.257,15.901,10.425,6.585,11.096,10.721,0.589,6.514,7.365,17.243,2.162,6.904
Fri Nov 22 20:53:21 2024,900,-33.420,33.420,29.754,29.754,21.012,-1.244,15.636,10.494,6.550,10.963,10.630,0.494,6.164,7.241,17.334,1.911,6.842
Fri Nov 22 20:53:21 2024,905,-33.493,33.493,30.773,30.773,21.660,-1.234,15.396,10.556,6.518,10.840,10.549,-0.512,5.848,7.132,17.416,1.673,6.788
Fri Nov 22 20:53:21 2024,910,-33.560,33.560,31.408,31.408,22.048,-1.228,15.245,10.595,6.498,10.762,10.499,-0.572,5.649,7.065,17.467,1.518,6.754
Fri Nov 22 20:53:21 2024,915,-33.173,33.173,33.198,33.198,23.225,-1.378,15.041,11.216,6.349,10.559,10.568,-0.929,5.290,7.274,17.877,1.014,7.215
Fri Nov 22 20:53:21 2024,920,-33.110,33.110,34.124,34.124,23.788,-1.433,14.903,11.466,6.284,10.445,10.574,-1.149,5.070,7.327,18.052,0.758,7.375
Fri Nov 22 20:53:21 2024,925,-32.221,32.221,35.685,35.685,24.676,-1.625,14.435,11.421,6.175,10.365,10.676,-1.314,4.959,7.505,18.278,0.480,7.671
Fri Nov 22 20:53:21 2024,930,-31.679,31.679,37.084,37.084,25.459,-1.772,14.067,11.476,6.080,10.263,10.749,-1.509,4.803,7.646,18.498,0.198,7.931
Fri Nov 22 20:53:21 2024,935,-31.193,31.193,37.379,37.379,25.326,-1.852,14.178,11.587,6.108,10.394,10.789,-1.725,4.919,7.669,18.637,0.000,7.832
Fri Nov 22 20:53:21 2024,940,-30.812,30.812,37.671,37.671,25.249,-1.922,14.256,11.679,6.128,10.497,10.824,-1.913,5.007,7.693,18.758,-0.172,7.758
Fri Nov 22 20:53:21 2024,945,-30.514,30.514,37.922,37.922,25.189,-1.982,14.320,11.758,6.145,10.584,10.853,-2.074,5.080,7.712,18.860,-0.318,7.695
Fri Nov 22 20:53:21 2024,950,-30.396,30.396,37.594,37.594,24.770,-1.931,15.258,11.879,6.507,11.332,11.040,-1.789,5.781,7.586,19.069,-0.388,7.600
Fri Nov 22 20:53:21 2024,955,-30.299,30.299,37.470,37.470,24.475,-1.915,15.868,11.982,6.756,11.728,11.167,-1.658,6.259,7.512,19.242,-0.492,7.514
Fri Nov 22 20:53:21 2024,960,-29.889,29.889,37.113,37.113,24.138,-2.039,16.004,12.111,6.573,11.964,11.016,-1.799,6.257,7.229,19.120,-0.524,7.163
Fri Nov 22 20:53:21 2024,965,-29.644,29.644,36.813,36.813,23.839,-2.131,16.169,12.225,6.463,12.184,10.913,-1.894,6.310,7.003,19.042,-0.565,6.881
Fri Nov 22 20:53:21 2024,970,-29.503,29.503,36.578,36.578,23.609,-2.201,16.290,12.314,6.379,12.353,10.833,-1.968,6.351,6.828,18.980,-0.597,6.662
Fri Nov 22 20:53:21 2024,975,-29.043,29.043,36.030,36.030,23.249,-2.374,15.797,12.078,6.337,12.136,10.821,-2.300,5.762,6.741,18.511,-0.455,6.543
Fri Nov 22 20:53:21 2024,980,-28.686,28.686,35.848,35.848,23.166,-2.493,15.524,12.003,6.278,12.028,10.793,-2.511,5.386,6.629,18.244,-0.453,6.406
Fri Nov 22 20:53:21 2024,985,-28.117,28.117,36.727,36.727,23.939,-2.499,15.243,12.087,6.251,11.778,10.830,-2.548,5.003,6.617,18.275,-0.665,6.436
Fri Nov 22 20:53:21 2024,990,-27.591,27.591,37.557,37.557,24.624,-2.508,14.957,12.167,6.223,11.517,10.865,-2.589,4.622,6.603,18.298,-0.877,6.461
Fri Nov 22 20:53:21 2024,995,-27.034,27.034,37.214,37.214,24.367,-2.448,14.976,12.332,6.185,11.460,10.911,-2.571,4.664,6.707,18.464,-1.083,6.558
Fri Nov 22 20:53:22 2024,0,-26.514,26.514,36.478,36.478,23.822,-2.364,15.111,12.522,6.146,11.485,10.959,-2.532,4.864,6.851,18.677,-1.278,6.679
Fri Nov 22 20:53:22 2024,5,-26.071,26.071,35.841,35.841,23.370,-2.288,15.235,12.697,6.109,11.508,11.003,-2.497,5.047,6.983,18.873,-1.457,6.792
Fri Nov 22 20:53:22 2024,10,-25.137,25.137,33.921,33.921,22.195,-2.004,15.379,12.864,5.963,11.398,11.013,-2.668,5.072,7.092,18.614,-1.260,6.943
Fri Nov 22 20:53:22 2024,15,-24.550,24.550,32.690,32.690,21.440,-1.820,15.476,12.988,5.868,11.326,11.025,-2.771,5.107,7.175,18.476,-1.160,7.050
Fri Nov 22 20:53:22 2024,20,-24.207,24.207,30.811,30.811,20.116,-1.758,15.931,13.179,5.725,11.553,11.009,-2.858,5.384,7.260,18.347,-1.029,7.110
Fri Nov 22 20:53:22 2024,25,-24.086,24.086,29.509,29.509,19.182,-1.747,16.297,13.315,5.624,11.766,10.991,-2.909,5.616,7.314,18.268,-0.940,7.136
Fri Nov 22 20:53:22 2024,30,-23.997,23.997,28.128,28.128,18.214,-1.733,16.686,13.464,5.515,11.998,10.972,-2.963,5.868,7.374,18.182,-0.843,7.165
Fri Nov 22 20:53:22 2024,35,-24.278,24.278,26.075,26.075,16.540,-1.711,16.944,13.405,5.435,12.237,10.963,-3.132,5.769,7.163,18.046,-0.823,6.890
Fri Nov 22 20:53:22 2024,40,-24.442,-24.442,24.630,24.630,15.421,-1.693,17.167,13.401,5.369,12.423,10.955,-3.243,5.758,7.050,17.948,-0.793,6.733
Fri Nov 22 20:53:22 2024,45,-24.288,-24.288,22.927,22.927,14.194,-1.689,17.231,13.082,5.325,12.536,10.879,-3.288,5.855,6.996,17.819,-0.613,6.689
Fri Nov 22 20:53:22 2024,50,-24.144,-24.144,21.307,21.307,13.048,-1.688,17.271,12.740,5.285,12.635,10.798,-3.322,5.959,6.953,17.692,-0.423,6.664
Fri Nov 22 20:53:22 2024,55,-24.054,-24.054,19.942,19.942,12.109,-1.688,17.305,12.444,5.250,12.720,10.728,-3.353,6.048,6.917,17.582,-0.259,6.642
Fri Nov 22 20:53:22 2024,60,-24.111,-24.111,17.345,17.345,9.898,-1.730,17.464,12.049,5.339,12.847,10.688,-3.423,6.122,6.707,17.520,-0.081,6.410
Fri Nov 22 20:53:22 2024,65,-24.130,-24.130,15.404,15.404,8.359,-1.756,17.564,11.723,5.385,12.944,10.645,-3.475,6.191,6.567,17.452,0.073,6.263
Fri Nov 22 20:53:22 2024,70,-24.050,-24.050,13.383,13.383,6.697,-1.863,17.666,11.393,5.347,13.194,10.610,-3.475,6.498,6.473,17.410,0.274,6.120
Fri Nov 22 20:53:22 2024,75,-23.974,-23.974,11.547,11.547,5.219,-1.968,17.726,11.089,5.305,13.428,10.579,-3.472,6.796,6.389,17.373,0.457,5.992
Fri Nov 22 20:53:22 2024,80,-23.915,-23.915,10.072,10.072,4.076,-2.054,17.748,10.842,5.270,13.612,10.554,-3.470,7.038,6.322,17.344,0.604,5.890
Fri Nov 22 20:53:22 2024,85,-23.550,-23.550,7.630,7.630,2.246,-1.770,18.082,10.527,5.424,13.538,10.578,-3.378,6.951,6.090,17.412,0.571,5.584
Fri Nov 22 20:53:22 2024,90,-23.353,-23.353,6.024,6.024,1.181,-1.649,18.249,10.301,5.493,13.545,10.584,-3.332,6.972,5.955,17.439,0.592,5.410
Fri Nov 22 20:53:22 2024,95,-23.070,-23.070,4.106,4.106,-0.864,-1.714,18.210,10.109,5.433,13.590,10.697,-3.360,6.921,5.961,17.458,0.629,5.372
Fri Nov 22 20:53:22 2024,100,-22.816,-22.816,2.332,2.332,-1.919,-1.760,18.186,9.926,5.387,13.628,10.795,-3.381,6.879,5.955,17.478,0.662,5.327
Fri Nov 22 20:53:22 2024,105,-22.616,-22.616,0.957,0.957,-2.872,-1.778,18.170,9.782,5.334,13.668,10.870,-3.402,6.810,5.958,17.508,0.642,5.280
Fri Nov 22 20:53:22 2024,110,-22.432,-22.432,-0.329,-0.329,-3.778,-1.764,18.165,9.653,5.259,13.719,10.933,-3.430,6.686,5.975,17.564,0.543,5.219
Fri Nov 22 20:53:22 2024,115,-22.245,-22.245,-1.616,-1.616,-4.695,-1.766,18.154,9.533,5.177,13.766,11.004,-3.462,6.576,5.994,17.606,0.473,5.163
Fri Nov 22 20:53:22 2024,120,-22.126,-22.126,-2.484,-2.484,-5.303,-1.802,18.148,9.538,5.068,13.783,11.056,-3.515,6.500,6.036,17.596,0.460,5.135
Fri Nov 22 20:53:22 2024,125,-22.031,-22.031,-3.242,-3.242,-5.822,-1.832,21.864,9.538,4.976,13.795,11.101,-3.559,6.434,6.071,17.590,0.447,5.111
Fri Nov 22 20:53:22 2024,130,-21.953,-21.953,-3.899,-3.899,-6.262,-1.859,21.878,9.538,4.897,13.802,11.140,-3.597,6.378,6.101,17.584,0.435,5.091
Fri Nov 22 20:53:22 2024,135,-21.728,-21.728,-4.261,-4.261,-6.429,-1.879,21.897,9.384,4.811,13.786,11.102,-3.530,6.312,6.116,17.514,0.418,5.097
Fri Nov 22 20:53:22 2024,140,-21.609,-21.609,-4.629,-4.629,-6.635,-1.897,21.911,9.311,4.746,13.777,11.096,-3.510,6.263,6.131,17.479,0.405,5.095
Fri Nov 22 20:53:22 2024,145,-21.372,-21.372,-5.119,-5.119,-6.949,-2.046,22.046,9.362,4.639,13.810,11.102,-3.537,6.210,6.157,17.422,0.405,5.061
Fri Nov 22 20:53:22 2024,150,-21.203,-21.203,-5.502,-5.502,-7.189,-2.169,22.173,9.408,4.554,13.837,11.108,-3.561,6.169,6.177,17.377,0.405,5.034
Fri Nov 22 20:53:22 2024,155,-20.996,-20.996,-5.838,-5.838,-7.409,-2.294,22.324,9.438,4.480,13.906,11.122,-3.553,6.198,6.227,17.335,0.428,5.022
Fri Nov 22 20:53:22 2024,160,-20.818,-20.818,-6.123,-6.123,-7.596,-2.407,22.477,9.459,4.417,13.983,11.137,-3.535,6.247,6.280,17.298,0.455,5.018
Fri Nov 22 20:53:22 2024,165,-20.708,-20.708,-6.324,-6.324,-7.739,-2.507,22.620,9.458,4.371,14.054,11.136,-3.516,6.300,6.308,17.270,0.481,5.019
Fri Nov 22 20:53:22 2024,170,-20.673,-20.673,-6.394,-6.394,-7.828,-2.602,22.749,9.414,4.347,14.127,11.104,-3.490,6.375,6.287,17.255,0.509,5.031
Fri Nov 22 20:53:22 2024,175,-20.641,-20.641,-6.492,-6.492,-7.933,-2.706,22.897,9.372,4.318,14.206,11.073,-3.463,6.455,6.271,17.236,0.540,5.044
Fri Nov 22 20:53:22 2024,180,-20.580,-20.580,-6.523,-6.523,-8.028,-2.760,22.981,9.324,4.347,14.308,11.061,-3.390,6.628,6.317,17.272,0.570,5.070
Fri Nov 22 20:53:22 2024,185,-20.546,-20.546,-6.540,-6.540,-8.092,-2.792,23.033,9.291,4.372,14.376,11.055,-3.336,6.755,6.353,17.301,0.590,5.088
Fri Nov 22 20:53:22 2024,190,-20.489,-20.489,-6.592,-6.592,-8.169,-2.769,23.042,9.270,4.406,14.396,11.040,-3.266,6.842,6.377,17.308,0.612,5.100
Fri Nov 22 20:53:22 2024,195,-20.418,-20.418,-6.669,-6.669,-8.224,-2.677,22.985,9.277,4.435,14.336,11.019,-3.207,6.825,6.371,17.277,0.625,5.098
Fri Nov 22 20:53:22 2024,200,-20.363,-20.363,-6.737,-6.737,-8.273,-2.598,22.938,9.284,4.459,14.284,11.001,-3.157,6.809,6.365,17.251,0.637,5.096
Fri Nov 22 20:53:22 2024,205,-20.218,-20.218,-6.926,-6.926,-8.456,-2.402,22.912,9.475,4.509,14.308,11.075,-2.995,7.110,6.484,17.281,0.648,5.123
Fri Nov 22 20:53:22 2024,210,-20.081,-20.081,-7.114,-7.114,-8.636,-2.209,22.931,9.674,4.557,14.336,11.154,-2.833,7.423,6.608,17.314,0.658,5.151
Fri Nov 22 20:53:22 2024,215,-19.883,-19.883,-7.327,-7.327,-8.771,-1.750,22.928,10.012,4.661,14.225,11.224,-2.695,7.613,6.710,17.277,0.720,5.190
Fri Nov 22 20:53:22 2024,220,-19.670,-19.670,-7.520,-7.520,-8.849,-1.174,23.039,10.396,4.788,14.030,11.276,-2.598,7.678,6.778,17.194,0.809,5.231
Fri Nov 22 20:53:22 2024,225,-19.464,-19.464,-7.710,-7.710,-8.926,-0.612,23.305,10.774,4.913,13.841,11.326,-2.504,7.742,6.842,17.112,0.896,5.272
Fri Nov 22 20:53:22 2024,230,-19.218,-19.218,-7.900,-7.900,-9.017,0.195,24.151,11.549,5.064,13.614,11.355,-2.323,7.924,6.904,17.034,0.989,5.323
Fri Nov 22 20:53:22 2024,235,-18.962,-18.962,-8.099,-8.099,-9.112,1.032,25.193,12.370,5.222,13.375,11.388,-2.137,8.110,6.969,16.954,1.087,5.379
Fri Nov 22 20:53:22 2024,240,-18.772,-18.772,-8.245,-8.245,-9.182,1.653,26.007,12.984,5.338,13.200,11.412,-1.999,8.246,7.017,16.893,1.160,5.420
Fri Nov 22 20:53:22 2024,245,-18.521,-18.521,-8.534,-8.534,-9.264,2.852,28.039,14.807,5.523,12.711,11.256,-2.057,7.954,6.854,16.527,1.316,5.334
Fri Nov 22 20:53:22 2024,250,-18.337,-18.337,-8.728,-8.728,-9.325,3.673,29.385,15.978,5.653,12.401,11.184,-2.044,7.847,6.787,16.320,1.415,5.304
Fri Nov 22 20:53:22 2024,255,-18.129,-18.129,-8.728,-8.728,-9.410,4.578,31.264,17.590,5.782,12.150,10.874,-1.866,7.916,6.666,16.195,1.420,5.260
Fri Nov 22 20:53:22 2024,260,-17.962,-17.962,-8.741,-8.741,-9.476,5.321,32.775,18.917,5.887,11.940,10.641,-1.733,7.958,6.572,16.087,1.430,5.224
Fri Nov 22 20:53:22 2024,265,-17.706,-17.706,-8.963,-8.963,-9.532,6.152,34.701,21.185,6.143,11.642,10.606,-1.624,7.725,6.496,15.852,1.486,5.128
Fri Nov 22 20:53:22 2024,270,-17.475,-17.475,-9.228,-9.228,-9.568,6.816,36.331,23.372,6.405,11.377,10.676,-1.557,7.418,6.450,15.616,1.545,5.028
Fri Nov 22 20:53:22 2024,275,-17.250,-17.250,-9.488,-9.488,-9.604,7.473,37.924,25.548,6.659,11.119,10.744,-1.494,7.120,6.406,15.384,1.599,4.931
Fri Nov 22 20:53:22 2024,280,-17.010,-17.010,-9.651,-9.651,-9.610,7.917,40.010,28.550,6.854,10.792,10.910,-1.256,6.816,6.546,15.214,1.519,4.762
Fri Nov 22 20:53:22 2024,285,-16.803,-16.803,-9.812,-9.812,-9.620,8.349,41.769,31.143,7.036,10.516,11.040,-1.083,6.546,6.639,15.053,1.462,4.626
Fri Nov 22 20:53:22 2024,290,-16.658,-16.658,-9.940,-9.940,-9.481,8.332,43.953,35.288,7.142,10.524,11.181,-0.832,6.501,6.736,14.930,1.309,4.487
Fri Nov 22 20:53:22 2024,295,-16.555,-16.555,-10.038,-10.038,-9.308,8.162,46.048,39.610,7.208,10.628,11.303,-0.615,6.539,6.822,14.835,1.139,4.364
Fri Nov 22 20:53:22 2024,300,-16.463,-16.463,-10.127,-10.127,-9.151,8.018,47.995,43.623,7.268,10.716,11.410,-0.483,6.567,6.898,14.747,0.980,4.251
Fri Nov 22 20:53:22 2024,305,-16.181,-16.181,-10.302,-10.302,-9.020,7.409,52.172,49.218,7.315,10.912,11.031,0.418,7.310,6.708,14.606,1.247,4.001
Fri Nov 22 20:53:22 2024,310,-15.970,-15.970,-10.438,-10.438,-8.901,7.020,55.606,54.138,7.360,11.052,10.784,0.493,7.828,6.589,14.494,1.405,3.832
Fri Nov 22 20:53:22 2024,315,-15.783,-15.783,-10.515,-10.515,-8.638,7.446,58.997,59.421,7.401,11.268,10.669,0.566,8.281,6.447,14.540,1.528,3.837
Fri Nov 22 20:53:22 2024,320,-15.580,-15.580,-10.593,-10.593,-8.330,8.136,62.894,65.703,7.451,11.489,10.556,0.663,8.775,6.287,14.614,1.652,3.868
Fri Nov 22 20:53:22 2024,325,-15.445,-15.445,-10.627,-10.627,-8.100,8.458,65.249,69.961,7.499,11.663,10.590,0.756,9.214,6.260,14.636,1.743,3.894
Fri Nov 22 20:53:22 2024,330,-15.365,-15.365,-10.625,-10.625,-7.933,8.409,66.310,72.565,7.542,11.800,10.740,0.839,9.607,6.342,14.615,1.812,3.911
Fri Nov 22 20:53:22 2024,335,-15.284,-15.284,-10.623,-10.623,-7.769,8.382,67.376,75.160,7.588,11.914,10.888,0.925,9.993,6.425,14.595,1.880,3.927
Fri Nov 22 20:53:22 2024,340,-15.215,-15.215,-10.621,-10.621,-7.627,8.380,68.298,77.381,7.627,11.995,11.015,1.003,10.323,6.498,14.577,1.937,3.942
Fri Nov 22 20:53:22 2024,345,-14.925,-14.925,-10.395,-10.395,-7.437,8.759,68.003,76.967,8.037,11.655,11.385,1.252,9.999,6.577,14.657,1.650,3.855
Fri Nov 22 20:53:22 2024,350,-14.828,-14.828,-10.208,-10.208,-7.249,8.954,68.630,78.239,8.136,11.622,11.522,1.330,10.011,6.599,14.538,1.678,3.867
Fri Nov 22 20:53:22 2024,355,-14.771,-14.771,-9.997,-9.997,-7.056,9.144,69.386,79.663,8.178,11.635,11.606,1.366,10.036,6.598,14.360,1.768,3.899
Fri Nov 22 20:53:22 2024,360,-14.726,-14.726,-9.790,-9.790,-6.864,9.333,70.149,81.070,8.203,11.654,11.675,1.392,10.064,6.592,14.174,1.868,3.935
Fri Nov 22 20:53:22 2024,365,-14.648,-14.648,-9.669,-9.669,-6.727,9.508,71.008,82.353,8.244,11.657,11.757,1.479,10.226,6.638,14.086,1.989,4.006
Fri Nov 22 20:53:22 2024,370,-14.484,-14.484,-9.704,-9.704,-6.685,9.692,72.282,83.668,8.330,11.626,11.882,1.718,10.720,6.810,14.192,2.184,4.172
Fri Nov 22 20:53:22 2024,375,-14.431,-14.431,-9.631,-9.631,-6.567,9.811,73.194,84.796,8.374,11.607,11.990,1.870,10.947,6.908,14.194,2.292,4.286
Fri Nov 22 20:53:22 2024,380,-14.462,-14.462,-9.508,-9.508,-6.400,9.856,74.009,85.860,8.398,11.595,12.115,2.025,11.078,6.999,14.182,2.353,4.409
Fri Nov 22 20:53:22 2024,385,-14.486,-14.486,-9.414,-9.414,-6.270,9.910,74.666,86.693,8.416,11.582,12.214,2.147,11.186,7.072,14.174,2.404,4.508
Fri Nov 22 20:53:22 2024,390,-14.355,-14.355,-9.370,-9.370,-6.153,9.945,75.423,87.532,8.437,11.562,12.314,2.261,11.293,7.191,14.068,2.514,4.622
Fri Nov 22 20:53:22 2024,395,-14.262,-14.262,-9.339,-9.339,-6.069,9.985,75.967,88.120,8.452,11.548,12.386,2.341,11.368,7.276,13.992,2.592,4.706
Fri Nov 22 20:53:22 2024,400,-14.165,-14.165,-9.304,-9.304,-5.978,10.044,76.551,88.738,8.467,11.533,12.464,2.427,11.448,7.368,13.912,2.676,4.797
Fri Nov 22 20:53:22 2024,405,-13.988,-13.988,-9.309,-9.309,-6.033,10.233,77.129,88.878,8.693,11.301,12.566,2.731,11.586,7.400,13.982,2.625,4.743
Fri Nov 22 20:53:22 2024,410,-13.881,-13.881,-9.303,-9.303,-6.036,10.345,77.553,89.096,8.804,11.182,12.635,2.896,11.664,7.438,13.994,2.621,4.740
Fri Nov 22 20:53:22 2024,415,-13.818,-13.818,-9.200,-9.200,-6.009,10.585,78.227,89.231,8.843,11.118,12.623,2.945,11.855,7.361,13.884,2.768,4.667
Fri Nov 22 20:53:22 2024,420,-13.758,-13.758,-9.109,-9.109,-5.985,10.812,78.847,89.357,8.883,11.045,12.616,2.996,12.026,7.294,13.786,2.897,4.603
Fri Nov 22 20:53:22 2024,425,-13.728,-13.728,-8.972,-8.972,-5.946,11.031,79.503,89.535,8.926,10.943,12.639,3.076,12.256,7.287,13.758,2.991,4.600
Fri Nov 22 20:53:22 2024,430,-13.717,-13.717,-8.781,-8.781,-5.889,11.278,80.268,89.770,8.976,10.795,12.687,3.188,12.557,7.324,13.778,3.067,4.645
Fri Nov 22 20:53:22 2024,435,-13.705,-13.705,-8.630,-8.630,-5.843,11.496,80.894,89.949,9.015,29.342,12.724,3.275,12.791,7.347,13.787,3.134,4.674
Fri Nov 22 20:53:22 2024,440,-13.528,-13.528,-8.579,-8.579,-5.837,11.791,81.568,90.204,9.121,29.533,12.744,3.314,12.962,7.266,13.707,3.209,4.623
Fri Nov 22 20:53:22 2024,445,-13.403,-13.403,-8.528,-8.528,-5.827,12.028,82.104,90.394,9.199,29.687,12.764,3.350,13.103,7.210,13.651,3.267,4.590
Fri Nov 22 20:53:22 2024,450,-13.306,-13.306,-8.425,-8.425,-5.797,12.272,82.559,90.424,9.256,29.825,12.778,3.375,13.298,7.204,13.598,3.406,4.593
Fri Nov 22 20:53:22 2024,455,-13.216,-13.216,-8.286,-8.286,-5.755,12.538,83.007,90.376,9.306,29.966,12.790,3.396,13.534,7.222,13.542,3.594,4.614
Fri Nov 22 20:53:22 2024,460,-13.140,-13.140,-8.177,-8.177,-5.722,12.762,83.385,90.348,9.349,30.089,12.802,3.414,13.721,7.232,13.496,3.742,4.628
Fri Nov 22 20:53:22 2024,465,-13.146,-13.146,-8.020,-8.020,-5.659,12.980,83.820,90.456,9.459,30.288,12.742,3.436,13.706,7.159,13.460,3.788,4.722
Fri Nov 22 20:53:22 2024,470,-13.141,-13.141,-7.894,-7.894,-5.611,13.175,84.187,90.522,9.542,30.450,12.703,3.454,13.728,7.111,13.428,3.848,4.789
Fri Nov 22 20:53:22 2024,475,-13.043,-13.043,-7.799,-7.799,-5.584,13.485,84.636,90.515,9.655,30.691,12.749,3.451,13.803,7.049,13.320,4.010,4.758
Fri Nov 22 20:53:22 2024,480,-12.968,-12.968,-7.740,-7.740,-5.568,13.708,84.944,90.500,9.733,30.863,12.789,3.447,13.859,7.007,13.239,4.130,4.727
Fri Nov 22 20:53:22 2024,485,-12.879,-12.879,-7.670,-7.670,-5.550,13.976,85.307,90.480,9.825,31.069,12.838,3.441,13.924,6.957,13.143,4.271,4.689
Fri Nov 22 20:53:22 2024,490,-12.798,-12.798,-7.686,-7.686,-5.552,14.126,85.604,90.456,9.840,31.208,12.946,3.511,14.105,7.028,13.035,4.335,4.691
Fri Nov 22 20:53:22 2024,495,-12.718,-12.718,-7.681,-7.681,-5.549,14.304,85.909,90.434,9.873,31.364,13.039,3.561,14.248,7.067,12.933,4.415,4.684
Fri Nov 22 20:53:22 2024,500,-12.655,-12.655,-7.673,-7.673,-5.563,14.498,86.233,90.397,9.918,31.559,13.218,3.667,14.365,7.188,12.859,4.475,4.665
Fri Nov 22 20:53:22 2024,505,-12.609,-12.609,-7.666,-7.666,-5.580,14.658,86.496,90.365,9.956,31.725,13.381,3.764,14.449,7.302,12.808,4.518,4.646
Fri Nov 22 20:53:22 2024,510,-12.560,-12.560,-7.658,-7.658,-5.596,14.826,86.769,90.332,9.995,31.899,13.547,3.860,14.530,7.416,12.750,4.565,4.628
Fri Nov 22 20:53:22 2024,515,-12.534,-12.534,-7.654,-7.654,-5.605,14.920,86.921,90.312,10.016,31.997,13.639,3.913,14.572,7.480,12.718,4.591,4.618
Fri Nov 22 20:53:22 2024,520,-12.523,-12.523,-7.653,-7.653,-5.608,14.958,86.981,90.304,10.024,32.036,13.675,3.934,14.588,7.505,12.706,4.601,4.614
Fri Nov 22 20:53:22 2024,525,-12.161,-12.161,-7.617,-7.617,-5.597,15.588,87.914,90.359,10.196,32.488,14.000,3.874,14.961,7.596,12.097,5.182,4.479
Fri Nov 22 20:53:22 2024,530,-12.057,-12.057,-7.606,-7.606,-5.600,15.802,88.227,90.361,10.250,32.659,14.134,3.889,15.066,7.654,11.929,5.340,4.441
Fri Nov 22 20:53:22 2024,535,-11.953,-11.953,-7.487,-7.487,-5.530,16.150,88.738,90.358,10.357,33.009,14.336,3.885,15.292,7.709,11.764,5.554,4.403
Fri Nov 22 20:53:22 2024,540,-11.872,-11.872,-7.310,-7.310,-5.417,16.528,89.287,90.351,10.479,33.422,14.546,3.866,15.552,7.748,11.637,5.764,4.375
Fri Nov 22 20:53:22 2024,545,-11.795,-11.795,-7.140,-7.140,-5.308,16.898,89.812,90.342,10.597,33.828,14.754,3.846,15.769,7.786,11.518,5.964,4.349
Fri Nov 22 20:53:22 2024,550,-11.653,-11.653,-7.030,-7.030,-5.264,17.255,90.184,90.364,10.691,34.194,14.948,3.847,15.878,7.736,11.354,6.131,4.194
Fri Nov 22 20:53:22 2024,555,-11.541,-11.541,-6.938,-6.938,-5.223,17.553,90.494,90.380,10.769,34.500,15.110,3.848,15.958,7.698,11.223,6.268,4.076
Fri Nov 22 20:53:22 2024,560,-11.480,-11.480,-6.842,-6.842,-5.156,17.853,90.838,90.407,10.822,34.775,15.300,3.851,16.022,7.718,11.108,6.406,4.021
Fri Nov 22 20:53:22 2024,565,-11.553,-11.553,-6.716,-6.716,-4.998,18.204,91.341,90.469,10.805,35.000,15.600,3.864,16.076,7.903,11.020,6.567,4.136
Fri Nov 22 20:53:22 2024,570,-11.587,-11.587,-6.609,-6.609,-4.876,18.519,91.759,90.514,10.806,35.221,15.851,3.871,16.106,8.032,10.933,6.707,4.202
Fri Nov 22 20:53:22 2024,575,-11.625,-11.625,-6.441,-6.441,-4.766,18.753,92.054,90.235,10.832,35.526,16.093,3.847,16.148,8.092,10.831,6.966,4.243
Fri Nov 22 20:53:22 2024,580,-11.655,-11.655,-6.316,-6.316,-4.680,18.943,92.292,90.048,10.850,35.758,16.284,3.830,16.170,8.145,10.752,7.154,4.277
Fri Nov 22 20:53:22 2024,585,-11.659,-11.659,-6.230,-6.230,-4.597,19.199,92.602,89.914,10.885,36.036,16.509,3.829,16.165,8.218,10.676,7.341,4.302
Fri Nov 22 20:53:22 2024,590,-11.588,-11.588,-6.286,-6.286,-4.556,19.543,92.996,89.986,10.958,36.329,16.737,3.875,16.090,8.319,10.635,7.455,4.287
Fri Nov 22 20:53:22 2024,595,-11.546,-11.546,-6.296,-6.296,-4.506,19.832,93.325,89.990,11.013,36.590,16.944,3.902,16.018,8.402,10.588,7.576,4.286
Fri Nov 22 20:53:22 2024,600,-11.631,-11.631,-6.136,-6.136,-4.408,19.936,93.516,89.874,10.980,36.795,17.124,3.871,16.029,8.454,10.556,7.772,4.466
Fri Nov 22 20:53:22 2024,605,-11.685,-11.685,-6.025,-6.025,-4.330,20.065,93.710,89.792,10.967,36.991,17.291,3.854,23.981,8.507,10.524,7.930,4.597
Fri Nov 22 20:53:22 2024,610,-11.645,-11.645,-6.017,-6.017,-4.312,20.115,93.782,89.699,10.989,37.174,17.419,3.874,24.049,8.650,10.481,8.050,4.687
Fri Nov 22 20:53:22 2024,615,-11.594,-11.594,-6.030,-6.030,-4.308,20.142,93.820,89.618,11.014,37.326,17.520,3.896,24.121,8.788,10.442,8.143,4.756
Fri Nov 22 20:53:22 2024,620,-11.550,-11.550,-6.040,-6.040,-4.305,20.165,93.852,89.546,11.035,37.458,17.607,3.917,24.189,8.910,10.408,8.224,4.818
Fri Nov 22 20:53:22 2024,625,-11.346,-11.346,-6.026,-6.026,-4.217,20.239,93.883,89.514,11.033,37.615,17.764,3.972,24.306,8.890,10.448,8.288,4.943
Fri Nov 22 20:53:22 2024,630,-11.204,-11.204,-6.019,-6.019,-4.157,20.292,93.908,89.479,11.035,37.745,17.887,4.013,24.400,8.899,10.468,8.344,5.041
Fri Nov 22 20:53:22 2024,635,-11.048,-11.048,-6.072,-6.072,-4.114,20.111,93.732,89.505,11.021,37.746,17.896,4.020,24.477,9.038,10.444,8.431,5.224
Fri Nov 22 20:53:22 2024,640,-10.888,-10.888,-6.136,-6.136,-4.072,19.888,93.517,89.540,11.004,37.726,17.887,4.021,24.557,9.203,10.411,8.524,5.428
Fri Nov 22 20:53:22 2024,645,-10.762,-10.762,-6.136,-6.136,-4.016,19.718,93.334,89.611,10.996,37.742,17.880,4.037,24.644,9.300,10.419,8.583,5.578
Fri Nov 22 20:53:22 2024,650,-10.624,-10.624,-6.014,-6.014,-3.901,19.546,93.104,89.791,10.999,37.839,17.873,4.093,24.794,9.328,10.509,8.609,5.715
Fri Nov 22 20:53:22 2024,655,-10.494,-10.494,-5.908,-5.908,-3.797,19.380,92.884,89.954,11.001,37.924,17.866,4.142,24.937,9.361,10.587,8.631,5.848
Fri Nov 22 20:53:22 2024,660,-10.330,-10.330,-5.918,-5.918,-3.752,18.960,92.314,90.009,10.937,37.756,17.677,4.197,25.050,9.492,10.561,8.682,5.991
Fri Nov 22 20:53:22 2024,665,-10.148,-10.148,-5.925,-5.925,-3.701,18.504,91.684,90.069,10.867,37.574,17.470,4.258,25.177,9.637,10.533,8.737,6.149
Fri Nov 22 20:53:22 2024,670,-9.924,-9.924,-5.936,-5.936,-3.655,18.139,91.091,90.214,10.785,37.455,17.306,4.316,25.351,9.760,10.516,8.799,6.266
Fri Nov 22 20:53:22 2024,675,-9.682,-9.682,-5.950,-5.950,-3.616,17.868,90.562,90.418,10.698,37.394,17.185,4.370,25.555,9.858,10.510,8.862,6.342
Fri Nov 22 20:53:22 2024,680,-9.455,-9.455,-5.963,-5.963,-3.579,17.615,90.049,90.606,10.615,37.335,17.068,4.421,25.754,9.953,10.505,8.919,6.416
Fri Nov 22 20:53:22 2024,685,-9.286,-9.286,-5.897,-5.897,-3.557,17.194,89.223,90.372,10.554,37.348,16.896,4.419,25.951,9.894,10.475,9.035,6.495
Fri Nov 22 20:53:22 2024,690,-9.135,-9.135,-5.839,-5.839,-3.537,16.841,88.486,90.148,10.500,37.360,16.744,4.418,26.134,9.844,10.449,9.132,6.565
Fri Nov 22 20:53:22 2024,695,-9.001,-9.001,-5.828,-5.828,-3.539,16.333,87.623,89.834,10.430,37.282,16.516,4.307,26.201,9.764,10.341,9.294,6.607
Fri Nov 22 20:53:22 2024,700,-8.907,-8.907,-5.846,-5.846,-3.553,15.856,86.878,89.532,10.367,37.171,16.297,4.158,26.190,9.685,10.211,9.457,6.624
Fri Nov 22 20:53:22 2024,705,-8.808,-8.808,-5.865,-5.865,-3.568,15.369,86.095,89.197,10.300,37.055,16.068,4.003,26.187,9.602,10.074,9.626,6.643
Fri Nov 22 20:53:22 2024,710,-8.706,-8.706,-5.977,-5.977,-3.554,14.862,85.194,89.203,10.219,36.996,15.982,3.904,26.456,9.714,9.888,9.873,6.659
Fri Nov 22 20:53:22 2024,715,-8.606,-8.606,-6.080,-6.080,-3.545,14.351,84.267,89.139,10.134,36.926,15.871,3.793,26.716,9.802,9.704,10.113,6.678
Fri Nov 22 20:53:22 2024,720,-8.480,-8.480,-6.112,-6.112,-3.643,13.918,83.099,88.394,10.092,36.892,15.670,3.714,26.878,9.738,9.544,10.292,6.563
Fri Nov 22 20:53:22 2024,725,-8.250,-8.250,-6.002,-6.002,-4.028,13.475,80.838,85.739,10.123,36.926,15.178,3.668,26.879,9.308,9.355,10.443,6.100
Fri Nov 22 20:53:22 2024,730,-8.137,-8.137,-5.950,-5.950,-4.284,13.214,79.222,83.887,10.128,36.936,14.846,3.620,26.932,9.048,9.200,10.582,5.804
Fri Nov 22 20:53:22 2024,735,-7.870,-7.870,-6.251,-6.251,-4.838,12.680,77.429,80.851,10.189,36.702,14.322,3.798,26.924,8.806,9.228,10.607,5.712
Fri Nov 22 20:53:22 2024,740,-7.646,-7.646,-6.509,-6.509,-5.353,12.253,75.661,77.896,10.240,36.504,13.831,3.943,26.930,8.560,9.229,10.643,5.589
Fri Nov 22 20:53:22 2024,745,-7.520,-7.520,-6.515,-6.515,-5.709,11.529,74.059,74.248,10.316,36.209,13.422,4.098,26.711,8.346,9.163,10.717,5.484
Fri Nov 22 20:53:22 2024,750,-7.495,-7.495,-6.056,-6.056,-5.949,9.904,72.010,67.623,10.480,35.609,12.962,4.353,26.022,8.091,8.945,10.901,5.360
Fri Nov 22 20:53:22 2024,755,-7.482,-7.482,-5.843,-5.843,-6.176,9.016,70.591,63.342,10.590,35.259,12.625,4.536,25.727,7.906,8.821,11.009,5.268
Fri Nov 22 20:53:22 2024,760,-7.701,-7.701,-5.568,-5.568,-6.496,7.639,63.578,53.666,10.453,34.212,12.860,4.738,25.164,8.020,8.588,11.118,5.614
Fri Nov 22 20:53:22 2024,765,-7.932,-7.932,-5.324,-5.324,-6.780,6.874,58.364,46.449,10.389,33.417,12.982,4.948,14.982,8.084,8.397,11.186,5.869
Fri Nov 22 20:53:22 2024,770,-7.716,-7.716,-5.345,-5.345,-7.278,6.745,54.317,40.636,9.950,32.708,12.954,4.721,15.275,8.068,8.382,11.087,5.913
Fri Nov 22 20:53:22 2024,775,-7.493,-7.493,-5.390,-5.390,-7.714,6.764,51.087,36.033,9.546,32.116,12.914,4.492,15.496,8.047,8.386,10.981,5.932
Fri Nov 22 20:53:22 2024,780,-7.270,-7.270,-5.439,-5.439,-8.151,6.841,47.924,31.780,9.140,31.518,12.874,4.263,15.655,8.026,8.393,10.864,5.952
Fri Nov 22 20:53:22 2024,785,-6.881,-6.881,-5.444,-5.444,-8.247,5.804,45.543,28.810,9.358,31.584,12.954,4.787,15.193,8.240,8.926,10.486,6.094
Fri Nov 22 20:53:22 2024,790,-6.593,-6.593,-5.464,-5.464,-8.418,5.175,43.228,25.958,9.394,31.477,12.994,5.067,14.924,8.375,9.272,10.203,6.190
Fri Nov 22 20:53:22 2024,795,-6.348,-6.348,-5.418,-5.418,-8.666,4.353,40.770,22.876,9.283,31.530,12.847,5.368,14.626,8.352,9.660,9.943,6.233
Fri Nov 22 20:53:22 2024,800,-6.134,-6.134,-5.341,-5.341,-8.942,3.489,38.365,19.843,9.101,31.669,12.613,5.661,14.304,8.249,10.048,9.690,6.247
Fri Nov 22 20:53:22 2024,805,-5.932,-5.932,-5.230,-5.230,-9.119,2.839,36.266,17.334,9.020,31.862,12.480,5.940,13.980,8.173,10.384,9.428,6.267
Fri Nov 22 20:53:22 2024,810,-5.784,-5.784,-5.056,-5.056,-9.122,2.546,34.911,15.779,9.081,32.159,12.478,6.166,13.742,8.100,10.599,9.235,6.272
Fri Nov 22 20:53:22 2024,815,-5.630,-5.630,-4.887,-4.887,-9.152,2.199,33.431,14.106,9.122,32.453,12.458,6.403,13.485,8.027,10.837,9.024,6.280
Fri Nov 22 20:53:22 2024,820,-5.403,-5.403,-4.889,-4.889,-9.359,1.857,32.501,12.862,9.267,33.098,12.513,6.544,13.308,7.940,11.059,8.822,6.173
Fri Nov 22 20:53:22 2024,825,-5.204,-5.204,-4.897,-4.897,-9.551,1.551,31.694,11.781,9.402,33.700,12.565,6.667,13.149,7.861,11.258,8.640,6.071
Fri Nov 22 20:53:22 2024,830,-5.040,-5.040,-4.904,-4.904,-9.643,1.343,31.134,11.086,9.496,34.227,12.701,6.744,26.960,7.809,11.376,8.534,5.992
Fri Nov 22 20:53:22 2024,835,-4.852,-4.852,-4.911,-4.911,-9.702,1.134,30.564,10.419,9.592,34.858,12.923,6.813,27.071,7.756,11.479,8.442,5.906
Fri Nov 22 20:53:22 2024,840,-4.687,-4.687,-4.918,-4.918,-9.755,0.947,30.054,9.825,9.680,35.440,13.128,6.877,27.173,7.710,11.572,8.358,5.828
Fri Nov 22 20:53:22 2024,845,-4.519,-4.519,-4.909,-4.909,-9.755,0.803,29.701,9.431,9.779,36.071,13.502,6.950,27.318,7.712,11.654,8.289,5.808
Fri Nov 22 20:53:22 2024,850,-4.296,-4.296,-4.877,-4.877,-9.690,0.675,29.440,9.167,9.922,36.924,14.181,7.055,27.552,7.773,11.742,8.216,5.852
Fri Nov 22 20:53:22 2024,855,-4.083,-4.083,-4.828,-4.828,-9.560,0.560,28.989,8.876,10.147,37.977,15.118,7.142,27.743,7.800,11.739,8.221,5.732
Fri Nov 22 20:53:22 2024,860,-3.931,-3.931,-4.782,-4.782,-9.424,0.469,28.521,8.615,10.373,38.960,16.044,7.205,27.886,7.805,11.693,8.260,5.557
Fri Nov 22 20:53:22 2024,865,-3.796,-3.796,-4.734,-4.734,-9.274,0.372,28.008,8.326,10.622,40.061,17.100,7.274,28.049,7.811,11.642,8.303,5.367
Fri Nov 22 20:53:22 2024,870,-3.566,-3.566,-4.674,-4.674,-9.103,0.279,27.751,8.177,11.002,41.911,18.848,7.380,28.431,7.898,11.747,8.243,5.481
Fri Nov 22 20:53:22 2024,875,-3.396,-3.396,-4.626,-4.626,-8.962,0.209,27.508,8.034,11.302,43.416,20.303,7.462,28.748,7.965,11.817,8.182,5.547
Fri Nov 22 20:53:22 2024,880,-3.252,-3.252,-4.520,-4.520,-8.709,0.180,27.213,8.001,11.517,45.020,21.978,7.592,29.141,8.032,11.760,8.235,5.560
Fri Nov 22 20:53:22 2024,885,-3.090,-3.090,-4.302,-4.302,-8.221,0.191,26.753,8.109,11.677,47.264,24.494,7.830,29.755,8.121,11.509,8.478,5.502
Fri Nov 22 20:53:22 2024,890,-3.012,-3.012,-4.092,-4.092,-7.752,0.222,26.334,8.433,11.889,48.811,26.239,7.945,30.360,8.177,11.264,8.721,5.474
Fri Nov 22 20:53:22 2024,895,-3.057,-3.057,-3.752,-3.752,-7.008,0.332,25.751,9.423,12.287,49.790,27.463,7.923,31.322,8.179,10.827,9.171,5.458
Fri Nov 22 20:53:22 2024,900,-3.090,-3.090,-3.466,-3.466,-6.369,0.429,25.259,10.245,12.638,50.688,28.626,7.906,32.196,8.173,10.457,9.541,5.442
Fri Nov 22 20:53:22 2024,905,-2.838,-2.838,-3.103,-3.103,-5.887,0.381,24.416,9.941,12.678,51.078,29.122,7.177,32.773,7.819,9.903,10.096,5.328
Fri Nov 22 20:53:22 2024,910,-2.679,-2.679,-2.784,-2.784,-5.530,0.313,23.638,9.426,12.649,51.276,29.400,6.382,33.257,7.433,9.399,10.601,5.211
Fri Nov 22 20:53:22 2024,915,-2.685,-2.685,-2.458,-2.458,-5.164,0.255,22.852,8.934,12.648,51.496,29.761,5.558,33.850,7.031,8.882,11.114,5.093
Fri Nov 22 20:53:22 2024,920,-3.014,-3.014,-1.931,-1.931,-5.004,-0.258,23.365,9.649,21.381,50.841,24.054,4.564,34.070,8.583,7.670,12.222,4.752
Fri Nov 22 20:53:22 2024,925,-3.267,-3.267,-1.516,-1.516,-4.818,-0.623,23.636,10.059,27.018,52.128,19.975,3.693,34.468,9.709,6.690,12.933,4.516
Fri Nov 22 20:53:22 2024,930,-3.449,-3.449,-1.242,-1.242,-4.681,-0.880,23.851,10.348,30.679,53.754,17.385,3.064,34.822,10.568,5.978,13.321,4.363
Fri Nov 22 20:53:22 2024,935,-3.517,-3.517,-1.122,-1.122,-4.325,-1.045,24.106,10.623,31.916,54.677,16.753,2.705,35.704,11.633,5.610,13.572,4.360
Fri Nov 22 20:53:22 2024,940,-3.357,-3.357,-1.221,-1.221,-3.110,-1.136,24.662,11.120,28.884,53.915,19.310,2.688,38.591,14.106,5.783,13.944,4.703
Fri Nov 22 20:53:22 2024,945,-3.380,-3.380,-1.192,-1.192,-2.781,-1.233,24.870,11.337,29.154,54.239,19.255,2.519,39.476,15.080,5.619,14.136,4.755
Fri Nov 22 20:53:22 2024,950,-3.739,-3.739,-1.367,-1.367,-2.310,-0.636,22.769,12.088,31.140,58.086,22.753,1.928,40.022,17.404,5.859,13.131,5.311
Fri Nov 22 20:53:22 2024,955,-3.691,-3.691,-1.392,-1.392,-1.842,0.023,22.604,12.739,32.240,60.686,26.186,2.732,42.873,20.631,6.381,12.650,5.703
Fri Nov 22 20:53:22 2024,960,-3.661,-3.661,-1.415,-1.415,-1.432,0.716,22.676,13.405,33.410,63.506,30.574,3.700,45.968,24.540,6.944,12.154,6.118
Fri Nov 22 20:53:22 2024,965,-3.611,-3.611,-1.579,-1.579,0.140,1.362,23.109,14.019,34.210,66.601,35.964,4.942,49.403,28.916,7.463,11.835,6.388
Fri Nov 22 20:53:22 2024,970,-3.558,-3.558,-1.880,-1.880,1.042,2.025,23.836,14.644,34.787,70.319,43.150,6.568,53.443,34.315,7.993,11.594,6.566
Fri Nov 22 20:53:22 2024,975,-3.571,-3.571,-2.144,-2.144,1.148,2.585,24.474,15.176,35.366,73.756,50.262,8.076,56.931,39.536,8.444,11.318,6.737
Fri Nov 22 20:53:22 2024,980,-3.520,-3.520,-2.506,-2.506,1.352,3.310,25.744,15.756,35.294,79.361,62.530,9.638,62.276,47.848,8.987,10.952,6.840
Fri Nov 22 20:53:22 2024,985,-3.563,0.017,-2.851,-2.851,1.620,3.982,26.926,16.313,35.348,85.076,73.756,11.300,67.276,56.300,9.495,10.503,6.990
Fri Nov 22 20:53:22 2024,990,-3.565,3.565,-3.128,-3.128,1.793,4.549,27.926,16.744,35.302,89.518,81.304,12.681,71.029,63.012,9.926,10.050,7.150
Fri Nov 22 20:53:22 2024,995,-3.481,3.481,-3.465,-3.465,1.897,5.282,29.234,17.239,35.028,94.416,88.690,14.330,75.166,70.944,10.479,9.391,7.396
Fri Nov 22 20:53:23 2024,0,-3.521,3.521,-3.816,-3.816,2.050,6.013,30.545,17.793,35.447,99.539,93.818,16.290,79.455,78.260,11.030,8.651,7.709
Fri Nov 22 20:53:23 2024,5,-3.706,3.706,-3.906,-3.906,2.174,6.374,31.318,18.346,36.135,101.366,95.684,16.958,81.157,81.438,11.332,31.727,7.915
Fri Nov 22 20:53:23 2024,10,-3.917,3.917,-4.044,-4.044,2.324,6.816,32.225,18.961,37.240,103.785,97.492,17.975,83.364,85.036,11.692,32.199,8.179
Fri Nov 22 20:53:23 2024,15,-4.004,4.004,-4.072,-4.072,2.425,7.009,32.698,19.273,37.828,105.008,98.128,18.638,84.610,86.517,11.857,32.455,8.453
Fri Nov 22 20:53:23 2024,20,-4.046,4.046,-4.069,-4.069,2.503,7.114,33.004,19.468,38.214,105.785,98.420,19.139,85.468,87.296,11.951,32.628,8.703
Fri Nov 22 20:53:23 2024,25,-4.086,4.086,-4.067,-4.067,2.578,7.212,33.293,19.652,38.642,106.518,98.660,19.629,86.282,88.002,12.038,32.794,8.942
Fri Nov 22 20:53:23 2024,30,-4.108,4.108,-3.947,-3.947,2.705,7.322,33.625,19.712,39.576,107.377,98.612,20.493,87.069,88.382,12.106,32.934,8.993
Fri Nov 22 20:53:23 2024,35,-4.127,4.127,-3.867,-3.867,2.799,7.406,33.879,19.771,40.300,108.033,98.590,21.142,87.688,88.692,12.160,33.047,9.054
Fri Nov 22 20:53:23 2024,40,-4.143,4.143,-3.803,-3.803,2.918,7.477,34.049,19.811,41.155,108.760,98.568,21.961,88.405,89.067,12.173,33.103,8.989
Fri Nov 22 20:53:23 2024,45,-4.156,4.156,-3.755,-3.755,3.024,7.534,34.168,19.840,41.937,109.389,98.541,22.706,89.034,89.382,12.172,33.135,8.904
Fri Nov 22 20:53:23 2024,50,-4.169,4.169,-3.705,-3.705,3.134,7.591,34.290,19.868,42.774,110.032,98.501,23.483,89.678,89.680,12.171,33.167,8.821
Fri Nov 22 20:53:23 2024,55,-4.162,4.162,-3.725,-3.725,3.245,7.571,34.486,19.944,44.412,111.128,98.579,25.315,90.885,90.200,12.065,33.134,8.960
Fri Nov 22 20:53:23 2024,60,-4.158,4.158,-3.731,-3.731,3.354,7.565,34.665,20.008,45.976,112.120,98.596,26.973,91.966,90.572,11.982,33.116,9.063
Fri Nov 22 20:53:23 2024,65,-4.258,4.258,-3.707,-3.707,3.530,7.586,34.754,20.062,47.942,113.278,98.561,29.006,93.104,91.038,11.843,33.073,9.106
Fri Nov 22 20:53:23 2024,70,-4.372,4.372,-3.679,-3.679,3.719,7.612,34.833,20.115,50.082,114.462,98.477,31.152,94.259,91.417,11.696,33.032,9.154
Fri Nov 22 20:53:23 2024,75,-4.465,4.465,-3.655,-3.655,3.874,7.633,34.897,20.159,51.930,115.429,98.375,32.952,95.207,91.646,11.576,33.002,9.204
Fri Nov 22 20:53:23 2024,80,-4.582,4.582,-3.534,-3.534,4.075,7.526,35.157,20.382,54.322,116.619,98.252,34.657,96.428,91.950,11.686,33.341,9.582
Fri Nov 22 20:53:23 2024,85,-4.681,4.681,-3.449,-3.449,4.243,7.462,35.342,20.533,56.435,117.621,98.108,36.248,97.449,92.131,11.729,33.563,9.849
Fri Nov 22 20:53:23 2024,90,-4.877,4.877,-3.313,-3.313,4.435,7.394,35.358,20.608,57.138,117.932,98.099,36.694,97.553,92.370,11.644,33.574,9.860
Fri Nov 22 20:53:23 2024,95,-5.071,5.071,-3.178,-3.178,4.627,7.328,35.379,20.682,57.870,118.253,98.082,37.158,97.673,92.595,11.564,33.592,9.879
Fri Nov 22 20:53:23 2024,100,-5.301,5.301,-3.017,-3.017,4.823,7.272,35.392,20.708,58.042,118.357,98.080,37.231,97.745,92.823,11.631,33.728,9.829
Fri Nov 22 20:53:23 2024,105,-5.551,5.551,-2.843,-2.843,5.012,7.230,35.397,20.692,57.737,118.273,98.088,36.969,97.771,93.039,11.823,33.956,9.721
Fri Nov 22 20:53:23 2024,110,-5.798,5.798,-2.671,-2.671,5.200,7.188,35.403,20.677,57.444,118.190,98.088,36.709,97.798,93.248,12.013,34.183,9.614
Fri Nov 22 20:53:23 2024,115,-6.064,6.064,-2.439,-2.439,5.379,7.305,35.602,20.644,56.859,117.959,98.249,35.877,97.609,93.527,12.287,34.481,9.293
Fri Nov 22 20:53:23 2024,120,-6.250,6.250,-2.274,-2.274,5.502,7.396,35.753,20.621,56.435,117.789,98.369,35.259,97.463,93.714,12.484,34.693,9.056
Fri Nov 22 20:53:23 2024,125,-6.384,6.384,-2.182,-2.182,5.590,7.431,35.835,20.621,56.112,117.665,98.452,34.881,97.379,93.882,12.608,34.812,8.950
Fri Nov 22 20:53:23 2024,130,-6.447,6.447,-2.171,-2.171,5.630,7.413,35.844,20.641,55.945,117.606,98.488,34.782,97.362,94.001,12.644,34.831,8.974
Fri Nov 22 20:53:23 2024,135,-6.511,6.511,-2.159,-2.159,5.669,7.396,35.852,20.661,55.779,117.547,98.521,34.685,97.346,94.116,12.681,34.849,8.997
Fri Nov 22 20:53:23 2024,140,-6.673,6.673,-2.205,-2.205,5.591,7.473,35.878,20.634,55.749,117.506,98.549,34.597,97.166,93.998,12.765,34.984,8.895
