Timestamp,Millis,thumb_tm_aa,thumb_tm_flex,thumb_mcp_aa,thumb_mcp_flex,thumb_ip,index_mcp_aa,index_mcp_flex,index_pip,middle_mcp_aa,middle_mcp_flex,middle_pip,ring_mcp_aa,ring_mcp_flex,ring_pip,little_mcp_aa,little_mcp_flex,little_pip
Fri Nov 22 19:34:57 2024,745,-21.941,-21.941,3.746,3.746,0.979,2.435,17.541,11.710,5.922,13.287,12.670,-3.285,11.219,8.230,15.418,1.091,5.664
Fri Nov 22 19:34:57 2024,750,-21.904,-21.904,3.732,3.732,0.978,2.469,17.498,11.793,5.927,13.287,12.721,-3.271,11.233,8.248,15.444,1.098,5.693
Fri Nov 22 19:34:57 2024,755,-21.877,-21.877,3.720,3.720,0.978,2.495,17.465,11.856,5.930,13.287,12.760,-3.260,11.244,8.261,15.464,1.103,5.714
Fri Nov 22 19:34:57 2024,760,-21.835,-21.835,3.706,3.706,0.978,2.488,17.478,11.845,5.926,13.303,12.777,-3.267,11.210,8.243,15.436,1.090,5.689
Fri Nov 22 19:34:57 2024,765,-21.794,-21.794,3.694,3.694,0.977,2.466,17.509,11.804,5.919,13.324,12.783,-3.282,11.160,8.213,15.391,1.072,5.648
Fri Nov 22 19:34:57 2024,770,-21.763,-21.763,3.694,3.694,0.982,2.447,17.535,11.778,5.913,13.341,12.783,-3.289,11.140,8.196,15.371,1.058,5.624
Fri Nov 22 19:34:57 2024,775,-21.755,-21.755,3.721,3.721,1.001,2.429,17.555,11.785,5.911,13.351,12.767,-3.275,11.190,8.205,15.410,1.051,5.634
Fri Nov 22 19:34:57 2024,780,-21.745,-21.745,3.744,3.744,1.017,2.411,17.575,11.788,5.908,13.360,12.754,-3.264,11.228,8.211,15.441,1.044,5.639
Fri Nov 22 19:34:57 2024,785,-21.690,-21.690,3.703,3.703,0.994,2.440,17.540,11.818,5.978,13.344,12.807,-3.253,11.227,8.213,15.435,1.060,5.631
Fri Nov 22 19:34:57 2024,790,-21.640,-21.640,3.661,3.661,0.973,2.471,17.502,11.846,6.043,13.325,12.858,-3.245,11.217,8.213,15.424,1.078,5.621
Fri Nov 22 19:34:57 2024,795,-21.601,-21.601,3.652,3.652,0.971,2.472,17.498,11.836,6.068,13.308,12.852,-3.226,11.233,8.206,15.422,1.095,5.616
Fri Nov 22 19:34:57 2024,800,-21.582,-21.582,3.678,3.678,0.987,2.444,17.527,11.793,6.047,13.299,12.792,-3.202,11.269,8.194,15.430,1.107,5.616
Fri Nov 22 19:34:57 2024,805,-21.563,-21.563,3.703,3.703,1.002,2.416,17.556,11.750,6.026,13.288,12.733,-3.178,11.304,8.181,15.438,1.118,5.615
Fri Nov 22 19:34:57 2024,810,-21.541,-21.541,3.718,3.718,1.011,2.346,17.624,11.758,5.957,13.355,12.739,-3.226,11.396,8.236,15.480,1.139,5.689
Fri Nov 22 19:34:57 2024,815,-21.524,-21.524,3.729,3.729,1.017,2.293,17.674,11.764,5.906,13.405,12.743,-3.261,11.465,8.277,15.512,1.155,5.744
Fri Nov 22 19:34:57 2024,820,-21.525,-21.525,3.733,3.733,1.015,2.292,17.674,11.781,5.915,13.422,12.769,-3.267,11.453,8.273,15.511,1.146,5.738
Fri Nov 22 19:34:57 2024,825,-21.537,-21.537,3.734,3.734,1.008,2.323,17.641,11.807,5.964,13.420,12.817,-3.255,11.385,8.241,15.489,1.122,5.691
Fri Nov 22 19:34:57 2024,830,-21.543,-21.543,3.733,3.733,1.005,2.343,17.621,11.827,5.993,13.412,12.841,-3.251,11.349,8.222,15.491,1.092,5.664
Fri Nov 22 19:34:57 2024,835,-21.533,-21.533,3.724,3.724,1.014,2.347,17.623,11.833,5.981,13.374,12.798,-3.262,11.378,8.231,15.562,1.023,5.672
Fri Nov 22 19:34:57 2024,840,-21.525,-21.525,3.717,3.717,1.021,2.353,17.621,11.840,5.973,13.342,12.766,-3.269,11.397,8.236,15.620,0.966,5.675
Fri Nov 22 19:34:57 2024,845,-21.518,-21.518,3.725,3.725,1.019,2.342,17.634,11.800,5.984,13.349,12.784,-3.285,11.388,8.257,15.618,0.968,5.692
Fri Nov 22 19:34:57 2024,850,-21.510,-21.510,3.735,3.735,1.015,2.329,17.649,11.751,5.998,13.361,12.809,-3.302,11.374,8.282,15.609,0.978,5.712
Fri Nov 22 19:34:57 2024,855,-21.503,-21.503,3.744,3.744,1.012,2.318,17.662,11.710,6.010,13.371,12.829,-3.316,11.363,8.303,15.602,0.986,5.729
Fri Nov 22 19:34:57 2024,860,-21.436,-21.436,3.738,3.738,1.003,2.301,17.669,11.710,5.963,13.428,12.804,-3.315,11.469,8.302,15.580,1.044,5.717
Fri Nov 22 19:34:57 2024,865,-21.392,-21.392,3.736,3.736,0.997,2.288,17.676,11.697,5.937,13.467,12.795,-3.318,11.532,8.307,15.563,1.084,5.714
Fri Nov 22 19:34:57 2024,870,-21.429,-21.429,3.765,3.765,1.025,2.314,17.644,11.759,5.971,13.402,12.768,-3.321,11.454,8.288,15.577,1.061,5.702
Fri Nov 22 19:34:57 2024,875,-21.453,-21.453,3.786,3.786,1.046,2.332,17.620,11.802,5.994,13.357,12.748,-3.324,11.401,8.274,15.585,1.046,5.694
Fri Nov 22 19:34:57 2024,880,-21.455,-21.455,3.779,3.779,1.036,2.345,17.611,11.807,6.022,13.338,12.776,-3.302,11.405,8.296,15.637,1.009,5.734
Fri Nov 22 19:34:57 2024,885,-21.448,-21.448,3.762,3.762,1.016,2.352,17.611,11.794,6.043,13.337,12.815,-3.278,11.431,8.326,15.689,0.975,5.781
Fri Nov 22 19:34:57 2024,890,-21.439,-21.439,3.743,3.743,0.995,2.361,17.610,11.778,6.068,13.335,12.861,-3.249,11.464,8.362,15.752,0.933,5.838
Fri Nov 22 19:34:57 2024,895,-21.414,-21.414,3.756,3.756,1.009,2.314,17.646,11.737,6.040,13.384,12.807,-3.290,11.494,8.314,15.692,1.041,5.805
Fri Nov 22 19:34:57 2024,900,-21.394,-21.394,3.762,3.762,1.015,2.282,17.671,11.704,6.026,13.418,12.777,-3.314,11.522,8.287,15.660,1.111,5.792
Fri Nov 22 19:34:57 2024,905,-21.371,-21.371,3.690,3.690,0.985,2.276,17.678,11.735,5.997,13.431,12.777,-3.313,11.537,8.282,15.665,1.083,5.762
Fri Nov 22 19:34:57 2024,910,-21.348,-21.348,3.617,3.617,0.956,2.272,17.684,11.768,5.969,13.442,12.779,-3.310,11.551,8.278,15.672,1.052,5.731
Fri Nov 22 19:34:57 2024,915,-21.327,-21.327,3.545,3.545,0.933,2.268,17.689,11.801,5.942,13.453,12.781,-3.308,11.564,8.274,15.678,1.022,5.702
Fri Nov 22 19:34:57 2024,920,-21.353,-21.353,3.659,3.659,0.964,2.347,22.425,11.868,6.044,13.387,12.793,-3.233,11.503,8.247,15.654,0.962,5.645
Fri Nov 22 19:34:57 2024,925,-21.364,-21.364,3.711,3.711,0.977,2.394,22.498,11.917,6.101,13.349,12.801,-3.186,11.468,8.230,15.641,0.916,5.603
Fri Nov 22 19:34:57 2024,930,-21.333,-21.333,3.738,3.738,0.984,2.368,22.456,11.874,6.073,13.402,12.817,-3.172,11.503,8.227,15.636,1.028,5.682
Fri Nov 22 19:34:57 2024,935,-21.308,-21.308,3.764,3.764,0.992,2.351,22.429,11.842,6.054,13.441,12.830,-3.157,11.530,8.224,15.629,1.117,5.743
Fri Nov 22 19:34:57 2024,940,-21.296,-21.296,3.783,3.783,1.001,2.328,22.407,11.822,6.039,13.465,12.840,-3.149,11.544,8.228,15.628,1.112,5.730
Fri Nov 22 19:34:57 2024,945,-21.288,-21.288,3.800,3.800,1.013,2.302,22.384,11.804,6.023,13.484,12.849,-3.144,11.554,8.237,15.628,1.068,5.686
Fri Nov 22 19:34:57 2024,950,-21.268,-21.268,3.798,3.798,1.017,2.294,22.379,11.793,6.008,13.488,12.854,-3.144,11.556,8.248,15.638,1.038,5.672
Fri Nov 22 19:34:57 2024,955,-21.220,-21.220,3.759,3.759,1.008,2.324,22.406,11.793,5.991,13.462,12.849,-3.156,11.538,8.268,15.673,1.026,5.721
Fri Nov 22 19:34:57 2024,960,-21.181,-21.181,3.735,3.735,1.002,2.344,22.425,11.797,5.990,13.430,12.844,-3.169,11.517,8.284,15.682,1.029,5.754
Fri Nov 22 19:34:57 2024,965,-21.152,-21.152,3.729,3.729,1.000,2.354,22.431,11.807,6.011,13.389,12.838,-3.184,11.488,8.298,15.658,1.050,5.772
Fri Nov 22 19:34:57 2024,970,-21.137,-21.137,3.745,3.745,1.002,2.351,22.423,11.823,6.054,13.345,12.831,-3.198,11.456,8.305,15.601,1.089,5.769
Fri Nov 22 19:34:57 2024,975,-21.118,-21.118,3.754,3.754,1.005,2.354,22.426,11.812,6.093,13.315,12.814,-3.189,11.465,8.296,15.604,1.072,5.736
Fri Nov 22 19:34:57 2024,980,-21.088,-21.088,3.753,3.753,1.009,2.370,22.451,11.751,6.133,13.306,12.778,-3.134,11.551,8.257,15.717,0.951,5.641
Fri Nov 22 19:34:57 2024,985,-21.068,-21.068,3.769,3.769,1.017,2.383,22.469,11.714,6.158,13.300,12.748,-3.103,11.596,8.226,15.782,0.879,5.583
Fri Nov 22 19:34:57 2024,990,-21.087,-21.087,3.881,3.881,1.057,2.395,22.482,11.738,6.126,13.328,12.720,-3.140,11.531,8.192,15.727,0.920,5.623
Fri Nov 22 19:34:57 2024,995,-21.104,-21.104,3.977,3.977,1.097,2.406,22.493,11.760,6.097,13.353,12.698,-3.173,11.472,8.164,15.675,0.960,5.661
Fri Nov 22 19:34:58 2024,0,-21.094,-21.094,4.024,4.024,1.112,2.380,22.464,11.749,6.055,13.382,12.695,-3.178,11.493,8.191,15.658,0.958,5.671
Fri Nov 22 19:34:58 2024,5,-21.064,-21.064,4.038,4.038,1.107,2.324,22.400,11.712,6.000,13.417,12.706,-3.159,11.580,8.263,15.666,0.925,5.661
Fri Nov 22 19:34:58 2024,10,-21.039,-21.039,4.057,4.057,1.106,2.276,22.345,11.681,5.950,13.450,12.715,-3.146,11.651,8.324,15.670,0.898,5.654
Fri Nov 22 19:34:58 2024,15,-21.042,-21.042,4.048,4.048,1.084,2.247,22.355,11.677,6.004,13.476,12.698,-3.153,11.611,8.249,15.672,0.927,5.614
Fri Nov 22 19:34:58 2024,20,-21.041,-21.041,4.044,4.044,1.070,2.225,22.359,11.671,6.031,13.492,12.689,-3.155,11.595,8.211,15.674,0.941,5.590
Fri Nov 22 19:34:58 2024,25,-21.024,-21.024,4.077,4.077,1.088,2.244,22.388,11.676,6.050,13.473,12.699,-3.148,11.587,8.225,15.644,0.940,5.568
Fri Nov 22 19:34:58 2024,30,-21.007,-21.007,4.110,4.110,1.107,2.266,22.416,11.682,6.066,13.451,12.710,-3.139,11.582,8.246,15.612,0.937,5.549
Fri Nov 22 19:34:58 2024,35,-20.992,-20.992,4.112,4.112,1.106,2.281,22.432,11.699,6.074,13.427,12.715,-3.144,11.558,8.256,15.616,0.917,5.552
Fri Nov 22 19:34:58 2024,40,-20.973,-20.973,4.054,4.054,1.067,2.289,22.429,11.744,6.072,13.388,12.709,-3.176,11.491,8.253,15.684,0.855,5.596
Fri Nov 22 19:34:58 2024,45,-20.960,-20.960,4.019,4.019,1.044,2.296,22.430,11.774,6.072,13.360,12.705,-3.196,11.448,8.253,15.727,0.815,5.623
Fri Nov 22 19:34:58 2024,50,-20.944,-20.944,4.034,4.034,1.054,2.322,22.453,11.778,6.095,13.344,12.749,-3.172,11.433,8.286,15.740,0.857,5.686
Fri Nov 22 19:34:58 2024,55,-20.928,-20.928,4.049,4.049,1.066,2.350,22.477,11.783,6.120,13.326,12.795,-3.147,11.416,8.321,15.754,0.899,5.753
Fri Nov 22 19:34:58 2024,60,-20.889,-20.889,4.037,4.037,1.054,2.341,22.483,11.800,6.136,13.333,12.802,-3.137,11.407,8.297,15.759,0.890,5.746
Fri Nov 22 19:34:58 2024,65,-20.832,-20.832,4.011,4.011,1.030,2.318,22.486,11.826,6.152,13.349,12.798,-3.128,11.398,8.244,15.762,0.861,5.711
Fri Nov 22 19:34:58 2024,70,-20.773,-20.773,3.995,3.995,1.018,2.318,22.494,11.850,6.167,13.344,12.796,-3.103,11.396,8.227,15.777,0.853,5.716
Fri Nov 22 19:34:58 2024,75,-20.706,-20.706,3.992,3.992,1.020,2.352,22.508,11.870,6.180,13.310,12.798,-3.050,11.407,8.260,15.808,0.876,5.778
Fri Nov 22 19:34:58 2024,80,-20.643,-20.643,3.990,3.990,1.022,2.385,22.524,11.889,6.193,13.276,12.799,-2.998,11.418,8.292,15.838,0.900,5.840
Fri Nov 22 19:34:58 2024,85,-20.555,-20.555,3.962,3.962,1.004,2.366,22.515,11.911,6.160,13.304,12.803,-3.041,11.417,8.281,15.819,0.988,5.864
Fri Nov 22 19:34:58 2024,90,-20.469,-20.469,3.932,3.932,0.986,2.343,22.506,11.932,6.126,13.338,12.808,-3.091,11.415,8.266,15.795,1.076,5.883
Fri Nov 22 19:34:58 2024,95,-20.404,-20.404,3.911,3.911,0.973,2.326,22.499,11.948,6.099,13.363,12.811,-3.129,11.413,8.254,15.777,1.143,5.897
Fri Nov 22 19:34:58 2024,100,-20.352,-20.352,3.925,3.925,0.988,2.396,22.553,11.982,6.201,13.302,12.837,-3.004,11.502,8.272,15.812,1.180,5.944
Fri Nov 22 19:34:58 2024,105,-20.298,-20.298,3.928,3.928,0.994,2.435,22.586,12.009,6.260,13.270,12.854,-2.934,11.559,8.280,15.830,1.224,5.978
Fri Nov 22 19:34:58 2024,110,-20.225,-20.225,3.837,3.837,0.973,2.460,22.616,12.040,6.205,13.254,12.863,-2.894,11.589,8.321,15.871,1.218,6.014
Fri Nov 22 19:34:58 2024,115,-20.158,-20.158,3.754,3.754,0.954,2.482,22.643,12.068,6.155,13.235,12.870,-2.859,11.617,8.359,15.909,1.212,6.047
Fri Nov 22 19:34:58 2024,120,-20.135,-20.135,3.798,3.798,0.965,2.463,22.646,12.116,6.124,13.294,12.906,-2.882,11.655,8.388,15.867,1.335,6.123
Fri Nov 22 19:34:58 2024,125,-20.118,-20.118,3.887,3.887,0.988,2.428,22.646,12.180,6.092,13.388,12.959,-2.926,11.702,8.420,15.794,1.518,6.224
Fri Nov 22 19:34:58 2024,130,-20.105,-20.105,3.960,3.960,1.009,2.399,22.648,12.231,6.064,13.461,13.002,-2.962,11.741,8.447,15.733,1.667,6.308
Fri Nov 22 19:34:58 2024,135,-20.057,-20.057,3.872,3.872,0.991,2.434,22.680,12.287,6.065,13.458,13.084,-2.932,11.788,8.518,15.838,1.542,6.328
Fri Nov 22 19:34:58 2024,140,-20.026,-20.026,3.830,3.830,0.984,2.452,22.699,12.328,6.062,13.466,13.140,-2.918,11.821,8.565,15.893,1.490,6.353
Fri Nov 22 19:34:58 2024,145,-20.027,-20.027,3.821,3.821,0.976,2.502,22.796,12.392,6.059,13.489,13.156,-2.909,11.857,8.566,15.883,1.504,6.356
Fri Nov 22 19:34:58 2024,150,-20.035,-20.035,3.822,3.822,0.972,2.555,22.901,12.454,6.057,13.511,13.161,-2.904,11.888,8.557,15.859,1.534,6.355
Fri Nov 22 19:34:58 2024,155,-20.038,-20.038,3.820,3.820,0.970,2.589,22.983,12.498,6.064,13.526,13.177,-2.914,11.889,8.546,15.832,1.564,6.345
Fri Nov 22 19:34:58 2024,160,-20.029,-20.029,3.812,3.812,0.973,2.578,22.995,12.496,6.091,13.522,13.214,-2.954,11.829,8.537,15.806,1.588,6.322
Fri Nov 22 19:34:58 2024,165,-20.022,-20.022,3.807,3.807,0.974,2.574,23.013,12.499,6.111,13.520,13.242,-2.983,11.784,8.530,15.784,1.609,6.304
Fri Nov 22 19:34:58 2024,170,-20.029,-20.029,3.876,3.876,0.995,2.537,22.935,12.462,6.040,13.597,13.261,-3.047,11.710,8.485,15.756,1.641,6.262
Fri Nov 22 19:34:58 2024,175,-20.038,-20.038,3.947,3.947,1.017,2.500,22.853,12.422,5.964,13.676,13.276,-3.109,11.642,8.440,15.730,1.669,6.222
Fri Nov 22 19:34:58 2024,180,-20.005,-20.005,3.927,3.927,1.011,2.471,22.797,12.374,5.935,13.728,13.273,-3.098,11.689,8.420,15.714,1.733,6.242
Fri Nov 22 19:34:58 2024,185,-19.943,-19.943,3.842,3.842,0.983,2.450,22.760,12.318,5.940,13.758,13.255,-3.034,11.821,8.418,15.705,1.819,6.306
Fri Nov 22 19:34:58 2024,190,-19.887,-19.887,3.769,3.769,0.961,2.427,22.721,12.265,5.940,13.789,13.241,-2.981,11.935,8.412,15.695,1.899,6.363
Fri Nov 22 19:34:58 2024,195,-19.875,-19.875,3.797,3.797,0.961,2.430,22.778,12.417,5.943,13.762,13.321,-3.056,11.934,8.518,15.697,1.932,6.417
Fri Nov 22 19:34:58 2024,200,-19.852,-19.852,3.803,3.803,0.958,2.428,22.817,12.524,5.946,13.747,13.381,-3.104,11.958,8.601,15.696,1.976,6.473
Fri Nov 22 19:34:58 2024,205,-19.814,-19.814,3.826,3.826,0.969,2.422,22.849,12.551,5.922,13.780,13.392,-3.090,12.084,8.623,15.710,1.991,6.476
Fri Nov 22 19:34:58 2024,210,-19.761,-19.761,3.861,3.861,0.990,2.413,22.884,12.540,5.880,13.840,13.379,-3.044,12.282,8.617,15.734,1.996,6.451
Fri Nov 22 19:34:58 2024,215,-19.716,-19.716,3.890,3.890,1.008,2.405,22.917,12.540,5.848,13.886,13.375,-3.011,12.442,8.620,15.752,2.005,6.437
Fri Nov 22 19:34:58 2024,220,-19.672,-19.672,3.900,3.900,1.007,2.429,22.965,12.448,5.883,13.878,13.329,-2.999,12.425,8.578,15.700,2.102,6.440
Fri Nov 22 19:34:58 2024,225,-19.630,-19.630,3.915,3.915,1.013,2.442,23.006,12.387,5.896,13.886,13.298,-2.982,12.461,8.552,15.670,2.168,6.439
Fri Nov 22 19:34:58 2024,230,-19.648,-19.648,3.916,3.916,1.016,2.388,22.897,12.424,5.882,13.902,13.347,-3.003,12.460,8.577,15.702,2.177,6.510
Fri Nov 22 19:34:58 2024,235,-19.661,-19.661,3.918,3.918,1.020,2.339,22.800,12.453,5.870,13.917,13.389,-3.020,12.463,8.599,15.728,2.189,6.574
Fri Nov 22 19:34:58 2024,240,-19.613,-19.613,3.962,3.962,1.038,2.338,22.740,12.421,5.890,13.883,13.354,-2.998,12.530,8.605,15.729,2.167,6.536
Fri Nov 22 19:34:58 2024,245,-19.562,-19.562,4.004,4.004,1.054,2.347,22.704,12.383,5.912,13.847,13.312,-2.972,12.595,8.607,15.725,2.142,6.485
Fri Nov 22 19:34:58 2024,250,-19.505,-19.505,4.052,4.052,1.074,2.359,22.666,12.340,5.937,13.805,13.263,-2.942,12.670,8.608,15.719,2.114,6.426
Fri Nov 22 19:34:58 2024,255,-19.502,-19.502,4.044,4.044,1.076,2.401,22.712,12.287,5.948,13.782,13.196,-2.963,12.552,8.522,15.702,2.168,6.442
Fri Nov 22 19:34:58 2024,260,-19.490,-19.490,4.045,4.045,1.081,2.431,22.736,12.245,5.960,13.760,13.143,-2.972,12.485,8.464,15.690,2.199,6.445
Fri Nov 22 19:34:58 2024,265,-19.442,-19.442,4.053,4.053,1.100,2.488,22.737,12.266,5.953,13.723,13.192,-2.937,12.508,8.547,15.724,2.198,6.534
Fri Nov 22 19:34:58 2024,270,-19.406,-19.406,4.059,4.059,1.117,2.528,22.739,12.288,5.947,13.695,13.236,-2.908,12.534,8.619,15.753,2.194,6.602
Fri Nov 22 19:34:58 2024,275,-19.368,-19.368,4.065,4.065,1.135,2.570,22.745,12.311,5.940,13.663,13.282,-2.878,12.561,8.695,15.783,2.190,6.675
Fri Nov 22 19:34:58 2024,280,-19.334,-19.334,3.984,3.984,1.095,2.527,22.681,12.236,5.916,13.681,13.286,-2.876,12.487,8.706,15.783,2.238,6.772
Fri Nov 22 19:34:58 2024,285,-19.307,-19.307,3.942,3.942,1.079,2.513,22.650,12.201,5.901,13.683,13.297,-2.869,12.453,8.727,15.790,2.262,6.838
Fri Nov 22 19:34:58 2024,290,-19.277,-19.277,3.995,3.995,1.108,2.527,22.692,12.245,5.841,13.749,13.247,-2.904,12.569,8.716,15.726,2.375,6.843
Fri Nov 22 19:34:58 2024,295,-19.257,-19.257,4.031,4.031,1.129,2.538,22.722,12.275,5.801,13.795,13.213,-2.927,12.648,8.709,15.683,2.451,6.846
Fri Nov 22 19:34:58 2024,300,-19.235,-19.235,4.078,4.078,1.159,2.543,22.751,12.270,5.781,13.819,13.191,-2.923,12.695,8.703,15.726,2.461,6.880
Fri Nov 22 19:34:58 2024,305,-19.215,-19.215,4.123,4.123,1.192,2.545,22.774,12.234,5.783,13.818,13.184,-2.894,12.705,8.701,15.840,2.405,6.936
Fri Nov 22 19:34:58 2024,310,-19.213,-19.213,4.157,4.157,1.213,2.560,22.803,12.223,5.781,13.818,13.171,-2.867,12.735,8.697,15.895,2.378,6.951
Fri Nov 22 19:34:58 2024,315,-19.241,-19.241,4.179,4.179,1.218,2.603,22.850,12.242,5.777,13.810,13.150,-2.830,12.797,8.687,15.886,2.372,6.905
Fri Nov 22 19:34:58 2024,320,-19.266,-19.266,4.198,4.198,1.220,2.639,22.891,12.258,5.774,13.802,13.133,-2.798,12.850,8.678,15.878,2.367,6.865
Fri Nov 22 19:34:58 2024,325,-19.241,-19.241,4.193,4.193,1.223,2.655,22.929,12.251,5.797,13.799,13.142,-2.780,12.971,8.716,15.900,2.388,6.877
Fri Nov 22 19:34:58 2024,330,-19.214,-19.214,4.187,4.187,1.226,2.669,22.967,12.241,5.822,13.795,13.151,-2.763,13.095,8.757,15.924,2.409,6.892
Fri Nov 22 19:34:58 2024,335,-19.178,-19.178,4.205,4.205,1.229,2.649,22.987,12.216,5.811,13.826,13.122,-2.752,13.177,8.761,15.919,2.468,6.929
Fri Nov 22 19:34:58 2024,340,-19.131,-19.131,4.242,4.242,1.235,2.602,23.002,12.175,5.774,13.886,13.061,-2.744,13.245,8.740,15.894,2.561,6.988
Fri Nov 22 19:34:58 2024,345,-19.089,-19.089,4.276,4.276,1.239,2.559,23.018,12.138,5.739,13.941,13.004,-2.738,13.305,8.719,15.869,2.646,7.041
Fri Nov 22 19:34:58 2024,350,-19.038,-19.038,4.300,4.300,1.262,2.533,22.940,12.118,5.746,13.916,13.025,-2.782,13.245,8.706,15.794,2.701,6.979
Fri Nov 22 19:34:58 2024,355,-18.996,-18.996,4.319,4.319,1.281,2.511,22.877,12.101,5.752,13.897,13.043,-2.818,13.195,8.696,15.731,2.747,6.927
Fri Nov 22 19:34:58 2024,360,-18.973,-18.973,4.352,4.352,1.294,2.504,22.863,12.054,5.740,13.926,13.036,-2.836,13.242,8.698,15.706,2.782,6.895
Fri Nov 22 19:34:58 2024,365,-18.968,-18.968,4.392,4.392,1.300,2.510,22.891,11.988,5.715,13.990,13.010,-2.837,13.361,8.712,15.715,2.802,6.885
Fri Nov 22 19:34:58 2024,370,-18.962,-18.962,4.423,4.423,1.306,2.513,22.907,11.939,5.697,14.035,12.991,-2.839,13.445,8.721,15.718,2.819,6.873
Fri Nov 22 19:34:58 2024,375,-18.880,-18.880,4.442,4.442,1.305,2.470,22.792,11.747,5.710,14.023,12.907,-2.858,13.399,8.645,15.646,2.888,6.781
Fri Nov 22 19:34:58 2024,380,-18.832,-18.832,4.457,4.457,1.305,2.446,22.731,11.631,5.716,14.023,12.856,-2.869,13.386,8.604,15.606,2.930,6.727
Fri Nov 22 19:34:58 2024,385,-18.866,-18.866,4.460,4.460,1.305,2.379,22.668,11.645,5.692,14.083,12.935,-2.870,13.434,8.645,15.604,2.962,6.754
Fri Nov 22 19:34:58 2024,390,-18.908,-18.908,4.460,4.460,1.304,2.319,22.618,11.682,5.669,14.140,13.024,-2.868,13.482,8.693,15.612,2.985,6.790
Fri Nov 22 19:34:58 2024,395,-18.925,-18.925,4.466,4.466,1.304,2.295,22.600,11.688,5.663,14.166,13.067,-2.870,13.504,8.706,15.616,3.000,6.802
Fri Nov 22 19:34:58 2024,400,-18.886,-18.886,4.490,4.490,1.306,2.356,22.655,11.615,5.698,14.125,13.010,-2.881,13.458,8.633,15.615,2.998,6.755
Fri Nov 22 19:34:58 2024,405,-18.863,-18.863,4.506,4.506,1.307,2.389,22.686,11.571,5.720,14.104,12.982,-2.888,13.434,8.589,15.615,2.999,6.727
Fri Nov 22 19:34:58 2024,410,-18.876,-18.876,4.466,4.466,1.292,2.384,22.684,11.636,5.716,14.105,13.066,-2.854,13.446,8.653,15.587,3.022,6.742
Fri Nov 22 19:34:58 2024,415,-18.887,-18.887,4.433,4.433,1.280,2.382,22.682,11.688,5.712,14.106,13.135,-2.825,13.458,8.705,15.563,3.043,6.754
Fri Nov 22 19:34:58 2024,420,-18.881,-18.881,4.452,4.452,1.292,2.357,22.681,11.681,5.657,14.158,13.129,-2.815,13.522,8.735,15.532,3.087,6.784
Fri Nov 22 19:34:58 2024,425,-18.871,-18.871,4.485,4.485,1.311,2.328,22.682,11.654,5.596,14.216,13.100,-2.813,13.590,8.752,15.503,3.132,6.814
Fri Nov 22 19:34:58 2024,430,-18.864,-18.864,4.512,4.512,1.326,2.304,22.684,11.633,5.547,14.264,13.076,-2.812,13.645,8.766,15.481,3.167,6.838
Fri Nov 22 19:34:58 2024,435,-18.838,-18.838,4.368,4.368,1.265,2.378,22.688,11.676,5.569,14.209,13.161,-2.799,13.593,8.819,15.566,3.067,6.851
Fri Nov 22 19:34:58 2024,440,-18.818,-18.818,4.268,4.268,1.226,2.428,22.695,11.703,5.576,14.176,13.219,-2.790,13.565,8.860,15.623,3.001,6.864
Fri Nov 22 19:34:58 2024,445,-18.827,-18.827,4.281,4.281,1.229,2.384,22.639,11.655,5.562,14.206,13.212,-2.808,13.577,8.851,15.583,3.064,6.884
Fri Nov 22 19:34:58 2024,450,-18.838,-18.838,4.304,4.304,1.236,2.331,22.571,11.598,5.545,14.243,13.200,-2.831,13.594,8.839,15.531,3.141,6.906
Fri Nov 22 19:34:58 2024,455,-18.840,-18.840,4.328,4.328,1.226,2.294,22.563,11.545,5.547,14.275,13.194,-2.829,13.655,8.830,15.500,3.207,6.909
Fri Nov 22 19:34:58 2024,460,-18.834,-18.834,4.349,4.349,1.205,2.276,22.600,11.508,5.561,14.294,13.194,-2.810,13.734,8.825,15.490,3.250,6.898
Fri Nov 22 19:34:58 2024,465,-18.827,-18.827,4.373,4.373,1.184,2.256,22.648,11.466,5.578,14.312,13.193,-2.788,13.824,8.820,15.478,3.299,6.885
Fri Nov 22 19:34:58 2024,470,-18.814,-18.814,4.404,4.404,1.210,2.286,22.633,11.414,5.596,14.298,13.174,-2.815,13.780,8.797,15.413,3.336,6.843
Fri Nov 22 19:34:58 2024,475,-18.801,-18.801,4.435,4.435,1.233,2.313,22.626,11.361,5.616,14.287,13.155,-2.839,13.748,8.776,15.351,3.376,6.802
Fri Nov 22 19:34:58 2024,480,-18.758,-18.758,4.469,4.469,1.239,2.344,22.603,11.198,5.650,14.255,13.088,-2.834,13.724,8.715,15.262,3.409,6.671
Fri Nov 22 19:34:58 2024,485,-18.716,-18.716,4.495,4.495,1.238,2.369,22.584,11.038,5.682,14.225,13.021,-2.821,13.709,8.655,15.186,3.429,6.542
Fri Nov 22 19:34:58 2024,490,-18.682,-18.682,4.516,4.516,1.237,2.389,22.572,10.912,5.706,14.202,12.968,-2.811,13.696,8.609,15.125,3.444,6.440
Fri Nov 22 19:34:58 2024,495,-18.655,-18.655,4.396,4.396,1.183,2.286,22.456,10.930,5.642,14.270,13.003,-2.861,13.704,8.646,15.147,3.502,6.529
Fri Nov 22 19:34:58 2024,500,-18.632,-18.632,4.319,4.319,1.150,2.220,22.377,10.921,5.602,14.312,13.017,-2.892,13.706,8.663,15.152,3.542,6.572
Fri Nov 22 19:34:58 2024,505,-18.639,-18.639,4.405,4.405,1.188,2.218,22.360,10.850,5.622,14.282,12.961,-2.892,13.641,8.636,15.117,3.565,6.566
Fri Nov 22 19:34:58 2024,510,-18.647,-18.647,4.502,4.502,1.232,2.220,22.348,10.774,5.645,14.247,12.900,-2.890,13.572,8.606,15.079,3.587,6.558
Fri Nov 22 19:34:58 2024,515,-18.655,-18.655,4.587,4.587,1.274,2.221,22.338,10.708,5.665,14.216,12.847,-2.887,13.512,8.580,15.045,3.606,6.550
Fri Nov 22 19:34:58 2024,520,-18.657,-18.657,4.488,4.488,1.199,2.208,22.334,10.648,5.675,14.231,12.781,-2.892,13.564,8.533,15.058,3.635,6.506
Fri Nov 22 19:34:58 2024,525,-18.663,-18.663,4.456,4.456,1.174,2.207,22.338,10.609,5.687,14.229,12.744,-2.888,13.564,8.497,15.050,3.648,6.464
Fri Nov 22 19:34:58 2024,530,-18.681,-18.681,4.420,4.420,1.160,2.236,22.372,10.590,5.715,14.211,12.742,-2.860,13.504,8.439,15.015,3.640,6.344
Fri Nov 22 19:34:58 2024,535,-18.700,-18.700,4.388,4.388,1.149,2.268,22.409,10.576,5.744,14.191,12.745,-2.828,13.436,8.379,14.975,3.628,6.220
Fri Nov 22 19:34:58 2024,540,-18.704,-18.704,4.410,4.410,1.152,2.268,22.381,10.528,5.749,14.175,12.669,-2.767,13.378,8.319,14.979,3.593,6.163
Fri Nov 22 19:34:58 2024,545,-18.703,-18.703,4.442,4.442,1.158,2.259,22.344,10.484,5.745,14.165,12.590,-2.715,13.341,8.276,14.994,3.561,6.144
Fri Nov 22 19:34:58 2024,550,-18.700,-18.700,4.478,4.478,1.165,2.249,19.551,10.433,5.740,14.151,12.500,-2.656,13.297,8.226,15.011,3.525,6.122
Fri Nov 22 19:34:58 2024,555,-18.709,-18.709,4.513,4.513,1.163,2.263,17.681,10.406,5.688,14.206,12.546,-2.705,13.373,8.265,14.965,3.561,6.104
Fri Nov 22 19:34:58 2024,560,-18.714,-18.714,4.539,4.539,1.163,2.270,17.679,10.382,5.656,14.237,12.561,-2.728,13.414,8.281,14.938,3.578,6.090
Fri Nov 22 19:34:58 2024,565,-18.737,-18.737,4.554,4.554,1.172,2.264,20.777,10.336,5.653,14.236,12.528,-2.729,13.340,8.248,14.924,3.605,6.110
Fri Nov 22 19:34:58 2024,570,-18.760,-18.760,4.565,4.565,1.183,2.256,22.331,10.293,5.656,14.228,12.491,-2.726,13.256,8.211,14.915,3.629,6.134
Fri Nov 22 19:34:58 2024,575,-18.764,-18.764,4.593,4.593,1.190,2.224,22.300,10.236,5.651,14.232,12.460,-2.751,13.153,8.168,14.890,3.654,6.110
Fri Nov 22 19:34:58 2024,580,-18.735,-18.735,4.645,4.645,1.188,2.157,17.792,10.170,5.632,14.254,12.446,-2.822,13.043,8.125,14.840,3.670,6.002
Fri Nov 22 19:34:58 2024,585,-18.711,-18.711,4.693,4.693,1.187,2.094,17.873,10.104,5.615,14.274,12.430,-2.887,12.930,8.080,14.795,3.689,5.906
Fri Nov 22 19:34:58 2024,590,-18.742,-18.742,4.686,4.686,1.192,2.092,17.874,10.119,5.673,14.237,12.450,-2.880,12.942,8.077,14.764,3.687,5.837
Fri Nov 22 19:34:58 2024,595,-18.767,-18.767,4.684,4.684,1.195,2.084,17.883,10.126,5.722,14.205,12.466,-2.881,12.942,8.071,14.733,3.688,5.769
Fri Nov 22 19:34:58 2024,600,-18.762,-18.762,4.649,4.649,1.178,2.039,17.941,10.058,5.734,14.192,12.422,-2.898,12.810,7.967,14.668,3.726,5.683
Fri Nov 22 19:34:58 2024,605,-18.748,-18.748,4.611,4.611,1.159,1.993,18.000,9.980,5.730,14.191,12.366,-2.917,12.665,7.855,14.607,3.767,5.612
Fri Nov 22 19:34:58 2024,610,-18.734,-18.734,4.577,4.577,1.142,1.950,18.048,9.910,5.727,14.189,12.316,-2.934,12.534,7.754,14.552,3.804,5.548
Fri Nov 22 19:34:58 2024,615,-18.686,-18.686,4.575,4.575,1.145,1.996,17.995,9.879,5.718,14.186,12.254,-2.914,12.625,7.813,14.631,3.708,5.573
Fri Nov 22 19:34:58 2024,620,-18.658,-18.658,4.570,4.570,1.144,2.015,17.970,9.854,5.713,14.184,12.216,-2.904,12.658,7.834,14.667,3.662,5.578
Fri Nov 22 19:34:58 2024,625,-18.645,-18.645,4.566,4.566,1.138,2.009,17.975,9.882,5.639,14.254,12.263,-2.897,12.702,7.858,14.689,3.657,5.581
Fri Nov 22 19:34:58 2024,630,-18.638,-18.638,4.563,4.563,1.133,2.000,17.982,9.910,5.574,14.316,12.311,-2.891,12.734,7.876,14.704,3.660,5.583
Fri Nov 22 19:34:58 2024,635,-18.613,-18.613,4.544,4.544,1.136,1.997,17.980,9.961,5.525,14.361,12.355,-2.891,12.778,7.916,14.688,3.674,5.599
Fri Nov 22 19:34:58 2024,640,-18.573,-18.573,4.506,4.506,1.148,1.998,17.964,10.034,5.497,14.384,12.394,-2.896,12.834,7.977,14.640,3.698,5.632
Fri Nov 22 19:34:58 2024,645,-18.542,-18.542,4.476,4.476,1.159,1.999,21.235,10.090,5.475,14.402,12.423,-2.900,12.877,8.024,14.604,3.716,5.656
Fri Nov 22 19:34:58 2024,650,-18.575,-18.575,4.535,4.535,1.164,1.994,17.966,10.097,5.505,14.382,12.425,-2.901,12.902,8.041,14.664,3.671,5.696
Fri Nov 22 19:34:58 2024,655,-18.597,-18.597,4.577,4.577,1.169,1.990,17.976,10.105,5.526,14.367,12.428,-2.902,12.924,8.056,14.707,3.639,5.725
Fri Nov 22 19:34:58 2024,660,-18.623,-18.623,4.594,4.594,1.168,1.968,18.006,10.114,5.517,14.381,12.442,-2.918,12.925,8.068,14.736,3.614,5.743
Fri Nov 22 19:34:58 2024,665,-18.648,-18.648,4.567,4.567,1.158,1.922,18.058,10.125,5.462,14.437,12.471,-2.955,12.898,8.074,14.737,3.607,5.738
Fri Nov 22 19:34:58 2024,670,-18.671,-18.671,4.556,4.556,1.154,1.896,18.092,10.105,5.442,14.460,12.496,-2.985,12.872,8.082,14.754,3.596,5.750
Fri Nov 22 19:34:58 2024,675,-18.683,-18.683,4.550,4.550,1.154,1.894,18.098,10.051,5.458,14.449,12.512,-3.005,12.846,8.088,14.777,3.589,5.772
Fri Nov 22 19:34:58 2024,680,-18.696,-18.696,4.545,4.545,1.154,1.894,18.103,9.983,5.480,14.433,12.533,-3.029,12.814,8.095,14.805,3.580,5.800
Fri Nov 22 19:34:58 2024,685,-18.717,-18.717,4.566,4.566,1.156,1.875,18.121,9.975,5.482,14.435,12.522,-3.042,12.812,8.085,14.785,3.582,5.777
Fri Nov 22 19:34:58 2024,690,-18.751,-18.751,4.618,4.618,1.161,1.836,18.156,10.012,5.471,14.452,12.480,-3.048,12.834,8.057,14.720,3.591,5.702
Fri Nov 22 19:34:58 2024,695,-18.776,-18.776,4.654,4.654,1.165,1.809,18.180,10.027,5.466,14.461,12.455,-3.057,12.844,8.039,14.678,3.595,5.655
Fri Nov 22 19:34:58 2024,700,-18.761,-18.761,4.604,4.604,1.174,1.862,18.135,9.970,5.516,14.391,12.459,-3.029,12.745,8.050,14.727,3.604,5.733
Fri Nov 22 19:34:58 2024,705,-18.758,-18.758,4.580,4.580,1.181,1.890,18.109,9.936,5.550,14.344,12.454,-3.013,12.678,8.052,14.748,3.610,5.772
Fri Nov 22 19:34:58 2024,710,-18.813,-18.813,4.622,4.622,1.179,1.906,18.094,9.910,5.502,14.395,12.425,-3.064,12.567,7.974,14.699,3.598,5.686
Fri Nov 22 19:34:58 2024,715,-18.851,-18.851,4.649,4.649,1.178,1.919,18.080,9.890,5.473,14.426,12.403,-3.097,12.484,7.919,14.666,3.589,5.630
Fri Nov 22 19:34:58 2024,720,-18.888,-18.888,4.675,4.675,1.178,1.932,18.067,9.870,5.443,14.457,12.382,-3.131,12.403,7.866,14.635,3.579,5.575
Fri Nov 22 19:34:58 2024,725,-18.881,-18.881,4.699,4.699,1.204,1.963,18.037,9.819,5.490,14.397,12.328,-3.071,12.420,7.876,14.653,3.616,5.663
Fri Nov 22 19:34:58 2024,730,-18.890,-18.890,4.722,4.722,1.220,1.985,18.015,9.782,5.506,14.374,12.289,-3.049,12.400,7.863,14.651,3.633,5.694
Fri Nov 22 19:34:58 2024,735,-18.865,-18.865,4.681,4.681,1.188,1.988,18.010,9.830,5.458,14.418,12.282,-3.010,12.544,7.868,14.721,3.537,5.634
Fri Nov 22 19:34:58 2024,740,-18.851,-18.851,4.661,4.661,1.173,1.993,18.004,9.852,5.433,14.440,12.273,-2.983,12.627,7.869,14.763,3.483,5.603
Fri Nov 22 19:34:58 2024,745,-18.834,-18.834,4.649,4.649,1.185,1.993,18.004,9.893,5.408,14.451,12.256,-3.005,12.624,7.906,14.745,3.512,5.643
Fri Nov 22 19:34:58 2024,750,-18.818,-18.818,4.638,4.638,1.198,1.993,18.004,9.933,5.384,14.460,12.239,-3.026,12.619,7.942,14.726,3.542,5.682
Fri Nov 22 19:34:58 2024,755,-18.809,-18.809,4.642,4.642,1.204,1.961,18.038,9.916,5.382,14.464,12.238,-3.049,12.572,7.944,14.711,3.556,5.687
Fri Nov 22 19:34:58 2024,760,-18.805,-18.805,4.656,4.656,1.205,1.912,18.089,9.862,5.392,14.466,12.247,-3.068,12.509,7.920,14.705,3.551,5.663
Fri Nov 22 19:34:58 2024,765,-18.801,-18.801,4.669,4.669,1.206,1.858,18.140,9.804,5.404,14.468,12.258,-3.088,12.441,7.893,14.699,3.546,5.638
Fri Nov 22 19:34:58 2024,770,-18.804,-18.804,4.661,4.661,1.197,1.884,18.117,9.859,5.405,14.441,12.234,-3.069,12.389,7.909,14.692,3.534,5.649
Fri Nov 22 19:34:58 2024,775,-18.806,-18.806,4.656,4.656,1.191,1.897,18.103,9.896,5.407,14.418,12.217,-3.057,12.342,7.918,14.685,3.524,5.655
Fri Nov 22 19:34:58 2024,780,-18.819,-18.819,4.694,4.694,1.208,1.894,18.106,9.877,5.437,14.394,12.212,-3.072,12.328,7.914,14.716,3.510,5.679
Fri Nov 22 19:34:58 2024,785,-18.836,-18.836,4.744,4.744,1.233,1.885,18.114,9.837,5.476,14.373,12.214,-3.098,12.333,7.905,14.757,3.496,5.708
Fri Nov 22 19:34:58 2024,790,-18.843,-18.843,4.754,4.754,1.242,1.878,18.119,9.820,5.488,14.369,12.211,-3.103,12.381,7.913,14.770,3.491,5.712
Fri Nov 22 19:34:58 2024,795,-18.838,-18.838,4.721,4.721,1.233,1.875,18.120,9.830,5.470,14.386,12.204,-3.085,12.472,7.938,14.750,3.497,5.689
Fri Nov 22 19:34:58 2024,800,-18.834,-18.834,4.689,4.689,1.224,1.871,18.121,9.839,5.452,14.401,12.197,-3.067,12.558,7.962,14.732,3.502,5.667
Fri Nov 22 19:34:58 2024,805,-18.824,-18.824,4.674,4.674,1.217,1.920,18.074,9.884,5.474,14.378,12.246,-3.050,12.570,7.984,14.742,3.489,5.665
Fri Nov 22 19:34:58 2024,810,-18.816,-18.816,4.662,4.662,1.211,1.969,18.028,9.926,5.496,14.354,12.294,-3.036,12.573,8.003,14.754,3.476,5.666
Fri Nov 22 19:34:58 2024,815,-18.807,-18.807,4.651,4.651,1.206,2.015,17.982,9.968,5.518,14.331,12.341,-3.022,12.576,8.022,14.765,3.464,5.666
Fri Nov 22 19:34:58 2024,820,-18.854,-18.854,4.624,4.624,1.203,2.006,17.994,10.053,5.490,14.349,12.369,-3.051,12.521,8.017,14.846,3.371,5.709
Fri Nov 22 19:34:58 2024,825,-18.882,-18.882,4.604,4.604,1.200,2.013,17.985,10.119,5.477,14.355,12.400,-3.067,12.487,8.019,14.901,3.307,5.737
Fri Nov 22 19:34:58 2024,830,-18.904,-18.904,4.538,4.538,1.181,1.995,18.003,10.243,5.401,14.421,12.473,-3.060,12.595,8.104,14.935,3.312,5.801
Fri Nov 22 19:34:58 2024,835,-18.924,-18.924,4.485,4.485,1.165,1.980,18.016,10.344,5.340,14.473,12.532,-3.056,12.676,8.171,14.965,3.311,5.854
Fri Nov 22 19:34:58 2024,840,-18.953,-18.953,4.485,4.485,1.175,2.015,17.968,10.436,5.323,14.496,12.600,-3.026,12.772,8.232,14.989,3.282,5.874
Fri Nov 22 19:34:58 2024,845,-18.989,-18.989,4.524,4.524,1.203,2.089,17.863,10.518,5.340,14.494,12.672,-2.976,12.877,8.285,15.010,3.230,5.869
Fri Nov 22 19:34:58 2024,850,-19.008,-19.008,4.536,4.536,1.215,2.126,22.204,10.595,5.345,14.497,12.741,-2.949,12.947,8.328,15.028,3.204,5.875
Fri Nov 22 19:34:58 2024,855,-18.988,-18.988,4.503,4.503,1.193,2.096,22.168,10.653,5.336,14.504,12.801,-2.966,12.937,8.338,15.040,3.229,5.898
Fri Nov 22 19:34:58 2024,860,-18.973,-18.973,4.478,4.478,1.176,2.075,22.143,10.702,5.331,14.509,12.852,-2.978,12.933,8.347,15.050,3.247,5.915
Fri Nov 22 19:34:58 2024,865,-18.938,-18.938,4.450,4.450,1.186,2.105,22.191,10.809,5.324,14.482,12.850,-2.923,13.025,8.423,15.098,3.231,6.007
Fri Nov 22 19:34:58 2024,870,-18.906,-18.906,4.427,4.427,1.197,2.137,22.244,10.908,5.319,14.450,12.842,-2.866,13.116,8.497,15.143,3.213,6.096
Fri Nov 22 19:34:58 2024,875,-18.888,-18.888,4.422,4.422,1.213,2.162,22.286,11.015,5.307,14.436,12.859,-2.837,13.188,8.548,15.169,3.194,6.149
Fri Nov 22 19:34:58 2024,880,-18.911,-18.911,4.467,4.467,1.238,2.167,22.293,11.127,5.276,14.473,12.942,-2.882,13.201,8.528,15.137,3.181,6.096
Fri Nov 22 19:34:58 2024,885,-18.923,-18.923,4.498,4.498,1.262,2.176,22.306,11.232,5.252,14.497,13.005,-2.908,13.226,8.526,15.120,3.168,6.070
Fri Nov 22 19:34:58 2024,890,-18.958,-18.958,4.431,4.431,1.213,2.147,22.328,11.206,5.291,14.518,13.060,-2.909,13.261,8.530,15.188,3.152,6.114
Fri Nov 22 19:34:58 2024,895,-18.986,-18.986,4.382,4.382,1.180,2.127,22.350,11.195,5.319,14.531,13.107,-2.912,13.290,8.533,15.239,3.139,6.145
Fri Nov 22 19:34:58 2024,900,-18.991,-18.991,4.352,4.352,1.174,2.112,22.357,11.242,5.302,14.558,13.170,-2.928,13.326,8.578,15.249,3.134,6.178
Fri Nov 22 19:34:58 2024,905,-18.964,-18.964,4.343,4.343,1.203,2.101,22.335,11.391,5.213,14.616,13.275,-2.970,13.383,8.696,15.204,3.142,6.219
Fri Nov 22 19:34:58 2024,910,-18.950,-18.950,4.331,4.331,1.220,2.092,22.324,11.489,5.158,14.656,13.350,-2.998,13.424,8.774,15.179,3.146,6.252
Fri Nov 22 19:34:58 2024,915,-18.969,-18.969,4.363,4.363,1.233,2.125,22.468,11.642,5.163,14.658,13.303,-2.916,13.564,8.733,15.271,3.103,6.290
Fri Nov 22 19:34:58 2024,920,-18.979,-18.979,4.382,4.382,1.244,2.142,22.560,11.748,5.157,14.664,13.285,-2.871,13.653,8.720,15.322,3.078,6.318
Fri Nov 22 19:34:58 2024,925,-18.998,-18.998,4.374,4.374,1.240,2.155,22.608,11.831,5.177,14.643,13.287,-2.852,13.654,8.686,15.355,3.064,6.338
Fri Nov 22 19:34:58 2024,930,-19.030,-19.030,4.335,4.335,1.218,2.160,22.595,11.887,5.230,14.587,13.311,-2.866,13.540,8.627,15.367,3.063,6.350
Fri Nov 22 19:34:58 2024,935,-19.051,-19.051,4.315,4.315,1.207,2.166,22.606,11.940,5.259,14.555,13.321,-2.866,13.491,8.591,15.384,3.058,6.362
Fri Nov 22 19:34:58 2024,940,-19.025,-19.025,4.320,4.320,1.250,2.204,22.684,12.078,5.270,14.514,13.419,-2.904,13.495,8.724,15.297,3.142,6.498
Fri Nov 22 19:34:58 2024,945,-19.016,-19.016,4.317,4.317,1.270,2.225,22.728,12.164,5.283,14.483,13.472,-2.925,13.486,8.785,15.255,3.186,6.572
Fri Nov 22 19:34:58 2024,950,-19.040,-19.040,4.338,4.338,1.272,2.197,22.717,12.131,5.300,14.506,13.476,-2.888,13.472,8.699,15.259,3.148,6.468
Fri Nov 22 19:34:58 2024,955,-19.062,-19.062,4.357,4.357,1.276,2.174,22.712,12.108,5.316,14.522,13.483,-2.856,13.460,8.627,15.259,3.117,6.382
Fri Nov 22 19:34:58 2024,960,-19.050,-19.050,4.361,4.361,1.281,2.186,22.746,12.154,5.324,14.525,13.513,-2.855,13.470,8.626,15.285,3.114,6.403
Fri Nov 22 19:34:58 2024,965,-19.030,-19.030,4.362,4.362,1.287,2.205,22.785,12.210,5.329,14.525,13.543,-2.862,13.484,8.645,15.314,3.120,6.449
Fri Nov 22 19:34:58 2024,970,-19.009,-19.009,4.362,4.362,1.293,2.226,22.827,12.271,5.334,14.525,13.576,-2.870,13.499,8.665,15.345,3.125,6.500
Fri Nov 22 19:34:58 2024,975,-19.018,-19.018,4.408,4.408,1.322,2.252,22.826,12.262,5.346,14.492,13.544,-2.854,13.462,8.658,15.320,3.105,6.475
Fri Nov 22 19:34:58 2024,980,-19.020,-19.020,4.441,4.441,1.346,2.275,22.834,12.267,5.356,14.468,13.528,-2.842,13.437,8.657,15.307,3.091,6.467
Fri Nov 22 19:34:58 2024,985,-18.983,-18.983,4.411,4.411,1.332,2.294,22.841,12.233,5.359,14.453,13.471,-2.819,13.469,8.647,15.324,3.068,6.471
Fri Nov 22 19:34:58 2024,990,-18.937,-18.937,4.374,4.374,1.317,2.318,22.850,12.192,5.362,14.434,13.400,-2.790,13.508,8.635,15.345,3.039,6.476
Fri Nov 22 19:34:58 2024,995,-18.926,-18.926,4.359,4.359,1.313,2.339,22.881,12.193,5.397,14.411,13.412,-2.752,13.568,8.653,15.357,3.069,6.508
Fri Nov 22 19:34:59 2024,0,-18.932,-18.932,4.358,4.358,1.316,2.355,22.916,12.211,5.438,14.390,13.458,-2.717,13.624,8.681,15.363,3.117,6.545
Fri Nov 22 19:34:59 2024,5,-18.940,-18.940,4.356,4.356,1.318,2.373,22.955,12.232,5.484,14.364,13.510,-2.678,13.686,8.712,15.369,3.170,6.586
Fri Nov 22 19:34:59 2024,10,-18.914,-18.914,4.358,4.358,1.318,2.298,22.859,12.238,5.432,14.396,13.495,-2.713,13.657,8.748,15.414,3.112,6.633
Fri Nov 22 19:34:59 2024,15,-18.894,-18.894,4.361,4.361,1.318,2.239,22.786,12.245,5.395,14.418,13.487,-2.738,13.640,8.780,15.451,3.070,6.673
Fri Nov 22 19:34:59 2024,20,-18.906,-18.906,4.401,4.401,1.336,2.266,22.802,12.190,5.426,14.394,13.490,-2.725,13.621,8.780,15.466,3.050,6.665
Fri Nov 22 19:34:59 2024,25,-18.929,-18.929,4.456,4.456,1.362,2.321,22.849,12.111,5.479,14.354,13.498,-2.698,13.601,8.770,15.475,3.035,6.641
Fri Nov 22 19:34:59 2024,30,-18.949,-18.949,4.505,4.505,1.385,2.371,22.891,12.041,5.528,14.318,13.505,-2.674,13.582,8.762,15.483,3.021,6.619
Fri Nov 22 19:34:59 2024,35,-18.950,-18.950,4.472,4.472,1.379,2.304,22.823,12.084,5.444,14.386,13.478,-2.729,13.585,8.730,15.431,3.055,6.590
Fri Nov 22 19:34:59 2024,40,-18.955,-18.955,4.459,4.459,1.379,2.268,22.785,12.099,5.396,14.425,13.461,-2.762,13.583,8.707,15.397,3.075,6.567
Fri Nov 22 19:34:59 2024,45,-18.958,-18.958,4.458,4.458,1.364,2.274,22.820,12.086,5.415,14.441,13.495,-2.738,13.627,8.726,15.422,3.065,6.605
Fri Nov 22 19:34:59 2024,50,-18.962,-18.962,4.457,4.457,1.346,2.283,22.863,12.070,5.439,14.456,13.535,-2.710,13.679,8.750,15.454,3.053,6.652
Fri Nov 22 19:34:59 2024,55,-18.955,-18.955,4.460,4.460,1.355,2.254,22.835,12.085,5.436,14.457,13.568,-2.713,13.684,8.794,15.454,3.068,6.694
Fri Nov 22 19:34:59 2024,60,-18.945,-18.945,4.465,4.465,1.371,2.218,22.786,12.109,5.425,14.454,13.591,-2.728,13.671,8.837,15.442,3.090,6.726
Fri Nov 22 19:34:59 2024,65,-18.934,-18.934,4.471,4.471,1.391,2.176,22.730,12.136,5.413,14.449,13.618,-2.746,13.655,8.887,15.429,3.116,6.763
Fri Nov 22 19:34:59 2024,70,-18.929,-18.929,4.522,4.522,1.395,2.187,22.793,12.113,5.416,14.462,13.547,-2.751,13.676,8.825,15.400,3.144,6.744
Fri Nov 22 19:34:59 2024,75,-18.926,-18.926,4.555,4.555,1.399,2.193,22.832,12.099,5.417,14.469,13.502,-2.755,13.689,8.787,15.381,3.162,6.733
Fri Nov 22 19:34:59 2024,80,-18.933,-18.933,4.538,4.538,1.402,2.227,22.864,12.118,5.402,14.478,13.517,-2.769,13.675,8.784,15.377,3.155,6.727
Fri Nov 22 19:34:59 2024,85,-18.942,-18.942,4.503,4.503,1.404,2.263,22.884,12.146,5.384,14.485,13.555,-2.783,13.653,8.798,15.381,3.138,6.724
Fri Nov 22 19:34:59 2024,90,-18.930,-18.930,4.480,4.480,1.398,2.290,22.893,12.163,5.386,14.475,13.583,-2.790,13.650,8.820,15.374,3.131,6.714
Fri Nov 22 19:34:59 2024,95,-18.899,-18.899,4.482,4.482,1.386,2.294,22.886,12.160,5.408,14.452,13.589,-2.785,13.667,8.842,15.358,3.136,6.702
Fri Nov 22 19:34:59 2024,100,-18.863,-18.863,4.483,4.483,1.371,2.299,22.878,12.157,5.434,14.425,13.595,-2.780,13.689,8.867,15.338,3.142,6.687
Fri Nov 22 19:34:59 2024,105,-18.871,-18.871,4.478,4.478,1.376,2.291,22.865,12.181,5.445,14.400,13.540,-2.772,13.724,8.856,15.350,3.120,6.665
Fri Nov 22 19:34:59 2024,110,-18.886,-18.886,4.473,4.473,1.383,2.282,22.851,12.207,5.454,14.377,13.479,-2.764,13.758,8.840,15.366,3.096,6.644
Fri Nov 22 19:34:59 2024,115,-18.905,-18.905,4.508,4.508,1.409,2.305,22.884,12.225,5.462,14.358,13.455,-2.743,13.778,8.858,15.396,3.063,6.647
Fri Nov 22 19:34:59 2024,120,-18.923,-18.923,4.557,4.557,1.439,2.339,22.931,12.236,5.469,14.344,13.448,-2.719,13.789,8.888,15.428,3.030,6.660
Fri Nov 22 19:34:59 2024,125,-18.946,-18.946,4.616,4.616,1.477,2.379,22.989,12.250,5.477,14.327,13.440,-2.689,13.804,8.925,15.466,2.991,6.674
Fri Nov 22 19:34:59 2024,130,-18.932,-18.932,4.482,4.482,1.396,2.383,23.036,12.232,5.515,14.346,13.535,-2.670,13.852,8.932,15.453,3.068,6.755
Fri Nov 22 19:34:59 2024,135,-18.923,-18.923,4.382,4.382,1.336,2.389,23.081,12.220,5.546,14.354,13.611,-2.651,13.893,8.942,15.446,3.126,6.821
Fri Nov 22 19:34:59 2024,140,-18.928,-18.928,4.397,4.397,1.348,2.378,23.082,12.195,5.546,14.351,13.589,-2.652,13.897,8.914,15.445,3.156,6.823
Fri Nov 22 19:34:59 2024,145,-18.937,-18.937,4.445,4.445,1.380,2.364,23.069,12.169,5.538,14.347,13.541,-2.658,13.889,8.878,15.446,3.174,6.806
Fri Nov 22 19:34:59 2024,150,-18.947,-18.947,4.496,4.496,1.414,2.349,23.056,12.142,5.529,14.341,13.491,-2.664,13.880,8.841,15.446,3.192,6.788
Fri Nov 22 19:34:59 2024,155,-18.927,-18.927,4.401,4.401,1.344,2.334,23.017,12.141,5.529,14.351,13.502,-2.659,13.915,8.836,15.393,3.194,6.713
Fri Nov 22 19:34:59 2024,160,-18.916,-18.916,4.346,4.346,1.306,2.321,22.988,12.135,5.528,14.356,13.500,-2.657,13.937,8.825,15.356,3.199,6.659
Fri Nov 22 19:34:59 2024,165,-18.960,-18.960,4.400,4.400,1.344,2.304,22.978,12.168,5.568,14.336,13.572,-2.670,13.912,8.840,15.297,3.266,6.695
Fri Nov 22 19:34:59 2024,170,-19.009,-19.009,4.464,4.464,1.391,2.287,22.971,12.202,5.612,14.310,13.647,-2.684,13.883,8.858,15.241,3.336,6.741
Fri Nov 22 19:34:59 2024,175,-18.999,-18.999,4.469,4.469,1.401,2.280,22.935,12.177,5.613,14.309,13.650,-2.685,13.849,8.855,15.232,3.323,6.736
Fri Nov 22 19:34:59 2024,180,-18.964,-18.964,4.445,4.445,1.391,2.278,22.891,12.127,5.594,14.319,13.620,-2.681,13.816,8.843,15.245,3.274,6.708
Fri Nov 22 19:34:59 2024,185,-18.923,-18.923,4.418,4.418,1.380,2.275,22.839,12.069,5.572,14.329,13.585,-2.676,13.777,8.828,15.260,3.215,6.675
Fri Nov 22 19:34:59 2024,190,-18.939,-18.939,4.447,4.447,1.378,2.247,22.839,12.093,5.573,14.339,13.562,-2.708,13.821,8.823,15.243,3.245,6.652
Fri Nov 22 19:34:59 2024,195,-18.946,-18.946,4.464,4.464,1.376,2.226,22.832,12.104,5.571,14.347,13.540,-2.732,13.849,8.817,15.232,3.260,6.630
Fri Nov 22 19:34:59 2024,200,-18.938,-18.938,4.435,4.435,1.367,2.251,22.846,12.132,5.601,14.314,13.551,-2.719,13.781,8.799,15.219,3.252,6.619
Fri Nov 22 19:34:59 2024,205,-18.925,-18.925,4.392,4.392,1.357,2.290,22.866,12.164,5.641,14.269,13.571,-2.695,13.686,8.778,15.207,3.236,6.612
Fri Nov 22 19:34:59 2024,210,-18.915,-18.915,4.356,4.356,1.349,2.323,22.884,12.192,5.675,14.230,13.588,-2.675,13.603,8.760,15.196,3.222,6.605
Fri Nov 22 19:34:59 2024,215,-18.928,-18.928,4.390,4.390,1.360,2.237,22.836,12.098,5.562,14.337,13.505,-2.762,13.742,8.784,15.158,3.286,6.606
Fri Nov 22 19:34:59 2024,220,-18.933,-18.933,4.401,4.401,1.365,2.198,22.816,12.055,5.509,14.386,13.464,-2.804,13.799,8.794,15.136,3.317,6.605
Fri Nov 22 19:34:59 2024,225,-18.887,-18.887,4.388,4.388,1.360,2.210,22.811,12.020,5.511,14.380,13.427,-2.771,13.896,8.821,15.167,3.293,6.584
Fri Nov 22 19:34:59 2024,230,-18.840,-18.840,4.374,4.374,1.356,2.229,22.810,11.993,5.522,14.364,13.398,-2.731,13.983,8.847,15.202,3.263,6.563
Fri Nov 22 19:34:59 2024,235,-18.801,-18.801,4.370,4.370,1.354,2.242,22.816,11.980,5.536,14.344,13.406,-2.728,13.954,8.838,15.224,3.256,6.565
Fri Nov 22 19:34:59 2024,240,-18.773,-18.773,4.370,4.370,1.356,2.247,22.825,11.976,5.549,14.325,13.430,-2.746,13.870,8.815,15.235,3.263,6.578
Fri Nov 22 19:34:59 2024,245,-18.740,-18.740,4.372,4.372,1.357,2.254,22.836,11.972,5.564,14.301,13.461,-2.768,13.765,8.785,15.249,3.270,6.595
Fri Nov 22 19:34:59 2024,250,-18.766,-18.766,4.402,4.402,1.351,2.198,22.846,11.999,5.535,14.361,13.447,-2.771,13.928,8.796,15.200,3.311,6.579
Fri Nov 22 19:34:59 2024,255,-18.782,-18.782,4.425,4.425,1.346,2.154,22.857,12.020,5.514,14.402,13.439,-2.775,14.043,8.802,15.163,3.344,6.568
Fri Nov 22 19:34:59 2024,260,-18.781,-18.781,4.374,4.374,1.334,2.177,22.868,12.046,5.491,14.415,13.442,-2.777,13.989,8.790,15.167,3.357,6.613
Fri Nov 22 19:34:59 2024,265,-18.778,-18.778,4.307,4.307,1.319,2.212,22.880,12.074,5.466,14.422,13.447,-2.777,13.900,8.774,15.178,3.367,6.670
Fri Nov 22 19:34:59 2024,270,-18.775,-18.775,4.252,4.252,1.307,2.242,22.890,12.098,5.446,14.426,13.451,-2.777,13.828,8.761,15.188,3.375,6.717
Fri Nov 22 19:34:59 2024,275,-18.822,-18.822,4.295,4.295,1.312,2.286,22.983,12.207,5.541,14.349,13.536,-2.743,13.892,8.825,15.234,3.290,6.714
Fri Nov 22 19:34:59 2024,280,-18.856,-18.856,4.315,4.315,1.314,2.324,23.052,12.288,5.604,14.294,13.596,-2.719,13.922,8.867,15.270,3.231,6.722
Fri Nov 22 19:34:59 2024,285,-18.849,-18.849,4.300,4.300,1.308,2.351,23.074,12.241,5.619,14.278,13.567,-2.669,13.942,8.849,15.281,3.218,6.705
Fri Nov 22 19:34:59 2024,290,-18.842,-18.842,4.287,4.287,1.303,2.372,23.090,12.197,5.629,14.267,13.540,-2.629,13.956,8.831,15.290,3.210,6.690
Fri Nov 22 19:34:59 2024,295,-18.858,-18.858,4.285,4.285,1.290,2.386,23.120,12.216,5.647,14.253,13.542,-2.607,13.959,8.824,15.319,3.171,6.681
Fri Nov 22 19:34:59 2024,300,-18.896,-18.896,4.296,4.296,1.270,2.393,23.164,12.295,5.672,14.238,13.572,-2.604,13.950,8.827,15.367,3.103,6.679
Fri Nov 22 19:34:59 2024,305,-18.927,-18.927,4.304,4.304,1.256,2.399,23.198,12.357,5.691,14.225,13.596,-2.601,13.943,8.830,15.405,3.050,6.678
Fri Nov 22 19:34:59 2024,310,-18.948,-18.948,4.310,4.310,1.246,2.402,23.222,12.400,5.704,14.216,13.612,-2.600,13.938,8.832,15.431,3.014,6.677
Fri Nov 22 19:34:59 2024,315,-18.870,-18.870,4.327,4.327,1.278,2.368,23.116,12.153,5.646,14.259,13.451,-2.604,14.011,8.746,15.218,3.154,6.484
Fri Nov 22 19:34:59 2024,320,-18.848,-18.848,4.273,4.273,1.254,2.396,23.130,12.118,5.696,14.216,13.460,-2.580,13.964,8.740,15.265,3.094,6.471
Fri Nov 22 19:34:59 2024,325,-18.831,-18.831,4.202,4.202,1.223,2.436,23.161,12.112,5.766,14.157,13.497,-2.549,13.891,8.748,15.358,3.002,6.493
Fri Nov 22 19:34:59 2024,330,-18.816,-18.816,4.141,4.141,1.199,2.471,23.188,12.108,5.826,14.105,13.529,-2.523,13.828,8.756,15.438,2.923,6.512
Fri Nov 22 19:34:59 2024,335,-18.825,-18.825,4.166,4.166,1.203,2.462,23.173,12.108,5.820,14.107,13.531,-2.536,13.833,8.770,15.442,2.939,6.539
Fri Nov 22 19:34:59 2024,340,-18.854,-18.854,4.270,4.270,1.231,2.416,23.122,12.112,5.760,14.152,13.509,-2.584,13.895,8.794,15.389,3.034,6.582
Fri Nov 22 19:34:59 2024,345,-18.890,-18.890,4.308,4.308,1.270,2.424,23.098,12.177,5.737,14.159,13.536,-2.603,13.837,8.821,15.372,3.025,6.613
Fri Nov 22 19:34:59 2024,350,-18.921,-18.921,4.342,4.342,1.306,2.431,23.078,12.236,5.718,14.164,13.560,-2.619,13.783,8.844,15.356,3.017,6.641
Fri Nov 22 19:34:59 2024,355,-18.953,-18.953,4.376,4.376,1.344,2.437,23.058,12.295,5.698,14.168,13.585,-2.636,13.730,8.868,15.341,3.008,6.668
Fri Nov 22 19:34:59 2024,360,-18.878,-18.878,4.371,4.371,1.325,2.470,23.038,12.137,5.752,14.114,13.397,-2.615,13.786,8.804,15.329,2.997,6.592
Fri Nov 22 19:34:59 2024,365,-18.841,-18.841,4.380,4.380,1.326,2.493,23.021,12.055,5.781,14.080,13.285,-2.608,13.804,8.770,15.317,2.986,6.551
Fri Nov 22 19:34:59 2024,370,-18.853,-18.853,4.327,4.327,1.295,2.481,22.978,12.123,5.767,14.084,13.394,-2.627,13.682,8.788,15.342,2.999,6.621
Fri Nov 22 19:34:59 2024,375,-18.857,-18.857,4.291,4.291,1.273,2.475,22.946,12.161,5.761,14.084,13.457,-2.639,13.600,8.797,15.358,3.007,6.664
Fri Nov 22 19:34:59 2024,380,-18.861,-18.861,4.263,4.263,1.256,2.470,22.922,12.191,5.757,14.083,13.508,-2.649,13.534,8.804,15.371,3.013,6.699
Fri Nov 22 19:34:59 2024,385,-18.814,-18.814,4.392,4.392,1.350,2.521,22.982,12.058,5.789,14.065,13.426,-2.566,13.709,8.826,15.437,2.918,6.648
Fri Nov 22 19:34:59 2024,390,-18.799,-18.799,4.407,4.407,1.356,2.536,22.991,12.038,5.790,14.061,13.408,-2.557,13.721,8.818,15.446,2.891,6.611
Fri Nov 22 19:34:59 2024,395,-18.790,-18.790,4.365,4.365,1.310,2.540,22.983,12.070,5.773,14.065,13.398,-2.590,13.657,8.778,15.411,2.889,6.535
Fri Nov 22 19:34:59 2024,400,-18.783,-18.783,4.325,4.325,1.268,2.543,22.974,12.101,5.757,14.068,13.388,-2.621,13.596,8.739,15.377,2.887,6.463
Fri Nov 22 19:34:59 2024,405,-18.779,-18.779,4.334,4.334,1.286,2.557,22.959,12.027,5.770,14.042,13.367,-2.614,13.544,8.749,15.398,2.897,6.520
Fri Nov 22 19:34:59 2024,410,-18.775,-18.775,4.341,4.341,1.304,2.570,22.943,11.954,5.783,14.015,13.345,-2.607,13.489,8.758,15.417,2.908,6.576
Fri Nov 22 19:34:59 2024,415,-18.796,-18.796,4.357,4.357,1.317,2.553,22.938,11.965,5.767,14.032,13.352,-2.605,13.520,8.766,15.412,2.921,6.586
Fri Nov 22 19:34:59 2024,420,-18.833,-18.833,4.376,4.376,1.321,2.512,22.942,12.042,5.731,14.082,13.381,-2.608,13.616,8.772,15.389,2.933,6.558
Fri Nov 22 19:34:59 2024,425,-18.865,-18.865,4.392,4.392,1.326,2.478,22.948,12.108,5.701,14.123,13.406,-2.610,13.696,8.776,15.369,2.944,6.534
Fri Nov 22 19:34:59 2024,430,-18.892,-18.892,4.407,4.407,1.330,2.449,22.955,12.164,5.675,14.158,13.427,-2.611,13.764,8.780,15.352,2.954,6.513
Fri Nov 22 19:34:59 2024,435,-18.897,-18.897,4.405,4.405,1.302,2.454,23.057,12.213,5.702,14.180,13.467,-2.577,13.844,8.817,15.557,2.887,6.697
Fri Nov 22 19:34:59 2024,440,-18.903,-18.903,4.401,4.401,1.300,2.462,23.043,12.209,5.697,14.181,13.467,-2.585,13.766,8.778,15.537,2.876,6.664
Fri Nov 22 19:34:59 2024,445,-18.906,-18.906,4.394,4.394,1.301,2.477,23.007,12.185,5.691,14.172,13.456,-2.601,13.635,8.719,15.478,2.871,6.594
Fri Nov 22 19:34:59 2024,450,-18.908,-18.908,4.388,4.388,1.303,2.489,22.980,12.167,5.686,14.165,13.447,-2.614,13.535,8.674,15.434,2.866,6.542
Fri Nov 22 19:34:59 2024,455,-18.909,-18.909,4.322,4.322,1.282,2.417,22.982,12.224,5.673,14.204,13.512,-2.637,13.615,8.742,15.484,2.898,6.661
Fri Nov 22 19:34:59 2024,460,-18.910,-18.910,4.285,4.285,1.272,2.382,22.979,12.251,5.665,14.223,13.545,-2.652,13.638,8.769,15.502,2.914,6.715
Fri Nov 22 19:34:59 2024,465,-18.952,-18.952,4.318,4.318,1.269,2.366,23.034,12.230,5.670,14.234,13.528,-2.618,13.681,8.755,15.541,2.887,6.700
Fri Nov 22 19:34:59 2024,470,-18.996,-18.996,4.360,4.360,1.269,2.357,23.094,12.204,5.677,14.241,13.503,-2.578,13.722,8.734,15.579,2.856,6.675
Fri Nov 22 19:34:59 2024,475,-19.033,-19.033,4.395,4.395,1.269,2.350,23.148,12.181,5.683,14.245,13.482,-2.545,13.756,8.717,15.611,2.830,6.653
Fri Nov 22 19:34:59 2024,480,-18.952,-18.952,4.347,4.347,1.271,2.348,23.031,12.225,5.696,14.211,13.522,-2.579,13.719,8.759,15.622,2.794,6.702
Fri Nov 22 19:34:59 2024,485,-18.919,-18.919,4.331,4.331,1.271,2.345,22.984,12.242,5.705,14.192,13.538,-2.588,13.710,8.777,15.638,2.766,6.722
Fri Nov 22 19:34:59 2024,490,-18.920,-18.920,4.358,4.358,1.277,2.399,23.081,12.307,5.724,14.170,13.595,-2.556,13.726,8.815,15.636,2.737,6.706
Fri Nov 22 19:34:59 2024,495,-18.920,-18.920,4.378,4.378,1.282,2.442,23.152,12.358,5.740,14.151,13.640,-2.531,13.737,8.846,15.635,2.712,6.696
Fri Nov 22 19:34:59 2024,500,-18.914,-18.914,4.348,4.348,1.268,2.492,23.234,12.381,5.773,14.116,13.608,-2.510,13.739,8.822,15.633,2.708,6.682
Fri Nov 22 19:34:59 2024,505,-18.910,-18.910,4.308,4.308,1.252,2.539,23.312,12.394,5.809,14.080,13.558,-2.492,13.738,8.786,15.631,2.709,6.668
Fri Nov 22 19:34:59 2024,510,-18.906,-18.906,4.274,4.274,1.239,2.580,23.380,12.406,5.839,14.050,13.514,-2.475,13.738,8.756,15.628,2.710,6.656
Fri Nov 22 19:34:59 2024,515,-18.872,-18.872,4.293,4.293,1.247,2.596,23.371,12.358,5.820,14.058,13.494,-2.471,13.704,8.756,15.628,2.706,6.631
Fri Nov 22 19:34:59 2024,520,-18.813,-18.813,4.357,4.357,1.273,2.593,23.303,12.263,5.760,14.096,13.489,-2.476,13.641,8.780,15.629,2.695,6.595
Fri Nov 22 19:34:59 2024,525,-18.795,-18.795,4.381,4.381,1.291,2.587,23.315,12.273,5.769,14.089,13.487,-2.471,13.677,8.794,15.656,2.690,6.658
Fri Nov 22 19:34:59 2024,530,-18.781,-18.781,4.403,4.403,1.310,2.579,23.331,12.290,5.783,14.081,13.485,-2.467,13.720,8.809,15.685,2.684,6.727
Fri Nov 22 19:34:59 2024,535,-18.771,-18.771,4.417,4.417,1.322,2.573,23.341,12.302,5.791,14.074,13.484,-2.464,13.748,8.819,15.705,2.681,6.775
Fri Nov 22 19:34:59 2024,540,-18.810,-18.810,4.411,4.411,1.337,2.599,23.281,12.361,5.801,14.066,13.552,-2.509,13.631,8.840,15.653,2.730,6.775
Fri Nov 22 19:34:59 2024,545,-18.829,-18.829,4.411,4.411,1.349,2.611,23.253,12.397,5.809,14.060,13.588,-2.534,13.574,8.855,15.630,2.757,6.789
Fri Nov 22 19:34:59 2024,550,-18.802,-18.802,4.400,4.400,1.311,2.573,23.233,12.340,5.772,14.089,13.494,-2.519,13.713,8.836,15.660,2.692,6.695
Fri Nov 22 19:34:59 2024,555,-18.778,-18.778,4.389,4.389,1.278,2.537,23.210,12.289,5.738,14.117,13.407,-2.508,13.841,8.820,15.685,2.632,6.604
Fri Nov 22 19:34:59 2024,560,-18.761,-18.761,4.381,4.381,1.254,2.512,23.193,12.254,5.713,14.137,13.345,-2.501,13.933,8.809,15.703,2.589,6.540
Fri Nov 22 19:34:59 2024,565,-18.824,-18.824,4.452,4.452,1.339,2.507,23.184,12.344,5.699,14.160,13.528,-2.552,13.730,8.889,15.681,2.710,6.758
Fri Nov 22 19:34:59 2024,570,-18.838,-18.838,4.476,4.476,1.372,2.511,23.184,12.375,5.701,14.157,13.589,-2.564,13.650,8.915,15.686,2.732,6.831
Fri Nov 22 19:34:59 2024,575,-18.790,-18.790,4.442,4.442,1.358,2.577,23.222,12.371,5.774,14.067,13.552,-2.518,13.606,8.878,15.721,2.639,6.778
Fri Nov 22 19:34:59 2024,580,-18.757,-18.757,4.421,4.421,1.351,2.625,23.251,12.372,5.826,14.002,13.531,-2.486,13.565,8.853,15.746,2.573,6.746
Fri Nov 22 19:34:59 2024,585,-18.773,-18.773,4.416,4.416,1.347,2.636,23.284,12.377,5.816,14.019,13.513,-2.483,13.618,8.841,15.710,2.625,6.740
Fri Nov 22 19:34:59 2024,590,-18.819,-18.819,4.422,4.422,1.345,2.625,23.318,12.386,5.767,14.087,13.499,-2.500,13.728,8.837,15.636,2.746,6.750
Fri Nov 22 19:34:59 2024,595,-18.848,-18.848,4.423,4.423,1.342,2.622,23.348,12.392,5.738,14.128,13.486,-2.508,13.804,8.830,15.586,2.826,6.752
Fri Nov 22 19:34:59 2024,600,-18.890,-18.890,4.463,4.463,1.359,2.610,23.340,12.389,5.805,14.057,13.522,-2.473,13.667,8.773,15.687,2.720,6.752
Fri Nov 22 19:34:59 2024,605,-18.928,-18.928,4.478,4.478,1.363,2.591,23.325,12.397,5.811,14.060,13.539,-2.460,13.705,8.795,15.721,2.706,6.776
Fri Nov 22 19:34:59 2024,610,-18.966,-18.966,4.491,4.491,1.366,2.571,23.307,12.407,5.811,14.069,13.556,-2.449,13.761,8.828,15.752,2.696,6.805
Fri Nov 22 19:34:59 2024,615,-19.002,-19.002,4.496,4.496,1.365,2.545,23.276,12.423,5.790,14.103,13.571,-2.444,13.884,8.901,15.770,2.708,6.850
Fri Nov 22 19:34:59 2024,620,-19.014,-19.014,4.498,4.498,1.367,2.547,23.271,12.412,5.784,14.108,13.553,-2.425,13.928,8.923,15.774,2.706,6.857
Fri Nov 22 19:34:59 2024,625,-18.964,-18.964,4.500,4.500,1.374,2.632,23.336,12.319,5.821,14.031,13.434,-2.356,13.766,8.806,15.741,2.664,6.760
Fri Nov 22 19:34:59 2024,630,-18.939,-18.939,4.501,4.501,1.380,2.684,23.374,12.259,5.841,13.983,13.355,-2.308,13.681,8.744,15.723,2.638,6.704
Fri Nov 22 19:34:59 2024,635,-18.949,-18.949,4.503,4.503,1.401,2.611,23.307,12.253,5.864,14.007,13.522,-2.349,13.673,8.831,15.726,2.668,6.792
Fri Nov 22 19:34:59 2024,640,-18.951,-18.951,4.505,4.505,1.415,2.575,23.271,12.238,5.883,14.009,13.612,-2.366,13.653,8.874,15.724,2.681,6.838
Fri Nov 22 19:34:59 2024,645,-18.930,-18.930,4.497,4.497,1.392,2.611,23.303,12.272,5.889,13.999,13.604,-2.384,13.640,8.871,15.713,2.672,6.817
Fri Nov 22 19:34:59 2024,650,-18.910,-18.910,4.488,4.488,1.369,2.649,23.338,12.307,5.892,13.989,13.587,-2.399,13.628,8.862,15.702,2.662,6.792
Fri Nov 22 19:34:59 2024,655,-18.909,-18.909,4.506,4.506,1.371,2.654,23.353,12.344,5.885,13.997,13.587,-2.403,13.625,8.852,15.694,2.655,6.771
Fri Nov 22 19:34:59 2024,660,-18.950,-18.950,4.587,4.587,1.423,2.588,23.330,12.400,5.855,14.046,13.625,-2.382,13.637,8.829,15.690,2.651,6.751
Fri Nov 22 19:34:59 2024,665,-18.977,-18.977,4.644,4.644,1.460,2.546,23.319,12.445,5.834,14.079,13.649,-2.370,13.645,8.812,15.685,2.647,6.734
Fri Nov 22 19:34:59 2024,670,-18.877,-18.877,4.543,4.543,1.413,2.548,23.251,12.335,5.809,14.091,13.601,-2.395,13.576,8.809,15.658,2.722,6.782
Fri Nov 22 19:34:59 2024,675,-18.801,-18.801,4.468,4.468,1.379,2.546,23.198,12.252,5.788,14.103,13.566,-2.414,13.523,8.805,15.637,2.780,6.818
Fri Nov 22 19:34:59 2024,680,-18.754,-18.754,4.437,4.437,1.371,2.532,23.153,12.231,5.773,14.111,13.565,-2.441,13.483,8.808,15.603,2.819,6.845
Fri Nov 22 19:34:59 2024,685,-18.736,-18.736,4.470,4.470,1.404,2.486,23.090,12.313,5.763,14.122,13.630,-2.502,13.444,8.823,15.528,2.848,6.870
Fri Nov 22 19:34:59 2024,690,-18.715,-18.715,4.478,4.478,1.417,2.460,23.048,12.346,5.754,14.130,13.661,-2.538,13.414,8.831,15.482,2.872,6.890
Fri Nov 22 19:34:59 2024,695,-18.742,-18.742,4.440,4.440,1.368,2.461,23.151,12.348,5.772,14.130,13.636,-2.479,13.458,8.798,15.574,2.830,6.854
Fri Nov 22 19:34:59 2024,700,-18.759,-18.759,4.413,4.413,1.333,2.456,23.226,12.356,5.783,14.131,13.622,-2.441,13.485,8.774,15.636,2.802,6.831
Fri Nov 22 19:34:59 2024,705,-18.770,-18.770,4.395,4.395,1.312,2.452,23.277,12.361,5.791,14.131,13.614,-2.416,13.502,8.759,15.677,2.783,6.816
Fri Nov 22 19:34:59 2024,710,-18.746,-18.746,4.408,4.408,1.358,2.490,23.180,12.275,5.800,14.104,13.518,-2.508,13.419,8.718,15.541,2.858,6.800
Fri Nov 22 19:34:59 2024,715,-18.740,-18.740,4.405,4.405,1.370,2.506,23.160,12.238,5.808,14.091,13.470,-2.540,13.389,8.691,15.497,2.883,6.785
Fri Nov 22 19:34:59 2024,720,-18.736,-18.736,4.355,4.355,1.340,2.562,23.227,12.378,5.809,14.073,13.607,-2.484,13.407,8.798,15.579,2.828,6.868
Fri Nov 22 19:34:59 2024,725,-18.731,-18.731,4.324,4.324,1.326,2.601,23.261,12.452,5.812,14.058,13.674,-2.461,13.408,8.853,15.614,2.804,6.913
Fri Nov 22 19:34:59 2024,730,-18.743,-18.743,4.338,4.338,1.345,2.530,23.177,12.396,5.786,14.092,13.708,-2.516,13.415,8.872,15.552,2.871,6.916
Fri Nov 22 19:34:59 2024,735,-18.751,-18.751,4.346,4.346,1.359,2.477,23.114,12.360,5.766,14.116,13.741,-2.557,13.420,8.891,15.508,2.921,6.923
Fri Nov 22 19:34:59 2024,740,-18.788,-18.788,4.372,4.372,1.371,2.469,23.113,12.342,5.749,14.133,13.726,-2.574,13.416,8.877,15.507,2.920,6.909
Fri Nov 22 19:34:59 2024,745,-18.882,-18.882,4.433,4.433,1.377,2.544,23.231,12.359,5.742,14.132,13.619,-2.549,13.394,8.797,15.588,2.822,6.857
Fri Nov 22 19:34:59 2024,750,-18.952,-18.952,4.479,4.479,1.384,2.588,23.304,12.363,5.731,14.137,13.549,-2.539,13.380,8.742,15.638,2.760,6.821
Fri Nov 22 19:34:59 2024,755,-18.908,-18.908,4.421,4.421,1.356,2.574,23.218,12.342,5.772,14.103,13.624,-2.518,13.493,8.822,15.564,2.848,6.856
Fri Nov 22 19:34:59 2024,760,-18.889,-18.889,4.386,4.386,1.338,2.573,23.169,12.326,5.800,14.079,13.666,-2.500,13.574,8.872,15.518,2.900,6.874
Fri Nov 22 19:34:59 2024,765,-18.890,-18.890,4.380,4.380,1.343,2.586,23.153,12.305,5.789,14.078,13.631,-2.508,13.581,8.874,15.488,2.912,6.841
Fri Nov 22 19:34:59 2024,770,-18.903,-18.903,4.388,4.388,1.360,2.605,23.153,12.281,5.760,14.088,13.561,-2.529,13.553,8.854,15.465,2.903,6.784
Fri Nov 22 19:34:59 2024,775,-18.909,-18.909,4.391,4.391,1.371,2.620,23.148,12.262,5.740,14.092,13.511,-2.541,13.540,8.844,15.443,2.902,6.743
Fri Nov 22 19:34:59 2024,780,-18.902,-18.902,4.520,4.520,1.421,2.606,23.141,12.255,5.810,14.071,13.564,-2.516,13.670,8.867,15.440,2.956,6.772
Fri Nov 22 19:34:59 2024,785,-18.898,-18.898,4.603,4.603,1.457,2.601,23.135,12.245,5.847,14.055,13.583,-2.505,13.749,8.878,15.431,2.989,6.778
Fri Nov 22 19:34:59 2024,790,-18.877,-18.877,4.567,4.567,1.441,2.622,23.131,12.209,5.826,14.066,13.572,-2.504,13.773,8.890,15.416,3.002,6.772
Fri Nov 22 19:34:59 2024,795,-18.858,-18.858,4.546,4.546,1.431,2.640,23.128,12.176,5.811,14.073,13.566,-2.501,13.805,8.902,15.401,3.017,6.769
Fri Nov 22 19:34:59 2024,800,-18.829,-18.829,4.558,4.558,1.446,2.648,23.093,12.134,5.780,14.081,13.513,-2.512,13.788,8.880,15.355,3.042,6.748
Fri Nov 22 19:34:59 2024,805,-18.792,-18.792,4.596,4.596,1.480,2.649,23.033,12.083,5.734,14.087,13.424,-2.534,13.733,8.831,15.284,3.075,6.714
Fri Nov 22 19:34:59 2024,810,-18.760,-18.760,4.626,4.626,1.508,2.650,22.988,12.039,5.696,14.088,13.348,-2.553,13.689,8.792,15.224,3.101,6.685
Fri Nov 22 19:34:59 2024,815,-18.768,-18.768,4.636,4.636,1.477,2.660,23.105,12.096,5.742,14.072,13.364,-2.523,13.822,8.853,15.307,3.117,6.743
Fri Nov 22 19:34:59 2024,820,-18.766,-18.766,4.646,4.646,1.465,2.666,23.165,12.119,5.760,14.063,13.359,-2.510,13.887,8.880,15.341,3.129,6.770
Fri Nov 22 19:34:59 2024,825,-18.784,-18.784,4.696,4.696,1.493,2.686,23.195,12.162,5.760,14.058,13.368,-2.528,13.902,8.927,15.323,3.112,6.809
Fri Nov 22 19:34:59 2024,830,-18.798,-18.798,4.738,4.738,1.518,2.704,23.213,12.196,5.756,14.054,13.377,-2.544,13.906,8.966,15.304,3.095,6.840
Fri Nov 22 19:34:59 2024,835,-18.811,-18.811,4.773,4.773,1.539,2.719,23.227,12.224,5.754,14.052,13.385,-2.558,13.909,8.996,15.288,3.081,6.865
Fri Nov 22 19:34:59 2024,840,-18.837,-18.837,4.651,4.651,1.479,2.683,23.120,12.168,5.696,14.103,13.426,-2.649,13.645,8.893,15.198,3.178,6.792
Fri Nov 22 19:34:59 2024,845,-18.856,-18.856,4.588,4.588,1.450,2.666,23.062,12.142,5.662,14.132,13.452,-2.706,13.490,8.840,15.140,3.232,6.756
Fri Nov 22 19:34:59 2024,850,-18.827,-18.827,4.618,4.618,1.461,2.639,23.003,12.087,5.620,14.147,13.330,-2.696,13.557,8.818,15.080,3.266,6.689
Fri Nov 22 19:34:59 2024,855,-18.808,-18.808,4.634,4.634,1.467,2.619,22.958,12.045,5.589,14.159,13.246,-2.692,13.593,8.798,15.031,3.295,6.639
Fri Nov 22 19:34:59 2024,860,-18.784,-18.784,4.640,4.640,1.461,2.582,22.892,11.952,5.546,14.204,13.176,-2.696,13.652,8.783,14.993,3.346,6.611
Fri Nov 22 19:34:59 2024,865,-18.763,-18.763,4.627,4.627,1.437,2.532,22.817,11.814,5.498,14.284,13.151,-2.708,13.725,8.782,14.982,3.416,6.628
Fri Nov 22 19:34:59 2024,870,-18.742,-18.742,4.620,4.620,1.420,2.488,22.750,11.695,5.454,14.348,13.116,-2.717,13.789,8.777,14.965,3.476,6.632
Fri Nov 22 19:34:59 2024,875,-18.784,-18.784,4.650,4.650,1.465,2.545,22.816,11.770,5.539,14.255,13.187,-2.656,13.694,8.820,15.012,3.431,6.704
Fri Nov 22 19:34:59 2024,880,-18.808,-18.808,4.668,4.668,1.493,2.573,22.845,11.795,5.586,14.207,13.228,-2.618,13.642,8.847,15.041,3.414,6.753
Fri Nov 22 19:34:59 2024,885,-18.821,-18.821,4.738,4.738,1.520,2.564,22.791,11.742,5.561,14.224,13.174,-2.627,13.655,8.806,14.969,3.406,6.646
Fri Nov 22 19:34:59 2024,890,-18.831,-18.831,4.796,4.796,1.542,2.556,22.748,11.697,5.539,14.240,13.128,-2.635,13.666,8.771,14.908,3.397,6.556
Fri Nov 22 19:34:59 2024,895,-18.841,-18.841,4.854,4.854,1.563,2.547,22.706,11.652,5.516,14.257,13.081,-2.644,13.678,8.735,14.848,3.387,6.465
Fri Nov 22 19:34:59 2024,900,-18.796,-18.796,4.772,4.772,1.508,2.491,22.653,11.548,5.475,14.286,13.056,-2.763,13.520,8.679,14.902,3.427,6.495
Fri Nov 22 19:34:59 2024,905,-18.771,-18.771,4.740,4.740,1.480,2.453,22.607,11.469,5.443,14.308,13.026,-2.840,13.425,8.634,14.917,3.448,6.487
Fri Nov 22 19:34:59 2024,910,-18.780,-18.780,4.779,4.779,1.518,2.464,22.596,11.504,5.461,14.276,13.064,-2.823,13.375,8.690,14.928,3.417,6.520
Fri Nov 22 19:34:59 2024,915,-18.784,-18.784,4.802,4.802,1.540,2.466,22.584,11.520,5.470,14.257,13.085,-2.820,13.332,8.722,14.937,3.398,6.540
Fri Nov 22 19:34:59 2024,920,-18.788,-18.788,4.810,4.810,1.548,2.466,22.570,11.531,5.475,14.246,13.105,-2.814,13.320,8.760,14.943,3.388,6.571
Fri Nov 22 19:34:59 2024,925,-18.793,-18.793,4.771,4.771,1.507,2.456,22.547,11.533,5.469,14.262,13.119,-2.803,13.413,8.813,14.941,3.407,6.629
Fri Nov 22 19:34:59 2024,930,-18.797,-18.797,4.751,4.751,1.486,2.451,22.531,11.538,5.467,14.267,13.133,-2.796,13.462,8.855,14.943,3.415,6.672
Fri Nov 22 19:34:59 2024,935,-18.774,-18.774,4.772,4.772,1.523,2.541,22.628,11.559,5.509,14.210,13.066,-2.759,13.419,8.799,14.970,3.318,6.597
Fri Nov 22 19:34:59 2024,940,-18.758,-18.758,4.783,4.783,1.546,2.606,22.698,11.576,5.541,14.170,13.020,-2.729,13.398,8.767,14.991,3.246,6.551
Fri Nov 22 19:34:59 2024,945,-18.783,-18.783,4.759,4.759,1.518,2.589,22.691,11.576,5.527,14.180,13.023,-2.710,13.409,8.753,15.036,3.214,6.526
Fri Nov 22 19:34:59 2024,950,-18.804,-18.804,4.740,4.740,1.494,2.573,22.685,11.576,5.516,14.190,13.027,-2.695,13.418,8.743,15.073,3.188,6.506
Fri Nov 22 19:34:59 2024,955,-18.825,-18.825,4.722,4.722,1.486,2.552,22.670,11.588,5.504,14.194,13.032,-2.706,13.399,8.734,15.084,3.190,6.496
Fri Nov 22 19:34:59 2024,960,-18.848,-18.848,4.708,4.708,1.505,2.517,22.639,11.627,5.490,14.189,13.039,-2.769,13.322,8.728,15.046,3.249,6.508
Fri Nov 22 19:34:59 2024,965,-18.869,-18.869,4.695,4.695,1.518,2.487,22.612,11.658,5.478,14.185,13.045,-2.820,13.260,8.722,15.017,3.294,6.515
Fri Nov 22 19:34:59 2024,970,-18.908,-18.908,4.698,4.698,1.516,2.471,22.594,11.618,5.433,14.237,13.056,-2.836,13.277,8.743,15.066,3.311,6.618
Fri Nov 22 19:34:59 2024,975,-18.945,-18.945,4.698,4.698,1.517,2.452,22.575,11.587,5.391,14.284,13.067,-2.858,13.283,8.760,15.105,3.332,6.712
Fri Nov 22 19:34:59 2024,980,-18.950,-18.950,4.690,4.690,1.508,2.432,22.561,11.598,5.387,14.290,13.060,-2.866,13.251,8.735,15.087,3.328,6.689
Fri Nov 22 19:34:59 2024,985,-18.940,-18.940,4.678,4.678,1.494,2.408,22.548,11.628,5.400,14.280,13.045,-2.871,13.198,8.689,15.042,3.311,6.613
Fri Nov 22 19:34:59 2024,990,-18.935,-18.935,4.670,4.670,1.485,2.391,22.538,11.649,5.406,14.276,13.035,-2.875,13.162,8.657,15.014,3.300,6.564
Fri Nov 22 19:34:59 2024,995,-18.974,-18.974,4.636,4.636,1.476,2.375,22.499,11.681,5.370,14.277,13.077,-2.846,13.185,8.720,15.077,3.322,6.681
Fri Nov 22 19:35:00 2024,0,-19.000,-19.000,4.611,4.611,1.467,2.360,22.470,11.707,5.346,14.275,13.104,-2.826,13.193,8.757,15.114,3.334,6.751
Fri Nov 22 19:35:00 2024,5,-19.000,-19.000,4.578,4.578,1.439,2.392,22.524,11.725,5.382,14.244,13.068,-2.816,13.192,8.696,15.121,3.283,6.640
Fri Nov 22 19:35:00 2024,10,-18.992,-18.992,4.553,4.553,1.413,2.429,22.588,11.736,5.426,14.215,13.026,-2.813,13.189,8.624,15.115,3.229,6.508
Fri Nov 22 19:35:00 2024,15,-18.987,-18.987,4.528,4.528,1.389,2.463,22.649,11.747,5.466,14.187,12.986,-2.807,13.188,8.558,15.113,3.177,6.387
Fri Nov 22 19:35:00 2024,20,-18.985,-18.985,4.536,4.536,1.404,2.454,22.632,11.730,5.493,14.165,13.011,-2.742,13.228,8.620,15.121,3.175,6.455
Fri Nov 22 19:35:00 2024,25,-18.982,-18.982,4.534,4.534,1.406,2.459,22.640,11.723,5.521,14.144,13.014,-2.701,13.251,8.636,15.125,3.158,6.460
Fri Nov 22 19:35:00 2024,30,-18.943,-18.943,4.511,4.511,1.380,2.432,22.586,11.689,5.504,14.174,13.076,-2.716,13.213,8.689,15.175,3.172,6.569
Fri Nov 22 19:35:00 2024,35,-18.911,-18.911,4.493,4.493,1.360,2.410,22.544,11.660,5.492,14.197,13.126,-2.727,13.183,8.734,15.216,3.183,6.659
Fri Nov 22 19:35:00 2024,40,-18.907,-18.907,4.512,4.512,1.365,2.415,22.546,11.674,5.501,14.193,13.138,-2.728,13.168,8.732,15.232,3.172,6.665
Fri Nov 22 19:35:00 2024,45,-18.936,-18.936,4.585,4.585,1.404,2.453,22.603,11.745,5.540,14.156,13.111,-2.719,13.166,8.672,15.225,3.130,6.572
Fri Nov 22 19:35:00 2024,50,-18.954,-18.954,4.632,4.632,1.429,2.476,22.637,11.790,5.565,14.133,13.099,-2.714,13.160,8.637,15.226,3.102,6.521
Fri Nov 22 19:35:00 2024,55,-18.820,-18.820,4.704,4.704,1.458,2.504,22.684,11.809,5.510,14.174,13.039,-2.664,13.291,8.688,15.230,3.133,6.540
Fri Nov 22 19:35:00 2024,60,-18.748,-18.748,4.754,4.754,1.479,2.525,22.716,11.829,5.483,14.193,13.002,-2.634,13.365,8.710,15.232,3.146,6.542
Fri Nov 22 19:35:00 2024,65,-18.716,-18.716,5.121,5.121,1.655,2.520,22.709,11.911,5.500,14.180,13.039,-2.612,13.442,8.765,15.320,3.109,6.616
Fri Nov 22 19:35:00 2024,70,-18.696,-18.696,5.476,5.476,1.838,2.512,22.698,11.989,5.519,14.165,13.079,-2.595,13.509,8.817,15.407,3.071,6.690
Fri Nov 22 19:35:00 2024,75,-18.679,-18.679,6.117,6.117,2.236,2.517,22.676,12.080,5.517,14.150,13.100,-2.600,13.495,8.857,15.439,3.021,6.741
Fri Nov 22 19:35:00 2024,80,-18.666,-18.666,7.646,7.646,3.308,2.558,20.005,12.221,5.460,14.134,13.076,-2.668,13.257,8.874,15.334,2.931,6.743
Fri Nov 22 19:35:00 2024,85,-18.657,-18.657,8.759,8.759,4.136,2.586,17.383,12.330,5.426,14.116,13.065,-2.712,13.105,8.893,15.276,2.857,6.757
Fri Nov 22 19:35:00 2024,90,-18.847,-18.847,11.283,11.283,5.810,2.615,17.352,12.564,5.467,14.139,13.174,-2.802,12.948,8.941,15.314,2.849,7.000
Fri Nov 22 19:35:00 2024,95,-18.992,-18.992,13.354,13.354,7.279,2.640,17.330,12.754,5.495,14.151,13.255,-2.875,12.812,8.979,15.336,2.833,7.187
Fri Nov 22 19:35:00 2024,100,-19.208,-19.208,16.073,16.073,9.210,2.574,17.410,12.943,5.494,14.196,13.375,-2.945,12.647,9.078,15.409,2.752,7.429
Fri Nov 22 19:35:00 2024,105,-19.507,-19.507,19.408,19.408,11.578,2.360,17.640,13.092,5.445,14.293,13.537,-2.994,12.467,9.265,15.558,2.571,7.721
Fri Nov 22 19:35:00 2024,110,-19.755,-19.755,22.195,22.195,13.627,2.212,17.776,13.232,5.414,14.361,13.668,-3.043,12.313,9.406,15.669,2.439,7.970
Fri Nov 22 19:35:00 2024,115,-19.149,-19.149,24.185,24.185,14.942,2.008,17.768,12.540,5.191,14.494,13.298,-3.041,12.033,9.218,15.729,2.575,8.076
Fri Nov 22 19:35:00 2024,120,-18.747,-18.747,26.521,26.521,16.634,1.822,17.589,12.046,5.013,14.601,13.047,-3.047,11.776,9.108,15.799,2.644,8.220
Fri Nov 22 19:35:00 2024,125,-19.274,19.274,28.269,28.269,17.825,1.762,17.348,11.905,4.951,14.644,12.996,-3.048,11.604,8.984,15.827,2.711,8.369
Fri Nov 22 19:35:00 2024,130,-19.996,19.996,30.490,30.490,19.456,1.692,17.014,11.731,4.876,14.694,12.930,-3.049,11.398,8.839,15.860,2.788,8.543
Fri Nov 22 19:35:00 2024,135,-20.560,20.560,31.876,31.876,20.563,1.627,16.482,11.518,4.926,14.566,12.912,-3.040,11.061,8.770,15.881,2.816,8.680
Fri Nov 22 19:35:00 2024,140,-21.085,21.085,32.546,32.546,21.254,1.544,15.413,11.150,5.186,14.104,12.960,-3.012,10.381,8.782,15.895,2.789,8.824
Fri Nov 22 19:35:00 2024,145,-21.634,21.634,33.248,33.248,21.961,1.490,14.628,10.895,5.357,13.785,12.988,-2.990,9.907,8.780,15.906,2.776,8.933
Fri Nov 22 19:35:00 2024,150,-22.547,22.547,32.974,32.974,21.468,1.931,14.177,10.684,5.688,13.397,12.776,-2.494,10.196,8.894,16.488,2.307,8.900
Fri Nov 22 19:35:00 2024,155,-23.456,23.456,32.810,32.810,21.119,2.292,13.754,10.497,5.969,13.061,12.604,-2.086,10.397,8.988,16.964,1.916,8.880
Fri Nov 22 19:35:00 2024,160,-24.341,24.341,33.240,33.240,21.313,2.138,13.872,10.256,6.132,13.025,12.538,-1.832,10.706,9.080,17.296,1.774,8.784
Fri Nov 22 19:35:00 2024,165,-25.135,25.135,33.724,33.724,21.612,1.900,14.077,10.048,6.239,13.051,12.507,-1.659,10.981,9.154,17.532,1.698,8.692
Fri Nov 22 19:35:00 2024,170,-26.081,26.081,34.245,34.245,21.954,1.648,14.287,9.827,6.349,13.067,12.475,-1.478,11.272,9.235,17.780,1.603,8.596
Fri Nov 22 19:35:00 2024,175,-26.899,26.899,34.346,34.346,22.240,1.393,13.738,9.558,6.422,12.750,12.502,-1.660,10.817,9.496,18.190,1.296,8.914
Fri Nov 22 19:35:00 2024,180,-27.766,27.766,34.519,34.519,22.535,1.180,13.373,9.332,6.495,12.517,12.512,-1.751,10.554,9.684,18.506,1.065,9.114
Fri Nov 22 19:35:00 2024,185,-28.655,28.655,33.956,33.956,22.488,1.227,13.019,9.420,6.546,12.394,12.782,-1.676,10.506,10.032,18.835,0.798,9.453
Fri Nov 22 19:35:00 2024,190,-29.538,29.538,33.446,33.446,22.465,1.269,12.687,9.497,6.594,12.275,13.029,-1.608,10.458,10.354,19.141,0.546,9.767
Fri Nov 22 19:35:00 2024,195,-30.418,30.418,32.968,32.968,22.457,1.311,12.373,9.568,6.640,12.161,13.262,-1.543,10.412,10.659,19.428,0.304,10.065
Fri Nov 22 19:35:00 2024,200,-31.014,31.014,30.941,30.941,21.287,1.662,12.811,9.517,6.571,12.276,13.092,-1.343,10.872,10.547,19.302,0.400,9.676
Fri Nov 22 19:35:00 2024,205,-31.534,31.534,29.912,29.912,20.727,1.834,12.939,9.508,6.549,12.305,13.060,-1.236,11.073,10.556,19.302,0.396,9.558
Fri Nov 22 19:35:00 2024,210,-32.109,32.109,28.144,28.144,19.548,1.984,13.231,9.516,6.486,12.435,13.091,-0.969,11.496,10.580,19.188,0.544,9.407
Fri Nov 22 19:35:00 2024,215,-32.648,32.648,26.673,26.673,18.509,2.116,13.463,9.521,6.436,12.538,13.114,-0.751,11.840,10.600,19.101,0.658,9.281
Fri Nov 22 19:35:00 2024,220,-32.994,32.994,25.617,25.617,17.799,2.248,13.539,9.563,6.420,12.577,13.216,-0.560,11.995,10.643,19.097,0.675,9.235
Fri Nov 22 19:35:00 2024,225,-33.293,33.293,24.706,24.706,17.180,2.374,13.570,9.612,6.412,12.597,13.333,-0.388,12.094,10.690,19.114,0.668,9.212
Fri Nov 22 19:35:00 2024,230,-33.554,33.554,23.945,23.945,16.646,2.480,13.595,9.654,6.405,12.614,13.431,-0.254,12.175,10.729,19.129,0.662,9.193
Fri Nov 22 19:35:00 2024,235,-33.168,33.168,23.524,23.524,16.478,2.576,13.611,9.565,6.306,12.682,13.448,-0.163,12.157,10.675,19.153,0.666,9.198
Fri Nov 22 19:35:00 2024,240,-33.019,33.019,23.166,23.166,16.292,2.645,13.623,9.520,6.248,12.722,13.472,0.156,12.158,10.651,19.169,0.666,9.199
Fri Nov 22 19:35:00 2024,245,-32.691,32.691,22.538,22.538,15.878,2.729,13.612,9.408,6.236,12.720,13.378,0.228,12.173,10.558,19.215,0.645,9.179
Fri Nov 22 19:35:00 2024,250,-32.427,32.427,21.978,21.978,15.497,2.800,13.600,9.306,6.231,12.714,13.289,0.326,12.185,10.474,19.257,0.623,9.162
Fri Nov 22 19:35:00 2024,255,-32.218,32.218,21.482,21.482,15.155,2.863,13.588,9.216,6.226,12.709,13.210,0.421,12.195,10.400,19.294,0.603,9.150
Fri Nov 22 19:35:00 2024,260,-32.139,32.139,20.824,20.824,14.728,2.950,13.428,9.025,6.262,12.713,13.231,0.450,12.031,10.306,19.299,0.626,9.170
Fri Nov 22 19:35:00 2024,265,-32.042,32.042,20.252,20.252,14.343,3.025,13.328,8.878,6.282,12.714,13.216,0.502,11.935,10.224,19.314,0.630,9.180
Fri Nov 22 19:35:00 2024,270,-31.992,31.992,20.079,20.079,14.180,3.086,13.540,8.896,6.300,12.782,13.204,0.614,12.215,10.215,19.406,0.553,9.168
Fri Nov 22 19:35:00 2024,275,-31.962,31.962,19.925,19.925,14.041,3.133,13.680,8.901,6.313,12.828,13.194,0.699,12.406,10.205,19.472,0.497,9.162
Fri Nov 22 19:35:00 2024,280,-31.764,31.764,19.698,19.698,13.837,3.189,13.776,8.899,6.348,12.843,13.158,0.821,12.569,10.183,19.542,0.440,9.154
Fri Nov 22 19:35:00 2024,285,-31.531,31.531,19.476,19.476,13.636,3.239,13.834,8.894,6.386,12.841,13.115,0.940,12.689,10.160,19.600,0.391,9.149
Fri Nov 22 19:35:00 2024,290,-31.348,31.348,19.294,19.294,13.468,3.280,13.880,8.890,6.418,12.839,13.080,1.037,12.785,10.140,19.648,0.349,9.146
Fri Nov 22 19:35:00 2024,295,-31.206,31.206,18.941,18.941,13.304,3.306,13.964,8.939,6.350,12.967,13.140,1.051,13.015,10.190,19.553,0.454,9.371
Fri Nov 22 19:35:00 2024,300,-31.096,31.096,18.706,18.706,13.179,3.327,14.020,8.966,6.316,13.040,13.168,1.076,13.163,10.215,19.505,0.501,9.501
Fri Nov 22 19:35:00 2024,305,-30.905,30.905,18.529,18.529,13.013,3.390,14.106,8.989,6.363,13.028,13.164,1.175,13.255,10.227,19.531,0.473,9.503
Fri Nov 22 19:35:00 2024,310,-30.709,30.709,18.350,18.350,12.837,3.456,14.192,9.011,6.416,13.009,13.159,1.281,13.343,10.238,19.562,0.440,9.497
Fri Nov 22 19:35:00 2024,315,-30.560,30.560,18.230,18.230,12.712,3.513,14.305,9.014,6.434,13.032,13.138,1.379,13.458,10.212,19.572,0.427,9.472
Fri Nov 22 19:35:00 2024,320,-30.429,30.429,18.149,18.149,12.619,3.570,14.461,8.999,6.419,13.105,13.097,1.486,13.623,10.143,19.560,0.435,9.422
Fri Nov 22 19:35:00 2024,325,-30.328,30.328,18.081,18.081,12.542,3.613,14.571,8.989,6.411,13.154,13.068,1.568,13.742,10.094,19.552,0.438,9.386
Fri Nov 22 19:35:00 2024,330,-30.311,30.311,18.215,18.215,12.723,3.651,14.482,8.974,6.468,13.101,13.103,1.638,13.643,10.076,19.497,0.498,9.273
Fri Nov 22 19:35:00 2024,335,-30.284,30.284,18.311,18.311,12.854,3.686,14.426,8.960,6.512,13.065,13.126,1.702,13.580,10.055,19.453,0.546,9.180
Fri Nov 22 19:35:00 2024,340,-30.265,30.265,18.380,18.380,12.949,3.711,14.385,8.949,6.543,13.040,13.144,1.749,13.534,10.040,19.420,0.581,9.113
Fri Nov 22 19:35:00 2024,345,-30.076,30.076,18.224,18.224,12.703,3.744,14.538,9.164,6.590,13.012,13.242,1.790,13.601,10.139,19.640,0.355,9.258
Fri Nov 22 19:35:00 2024,350,-29.970,29.970,18.166,18.166,12.605,3.771,14.600,9.271,6.627,12.988,13.300,1.828,13.617,10.184,19.741,0.250,9.308
Fri Nov 22 19:35:00 2024,355,-29.876,29.876,18.337,18.337,12.768,3.785,14.665,9.285,6.665,13.010,13.332,1.997,13.682,10.227,19.926,0.063,9.381
Fri Nov 22 19:35:00 2024,360,-29.796,29.796,18.435,18.435,12.854,3.799,14.719,9.314,6.697,13.018,13.364,2.114,13.724,10.264,20.066,-0.079,9.438
Fri Nov 22 19:35:00 2024,365,-29.818,29.818,18.659,18.659,13.086,3.833,14.726,9.432,6.760,12.964,13.439,2.208,13.752,10.349,20.148,-0.160,9.484
Fri Nov 22 19:35:00 2024,370,-29.920,29.920,18.939,18.939,13.387,3.877,14.695,9.598,6.835,12.873,13.535,2.267,13.764,10.459,20.169,-0.178,9.513
Fri Nov 22 19:35:00 2024,375,-30.034,30.034,19.129,19.129,13.577,3.918,14.706,9.730,6.896,12.800,13.562,2.364,13.743,10.503,20.248,-0.254,9.519
Fri Nov 22 19:35:00 2024,380,-30.201,30.201,19.173,19.173,13.586,3.952,14.753,9.814,6.929,12.743,13.480,2.478,13.659,10.445,20.364,-0.368,9.471
Fri Nov 22 19:35:00 2024,385,-30.349,30.349,19.235,19.235,13.623,3.985,14.788,9.898,6.963,12.688,13.424,2.579,13.592,10.409,20.462,-0.464,9.438
Fri Nov 22 19:35:00 2024,390,-30.348,30.348,19.573,19.573,13.992,4.034,14.817,10.050,7.005,12.632,13.458,2.597,13.595,10.473,20.458,-0.461,9.525
Fri Nov 22 19:35:00 2024,395,-30.372,30.372,19.843,19.843,14.282,4.076,14.843,10.177,7.042,12.581,13.478,2.624,13.588,10.518,20.466,-0.469,9.589
Fri Nov 22 19:35:00 2024,400,-30.533,30.533,20.088,20.088,14.545,4.113,14.836,10.257,7.075,12.526,13.478,2.668,13.519,10.525,20.459,-0.462,9.601
Fri Nov 22 19:35:00 2024,405,-31.074,31.074,20.409,20.409,14.885,4.156,14.763,10.276,7.118,12.434,13.439,2.774,13.278,10.453,20.418,-0.415,9.506
Fri Nov 22 19:35:00 2024,410,-31.449,31.449,20.668,20.668,15.158,4.192,14.718,10.312,7.152,12.364,13.416,2.848,13.118,10.413,20.392,-0.386,9.454
Fri Nov 22 19:35:00 2024,415,-31.692,31.692,21.226,21.226,15.696,4.214,14.777,10.458,7.242,12.303,13.430,2.905,13.248,10.430,20.416,-0.411,9.425
Fri Nov 22 19:35:00 2024,420,-31.919,31.919,21.690,21.690,16.143,4.234,14.821,10.579,7.317,12.250,13.438,2.955,13.344,10.441,20.435,-0.429,9.399
Fri Nov 22 19:35:00 2024,425,-32.127,32.127,22.061,22.061,16.500,4.252,14.849,10.673,7.377,12.204,13.443,2.999,13.402,10.446,20.447,-0.440,9.375
Fri Nov 22 19:35:00 2024,430,-32.232,32.232,22.247,22.247,16.677,4.260,14.863,10.719,7.407,12.181,13.445,3.021,13.432,10.448,20.452,-0.445,9.363
Fri Nov 22 19:35:00 2024,435,-32.258,32.258,22.295,22.295,16.725,4.262,14.866,10.730,7.414,12.175,13.445,3.026,13.439,10.448,20.453,-0.446,9.360
Fri Nov 22 19:35:00 2024,440,-33.214,33.214,23.489,23.489,17.815,4.194,14.670,10.997,7.313,12.041,13.264,2.974,13.042,10.334,20.254,-0.252,9.202
Fri Nov 22 19:35:00 2024,445,-33.553,33.553,23.886,23.886,18.173,4.183,14.632,11.092,7.309,11.989,13.225,2.976,12.969,10.309,20.211,-0.213,9.158
Fri Nov 22 19:35:00 2024,450,-34.054,34.054,24.363,24.363,18.483,4.139,14.673,11.188,7.373,11.874,13.154,2.993,12.794,10.213,20.178,-0.191,9.040
Fri Nov 22 19:35:00 2024,455,-34.500,34.500,24.789,24.789,18.712,4.078,14.755,11.261,7.446,11.773,13.080,3.001,12.624,10.103,20.163,-0.194,8.913
Fri Nov 22 19:35:00 2024,460,-34.875,34.875,25.382,25.382,19.055,3.968,14.898,11.335,7.497,11.715,12.983,2.959,12.490,9.981,20.173,-0.227,8.771
Fri Nov 22 19:35:00 2024,465,-35.250,35.250,25.976,25.976,19.399,3.858,15.040,11.409,7.547,11.658,12.886,2.917,12.356,9.858,20.183,-0.261,8.628
Fri Nov 22 19:35:00 2024,470,-35.562,35.562,26.481,26.481,19.681,3.759,15.172,11.465,7.584,11.623,12.802,2.870,12.257,9.755,20.199,-0.301,8.509
Fri Nov 22 19:35:00 2024,475,-35.629,35.629,28.295,28.295,21.080,3.818,15.118,11.539,7.656,11.427,12.637,2.863,11.887,9.617,20.143,-0.309,8.528
Fri Nov 22 19:35:00 2024,480,-35.802,35.802,29.617,29.617,22.029,3.835,15.112,11.601,7.711,11.284,12.508,2.845,11.617,9.502,20.109,-0.334,8.514
Fri Nov 22 19:35:00 2024,485,-35.934,35.934,30.918,30.918,22.854,3.861,15.061,11.648,7.766,11.157,12.355,2.801,11.439,9.381,20.044,-0.348,8.398
Fri Nov 22 19:35:00 2024,490,-35.974,35.974,32.478,32.478,23.670,3.907,14.918,11.676,7.836,11.032,12.120,2.700,11.398,9.225,19.911,-0.344,8.065
Fri Nov 22 19:35:00 2024,495,-36.100,36.100,33.699,33.699,24.316,3.939,14.832,11.707,7.889,10.923,11.953,2.637,11.308,9.105,19.824,-0.367,7.870
Fri Nov 22 19:35:00 2024,500,-35.749,35.749,35.418,35.418,25.190,4.093,14.877,11.819,8.138,10.653,11.752,2.501,11.243,8.946,19.589,-0.346,7.491
Fri Nov 22 19:35:00 2024,505,-35.638,35.638,36.592,36.592,25.752,4.182,14.871,11.883,8.279,10.487,11.609,2.415,11.187,8.834,19.442,-0.359,7.252
Fri Nov 22 19:35:00 2024,510,-34.660,34.660,38.228,38.228,26.646,4.102,14.991,11.776,8.166,10.686,11.430,2.229,11.270,8.527,19.160,-0.104,7.070
Fri Nov 22 19:35:00 2024,515,-33.981,33.981,39.536,39.536,27.339,4.045,15.081,11.697,8.086,10.828,11.286,2.082,11.327,8.287,18.937,0.089,6.919
Fri Nov 22 19:35:00 2024,520,-33.333,33.333,40.179,40.179,27.581,3.985,15.342,11.731,7.978,11.086,11.216,1.922,11.529,8.049,18.677,0.349,6.791
Fri Nov 22 19:35:00 2024,525,-32.614,32.614,40.350,40.350,27.483,3.914,15.732,11.862,7.832,11.459,11.199,1.732,11.878,7.781,18.354,0.699,6.664
Fri Nov 22 19:35:00 2024,530,-32.077,32.077,40.568,40.568,27.454,3.857,15.966,11.949,7.721,11.725,11.175,1.582,12.136,7.569,18.101,0.970,6.560
Fri Nov 22 19:35:00 2024,535,-31.824,31.824,39.574,39.574,26.748,3.764,16.106,12.285,7.586,11.952,11.407,1.502,11.991,7.518,18.018,0.998,6.593
Fri Nov 22 19:35:00 2024,540,-31.598,31.598,38.971,38.971,26.250,3.693,16.229,12.519,7.476,12.147,11.552,1.415,11.958,7.438,17.906,1.080,6.590
Fri Nov 22 19:35:00 2024,545,-31.561,31.561,37.949,37.949,25.253,3.340,16.607,12.747,7.237,12.485,11.684,1.258,12.172,7.349,17.810,1.149,6.529
Fri Nov 22 19:35:00 2024,550,-31.599,31.599,37.054,37.054,24.343,3.021,16.943,12.938,7.029,12.769,11.796,1.122,12.370,7.276,17.731,1.205,6.474
Fri Nov 22 19:35:00 2024,555,-31.658,31.658,36.410,36.410,23.673,2.792,17.182,13.075,6.880,12.966,11.876,1.025,12.512,7.223,17.675,1.246,6.434
Fri Nov 22 19:35:00 2024,560,-31.825,31.825,36.060,36.060,23.294,2.422,17.569,13.035,6.566,13.337,12.075,0.687,12.640,7.284,17.364,1.454,6.365
Fri Nov 22 19:35:00 2024,565,-31.969,31.969,35.666,35.666,22.884,2.135,17.864,13.055,6.338,13.603,12.218,0.462,12.753,7.303,17.164,1.585,6.312
Fri Nov 22 19:35:00 2024,570,-31.837,31.837,35.238,35.238,22.776,1.754,18.050,12.958,6.057,13.714,12.323,-0.036,12.151,7.510,16.967,1.626,6.551
Fri Nov 22 19:35:00 2024,575,-31.659,31.659,34.807,34.807,22.785,1.340,17.955,12.824,5.758,13.688,12.417,-0.545,11.302,7.778,16.770,1.628,6.883
Fri Nov 22 19:35:00 2024,580,-31.616,31.616,34.494,34.494,22.771,1.032,17.677,12.742,5.535,13.603,12.499,-0.900,10.739,7.956,16.619,1.633,7.095
Fri Nov 22 19:35:00 2024,585,-31.556,31.556,34.580,34.580,22.742,1.234,18.080,13.009,5.254,13.875,12.452,-0.993,10.677,7.800,17.001,0.998,6.992
Fri Nov 22 19:35:00 2024,590,-31.571,31.571,34.564,34.564,22.787,1.232,18.173,13.112,5.036,13.961,12.457,-1.164,10.451,7.781,17.146,0.667,7.014
Fri Nov 22 19:35:00 2024,595,-30.931,-30.931,35.458,35.458,23.637,1.134,18.341,12.929,4.749,14.206,12.278,-1.570,10.313,7.659,16.944,0.761,7.182
Fri Nov 22 19:35:00 2024,600,-30.640,-30.640,36.080,36.080,24.216,1.063,18.473,12.822,4.509,14.383,12.157,-1.882,10.162,7.573,16.838,0.754,7.303
Fri Nov 22 19:35:00 2024,605,-30.496,-30.496,36.536,36.536,24.627,1.009,18.569,12.744,4.335,14.508,12.070,-2.109,10.045,7.512,16.763,0.745,7.391
Fri Nov 22 19:35:00 2024,610,-29.718,-29.718,34.749,34.749,23.335,0.894,20.344,13.359,4.480,14.634,11.920,-1.990,11.086,7.804,16.875,0.889,7.599
Fri Nov 22 19:35:00 2024,615,-29.415,-29.415,34.218,34.218,22.995,0.812,21.252,13.593,4.463,14.743,11.815,-2.045,11.489,7.906,16.890,0.947,7.732
Fri Nov 22 19:35:00 2024,620,-29.509,-29.509,32.766,32.766,21.958,1.065,21.382,13.281,4.323,14.630,11.787,-2.190,11.070,7.844,16.668,0.917,7.667
Fri Nov 22 19:35:00 2024,625,-29.531,-29.531,31.876,31.876,21.367,1.184,21.553,13.165,4.241,14.584,11.743,-2.287,10.938,7.835,16.550,0.910,7.667
Fri Nov 22 19:35:00 2024,630,-29.528,-29.528,30.134,30.134,20.108,1.135,21.496,12.914,4.147,14.598,11.634,-2.415,10.881,7.764,16.285,1.073,7.571
Fri Nov 22 19:35:00 2024,635,-29.498,-29.498,27.802,27.802,18.391,0.945,21.246,12.566,4.051,14.665,11.476,-2.562,10.893,7.644,15.917,1.372,7.401
Fri Nov 22 19:35:00 2024,640,-29.492,-29.492,25.879,25.879,17.007,0.767,21.119,12.286,3.969,14.732,11.400,-2.672,10.933,7.594,15.652,1.593,7.245
Fri Nov 22 19:35:00 2024,645,-29.456,-29.456,23.314,23.314,15.066,0.352,21.036,11.942,3.898,14.903,11.435,-2.750,11.166,7.621,15.406,1.904,6.963
Fri Nov 22 19:35:00 2024,650,-29.374,-29.374,21.359,21.359,13.622,0.104,21.063,11.655,3.875,15.012,11.432,-2.797,11.281,7.593,15.238,2.097,6.761
Fri Nov 22 19:35:00 2024,655,-29.003,-29.003,18.696,18.696,11.468,-0.077,21.123,11.234,3.984,15.122,11.413,-2.762,11.324,7.442,15.179,2.183,6.484
Fri Nov 22 19:35:00 2024,660,-28.756,-28.756,16.780,16.780,9.996,-0.226,21.194,10.928,4.055,15.192,11.400,-2.746,11.364,7.339,15.122,2.260,6.284
Fri Nov 22 19:35:00 2024,665,-28.368,-28.368,14.305,14.305,8.151,-0.323,21.272,10.699,4.144,15.250,11.498,-2.694,11.490,7.321,15.104,2.306,6.106
Fri Nov 22 19:35:00 2024,670,-28.073,-28.073,12.440,12.440,6.820,-0.395,21.334,10.534,4.213,15.281,11.581,-2.653,11.589,7.314,15.093,2.338,5.975
Fri Nov 22 19:35:00 2024,675,-27.799,-27.799,10.718,10.718,5.649,-0.460,21.395,10.379,4.279,15.302,11.658,-2.615,11.684,7.306,15.083,2.368,5.854
Fri Nov 22 19:35:00 2024,680,-27.492,-27.492,9.095,9.095,4.395,-0.375,21.658,10.237,4.382,15.226,11.694,-2.531,11.767,7.296,15.167,2.250,5.711
Fri Nov 22 19:35:00 2024,685,-27.242,-27.242,7.661,7.661,3.402,-0.344,21.834,10.108,4.462,15.184,11.738,-2.469,11.843,7.287,15.212,2.192,5.594
Fri Nov 22 19:35:00 2024,690,-27.008,-27.008,6.409,6.409,2.578,-0.386,21.800,10.010,4.441,15.188,11.801,-2.491,11.806,7.287,15.219,2.143,5.519
Fri Nov 22 19:35:00 2024,695,-26.805,-26.805,5.316,5.316,1.904,-0.448,21.701,9.928,4.388,15.206,11.864,-2.538,11.734,7.290,15.212,2.102,5.466
Fri Nov 22 19:35:00 2024,700,-26.611,-26.611,4.197,4.197,1.293,-0.500,21.722,9.823,4.373,15.221,11.913,-2.557,11.702,7.310,15.249,2.065,5.447
Fri Nov 22 19:35:00 2024,705,-26.422,-26.422,3.053,3.053,0.914,-0.576,21.903,9.677,4.394,15.252,11.937,-2.555,11.700,7.373,15.365,2.041,5.530
Fri Nov 22 19:35:00 2024,710,-26.292,-26.292,2.243,2.243,-1.062,-0.624,21.993,9.582,4.400,15.268,11.960,-2.559,11.691,7.406,15.427,2.020,5.563
Fri Nov 22 19:35:00 2024,715,-26.057,-26.057,1.318,1.318,-1.633,-0.544,21.998,9.454,4.351,15.243,11.882,-2.540,11.639,7.336,15.500,1.773,5.294
Fri Nov 22 19:35:00 2024,720,-25.888,-25.888,-0.619,0.619,-2.155,-0.500,22.018,9.354,4.320,15.227,11.835,-2.528,11.603,7.297,15.557,1.608,5.128
Fri Nov 22 19:35:00 2024,725,-25.741,-25.741,-0.312,0.312,-2.559,-0.534,21.881,9.255,4.263,15.240,11.890,-2.533,11.513,7.340,15.627,1.565,5.176
Fri Nov 22 19:35:00 2024,730,-25.633,-25.633,-0.634,-0.634,-2.871,-0.566,21.768,9.177,4.218,15.249,11.939,-2.537,11.440,7.377,15.682,1.538,5.225
Fri Nov 22 19:35:00 2024,735,-25.519,-25.519,-1.051,-1.051,-3.181,-0.594,21.722,9.110,4.168,15.260,11.952,-2.553,11.410,7.415,15.754,1.516,5.286
Fri Nov 22 19:35:00 2024,740,-25.423,-25.423,-1.284,-1.284,-3.382,-0.605,21.830,9.089,4.121,15.269,11.884,-2.591,11.489,7.439,15.839,1.515,5.357
Fri Nov 22 19:35:00 2024,745,-25.348,-25.348,-1.507,-1.507,-3.562,-0.617,21.890,9.064,4.083,15.276,11.844,-2.617,11.533,7.461,15.905,1.510,5.413
Fri Nov 22 19:35:00 2024,750,-25.205,-25.205,-1.743,-1.743,-3.766,-0.668,21.835,8.987,4.087,15.270,11.844,-2.617,11.564,7.472,15.926,1.493,5.384
Fri Nov 22 19:35:00 2024,755,-25.077,-25.077,-1.968,-1.968,-3.961,-0.711,21.797,8.920,4.086,15.266,11.839,-2.618,11.596,7.485,15.951,1.478,5.367
Fri Nov 22 19:35:00 2024,760,-24.923,-24.923,-2.092,-2.092,-4.112,-0.782,21.698,8.863,4.076,15.255,11.842,-2.650,11.585,7.518,16.006,1.461,5.389
Fri Nov 22 19:35:00 2024,765,-24.734,-24.734,-2.185,-2.185,-4.265,-0.874,21.564,8.802,4.060,15.237,11.850,-2.700,11.554,7.567,16.084,1.439,5.433
Fri Nov 22 19:35:00 2024,770,-24.610,-24.610,-2.254,-2.254,-4.370,-0.934,21.492,8.760,4.050,15.225,11.854,-2.732,11.535,7.598,16.133,1.424,5.460
Fri Nov 22 19:35:00 2024,775,-24.405,-24.405,-2.402,-2.402,-4.555,-1.011,21.636,8.796,4.041,15.311,11.871,-2.700,11.744,7.628,16.025,1.617,5.420
Fri Nov 22 19:35:00 2024,780,-24.235,-24.235,-2.518,-2.518,-4.706,-1.077,21.721,8.811,4.034,15.366,11.884,-2.686,11.884,7.656,15.961,1.746,5.399
Fri Nov 22 19:35:00 2024,785,-24.054,-24.054,-2.777,-2.777,-4.938,-1.082,21.704,8.771,4.038,15.320,11.853,-2.652,11.852,7.627,15.928,1.729,5.334
Fri Nov 22 19:35:00 2024,790,-23.860,-23.860,-3.155,-3.155,-5.239,-1.042,21.610,8.686,4.052,15.193,11.788,-2.600,11.684,7.555,15.917,1.601,5.233
Fri Nov 22 19:35:00 2024,795,-23.700,-23.700,-3.418,-3.418,-5.476,-1.038,21.616,8.664,4.075,15.155,11.790,-2.569,11.676,7.552,15.906,1.570,5.177
Fri Nov 22 19:35:00 2024,800,-23.515,-23.515,-3.696,-3.696,-5.761,-1.058,21.730,8.704,4.125,15.189,11.878,-2.546,11.823,7.631,15.904,1.609,5.142
Fri Nov 22 19:35:00 2024,805,-23.383,-23.383,-3.898,-3.898,-5.962,-1.069,21.796,8.722,4.158,15.199,11.929,-2.527,11.904,7.675,15.902,1.625,5.113
Fri Nov 22 19:35:00 2024,810,-23.229,-23.229,-3.969,-3.969,-6.051,-1.097,21.902,8.729,4.204,15.230,11.968,-2.447,11.999,7.679,15.990,1.653,5.162
Fri Nov 22 19:35:00 2024,815,-23.055,-23.055,-4.062,-4.062,-6.162,-1.126,22.019,8.738,4.255,15.258,12.013,-2.362,12.105,7.688,16.083,1.680,5.212
Fri Nov 22 19:35:00 2024,820,-22.910,-22.910,-4.129,-4.129,-6.252,-1.140,22.102,8.784,4.270,15.264,12.034,-2.308,12.188,7.716,16.084,1.686,5.208
Fri Nov 22 19:35:00 2024,825,-22.734,-22.734,-4.199,-4.199,-6.359,-1.144,22.188,8.883,4.261,15.258,12.039,-2.261,12.283,7.774,16.005,1.677,5.156
Fri Nov 22 19:35:00 2024,830,-22.550,-22.550,-4.265,-4.265,-6.456,-1.160,22.212,8.916,4.276,15.236,12.050,-2.224,12.299,7.799,15.984,1.662,5.132
Fri Nov 22 19:35:00 2024,835,-22.368,-22.368,-4.316,-4.316,-6.528,-1.186,22.134,8.871,4.313,15.185,12.055,-2.214,12.191,7.784,16.014,1.634,5.129
Fri Nov 22 19:35:00 2024,840,-22.212,-22.212,-4.360,-4.360,-6.591,-1.209,22.072,8.834,4.345,15.142,12.060,-2.206,12.102,7.771,16.040,1.609,5.126
Fri Nov 22 19:35:00 2024,845,-22.089,-22.089,-4.377,-4.377,-6.630,-1.245,22.082,8.831,4.346,15.144,12.082,-2.215,12.086,7.785,16.047,1.624,5.141
Fri Nov 22 19:35:00 2024,850,-21.990,-21.990,-4.344,-4.344,-6.638,-1.321,22.236,8.900,4.286,15.237,12.147,-2.266,12.215,7.859,16.024,1.723,5.198
Fri Nov 22 19:35:00 2024,855,-21.894,-21.894,-4.336,-4.336,-6.656,-1.369,22.311,8.929,4.260,15.279,12.185,-2.293,12.268,7.898,16.017,1.773,5.229
Fri Nov 22 19:35:00 2024,860,-21.723,-21.723,-4.351,-4.351,-6.722,-1.395,22.472,8.968,4.281,15.310,12.115,-2.234,12.382,7.874,15.974,1.822,5.194
Fri Nov 22 19:35:00 2024,865,-21.596,-21.596,-4.357,-4.357,-6.765,-1.425,22.588,8.999,4.286,15.338,12.085,-2.207,12.462,7.871,15.947,1.865,5.182
Fri Nov 22 19:35:00 2024,870,-21.563,-21.563,-4.285,-4.285,-6.666,-1.446,22.486,8.956,4.270,15.310,12.098,-2.253,12.331,7.864,15.942,1.900,5.228
Fri Nov 22 19:35:00 2024,875,-21.524,-21.524,-4.232,-4.232,-6.597,-1.464,22.425,8.926,4.258,15.289,12.106,-2.285,12.241,7.859,15.933,1.932,5.261
Fri Nov 22 19:35:00 2024,880,-21.497,-21.497,-4.195,-4.195,-6.549,-1.477,22.384,8.906,4.250,15.275,12.110,-2.306,12.179,7.856,15.928,1.953,5.284
Fri Nov 22 19:35:00 2024,885,-21.329,-21.329,-4.427,-4.427,-6.742,-1.431,22.320,8.923,4.325,15.269,12.216,-2.285,12.311,7.942,16.050,1.841,5.276
Fri Nov 22 19:35:00 2024,890,-21.220,-21.220,-4.544,-4.544,-6.831,-1.410,22.264,8.924,4.365,15.257,12.278,-2.282,12.360,7.990,16.118,1.786,5.282
Fri Nov 22 19:35:00 2024,895,-21.190,-21.190,-4.533,-4.533,-6.866,-1.463,22.417,8.980,4.307,15.362,12.271,-2.281,12.471,7.973,16.078,1.836,5.250
Fri Nov 22 19:35:00 2024,900,-21.153,-21.153,-4.548,-4.548,-6.902,-1.490,22.494,9.012,4.282,15.418,12.279,-2.279,12.542,7.973,16.068,1.854,5.233
Fri Nov 22 19:35:00 2024,905,-21.070,-21.070,-4.587,-4.587,-6.955,-1.496,22.532,9.053,4.297,15.446,12.331,-2.267,12.577,7.977,16.077,1.828,5.218
Fri Nov 22 19:35:00 2024,910,-20.891,-20.891,-4.676,-4.676,-7.039,-1.454,22.469,9.109,4.404,15.400,12.479,-2.231,12.516,7.991,16.130,1.704,5.208
Fri Nov 22 19:35:00 2024,915,-20.773,-20.773,-4.711,-4.711,-7.078,-1.429,22.446,9.139,4.444,15.387,12.547,-2.223,12.488,8.011,16.150,1.670,5.215
Fri Nov 22 19:35:00 2024,920,-20.619,-20.619,-4.701,-4.701,-7.072,-1.374,22.393,9.146,4.452,15.381,12.573,-2.251,12.416,8.073,16.152,1.719,5.267
Fri Nov 22 19:35:00 2024,925,-20.501,-20.501,-4.704,-4.704,-7.078,-1.336,22.356,9.157,4.466,15.374,12.604,-2.265,12.367,8.114,16.158,1.741,5.300
Fri Nov 22 19:35:00 2024,930,-20.310,-20.310,-4.790,-4.790,-7.155,-1.231,22.343,9.241,4.518,15.342,12.617,-2.227,12.384,8.068,16.198,1.683,5.309
Fri Nov 22 19:35:00 2024,935,-20.142,-20.142,-4.864,-4.864,-7.221,-1.138,22.334,9.314,4.562,15.313,12.630,-2.196,12.396,8.029,16.233,1.634,5.320
Fri Nov 22 19:35:00 2024,940,-20.013,-20.013,-4.921,-4.921,-7.272,-1.067,22.330,9.369,4.597,15.291,12.640,-2.171,12.405,8.000,16.259,1.597,5.327
Fri Nov 22 19:35:00 2024,945,-19.851,-19.851,-4.862,-4.862,-7.200,-0.923,22.492,9.512,4.614,15.259,12.630,-1.922,12.626,8.112,16.152,1.773,5.402
Fri Nov 22 19:35:00 2024,950,-19.731,-19.731,-4.853,-4.853,-7.182,-0.831,22.579,9.599,4.633,15.237,12.629,-1.794,12.731,8.156,16.111,1.844,5.441
Fri Nov 22 19:35:00 2024,955,-19.706,-19.706,-4.620,-4.620,-6.992,-0.627,22.474,9.718,4.652,15.192,12.659,-1.712,12.601,8.129,16.023,1.782,5.360
Fri Nov 22 19:35:00 2024,960,-19.673,-19.673,-4.488,-4.488,-6.884,-0.498,22.438,9.798,4.666,15.161,12.675,-1.644,12.544,8.121,15.966,1.758,5.322
Fri Nov 22 19:35:00 2024,965,-19.670,-19.670,-4.324,-4.324,-6.752,-0.207,22.643,10.029,4.718,15.103,12.654,-1.468,12.689,8.121,16.001,1.746,5.327
Fri Nov 22 19:35:00 2024,970,-19.677,-19.677,-4.193,-4.193,-6.646,0.051,22.860,10.228,4.763,15.055,12.633,-1.318,12.823,8.121,16.039,1.738,5.335
Fri Nov 22 19:35:00 2024,975,-19.691,-19.691,-4.115,-4.115,-6.556,0.325,23.164,10.542,4.811,15.000,12.670,-1.168,12.991,8.155,16.075,1.720,5.355
Fri Nov 22 19:35:00 2024,980,-19.713,-19.713,-4.081,-4.081,-6.482,0.634,23.532,10.945,4.861,14.939,12.752,-1.019,13.186,8.216,16.111,1.696,5.384
Fri Nov 22 19:35:00 2024,985,-19.738,-19.738,-4.046,-4.046,-6.405,0.954,23.935,11.367,4.913,14.876,12.837,-0.866,13.384,8.279,16.146,1.671,5.414
Fri Nov 22 19:35:00 2024,990,-19.762,-19.762,-3.986,-3.986,-6.330,1.426,24.490,11.746,4.837,14.944,12.826,-0.925,13.357,8.172,16.112,1.683,5.430
Fri Nov 22 19:35:00 2024,995,-19.787,-19.787,-3.929,-3.929,-6.256,1.875,25.044,12.134,4.780,14.991,12.830,-0.954,13.362,8.091,16.089,1.689,5.449
Fri Nov 22 19:35:01 2024,0,-19.724,-19.724,-3.924,-3.924,-6.266,2.447,25.725,12.413,4.727,15.028,12.779,-0.945,13.350,7.936,16.003,1.726,5.394
Fri Nov 22 19:35:01 2024,5,-19.645,-19.645,-3.931,-3.931,-6.293,3.029,26.425,12.662,4.677,15.062,12.719,-0.929,13.334,7.772,15.906,1.768,5.326
Fri Nov 22 19:35:01 2024,10,-19.580,-19.580,-3.939,-3.939,-6.303,3.690,27.129,13.007,4.659,15.064,12.703,-0.954,13.262,7.609,15.792,1.793,5.236
Fri Nov 22 19:35:01 2024,15,-19.555,-19.555,-3.950,-3.950,-6.267,4.485,27.762,13.561,4.728,14.991,12.801,-1.085,13.055,7.464,15.643,1.771,5.093
Fri Nov 22 19:35:01 2024,20,-19.532,-19.532,-3.960,-3.960,-6.240,5.136,28.315,14.006,4.778,14.935,12.875,-1.187,12.893,7.345,15.521,1.752,4.981
Fri Nov 22 19:35:01 2024,25,-19.429,-19.429,-3.972,-3.972,-6.170,6.187,29.538,15.456,5.052,14.670,13.079,-1.244,12.975,7.384,15.556,1.719,5.104
Fri Nov 22 19:35:01 2024,30,-19.342,-19.342,-3.983,-3.983,-6.110,7.062,30.579,16.713,5.285,14.442,13.250,-1.286,13.058,7.426,15.596,1.691,5.221
Fri Nov 22 19:35:01 2024,35,-19.260,-19.260,-3.992,-3.992,-6.053,7.901,31.580,17.926,5.508,14.225,13.413,-1.325,13.137,7.467,15.633,1.664,5.336
Fri Nov 22 19:35:01 2024,40,-19.158,-19.158,-3.887,-3.887,-5.807,8.653,33.113,20.738,6.100,13.576,13.264,-1.215,13.047,7.374,15.596,1.496,5.309
Fri Nov 22 19:35:01 2024,45,-19.084,-19.084,-3.835,-3.835,-5.663,9.282,34.199,22.615,6.469,13.179,13.226,-1.168,13.021,7.337,15.585,1.400,5.326
Fri Nov 22 19:35:01 2024,50,-19.054,-19.054,-3.814,-3.814,-5.667,9.707,35.815,25.589,6.869,12.876,13.180,-1.003,13.031,7.298,15.530,1.313,5.259
Fri Nov 22 19:35:01 2024,55,-19.028,-19.028,-3.793,-3.793,-5.654,10.102,37.165,28.093,7.205,12.597,13.140,-0.876,13.033,7.264,15.487,1.237,5.213
Fri Nov 22 19:35:01 2024,60,-19.014,-19.014,-3.742,-3.742,-5.596,10.442,38.553,30.650,7.526,12.302,12.983,-0.746,12.976,7.171,15.440,1.166,5.115
Fri Nov 22 19:35:01 2024,65,-19.027,-19.027,-3.600,-3.600,-5.413,10.749,40.475,34.173,7.923,11.880,12.491,-0.565,12.761,6.902,15.368,1.079,4.852
Fri Nov 22 19:35:01 2024,70,-19.035,-19.035,-3.511,-3.511,-5.300,11.013,41.887,36.841,8.214,11.583,12.194,-0.440,12.627,6.740,15.317,1.012,4.688
Fri Nov 22 19:35:01 2024,75,-19.085,-19.085,-3.664,-3.664,-5.300,11.377,44.672,41.421,8.190,11.644,11.954,-0.199,13.112,6.860,15.270,1.246,4.657
Fri Nov 22 19:35:01 2024,80,-19.124,-19.124,-3.760,-3.760,-5.278,11.702,47.074,45.624,8.229,11.630,11.720,0.121,13.440,6.924,15.224,1.404,4.601
Fri Nov 22 19:35:01 2024,85,-18.964,-18.964,-3.969,-3.969,-5.062,12.081,49.120,50.372,8.448,11.429,11.808,0.466,13.630,7.132,15.134,1.501,4.490
Fri Nov 22 19:35:01 2024,90,-18.826,-18.826,-4.142,-4.142,-4.879,12.405,50.766,54.456,8.631,11.259,11.895,0.792,13.751,7.308,15.061,1.574,4.398
Fri Nov 22 19:35:01 2024,95,-18.689,-18.689,-4.318,-4.318,-4.694,12.755,52.478,58.802,8.816,11.086,11.983,1.128,13.853,7.490,14.986,1.648,4.306
Fri Nov 22 19:35:01 2024,100,-18.501,-18.501,-4.497,-4.497,-4.466,12.633,52.687,60.840,8.554,11.367,12.054,1.209,14.171,7.393,14.937,1.686,4.252
Fri Nov 22 19:35:01 2024,105,-18.359,-18.359,-4.646,-4.646,-4.286,12.668,53.301,63.299,8.460,11.473,12.118,1.348,14.365,7.390,14.890,1.728,4.198
Fri Nov 22 19:35:01 2024,110,-18.208,-18.208,-4.651,-4.651,-4.279,12.930,52.994,63.016,8.622,11.308,12.369,1.445,14.326,7.534,14.954,1.695,4.358
Fri Nov 22 19:35:01 2024,115,-18.030,-18.030,-4.680,-4.680,-4.240,13.201,52.793,63.153,8.770,11.158,12.634,1.568,14.317,7.681,15.010,1.668,4.513
Fri Nov 22 19:35:01 2024,120,-17.854,-17.854,-4.664,-4.664,-4.240,13.513,52.503,62.922,8.893,11.045,12.787,1.696,14.247,7.763,15.043,1.633,4.608
Fri Nov 22 19:35:01 2024,125,-17.651,-17.651,-4.617,-4.617,-4.265,13.898,52.116,62.421,9.021,10.936,12.893,1.848,14.126,7.817,15.065,1.585,4.681
Fri Nov 22 19:35:01 2024,130,-17.495,-17.495,-4.586,-4.586,-4.278,14.188,51.840,62.070,9.120,10.848,12.986,1.964,14.039,7.866,15.084,1.550,4.745
Fri Nov 22 19:35:01 2024,135,-17.234,-17.234,-4.466,-4.466,-4.230,14.670,51.824,61.949,9.365,10.610,13.054,2.076,13.827,7.787,15.040,1.525,4.712
Fri Nov 22 19:35:01 2024,140,-17.028,-17.028,-4.379,-4.379,-4.200,15.052,51.759,61.784,9.550,10.430,13.120,2.176,13.666,7.746,15.014,1.500,4.704
Fri Nov 22 19:35:01 2024,145,-16.800,-16.800,-4.306,-4.306,-4.123,15.330,51.860,62.072,9.688,10.292,13.225,2.260,13.522,7.767,14.942,1.483,4.720
Fri Nov 22 19:35:01 2024,150,-16.498,-16.498,-4.234,-4.234,-3.978,15.562,52.155,62.905,9.804,10.165,13.393,2.344,13.364,7.860,14.807,1.468,4.763
Fri Nov 22 19:35:01 2024,155,-16.287,-16.287,-4.177,-4.177,-3.885,15.761,52.319,63.373,9.902,10.061,13.503,2.409,13.244,7.908,14.721,1.455,4.787
Fri Nov 22 19:35:01 2024,160,-16.032,-16.032,-4.031,-4.031,-3.718,16.002,53.066,64.554,9.941,10.035,13.609,2.353,13.206,7.959,14.533,1.648,4.837
Fri Nov 22 19:35:01 2024,165,-15.866,-15.866,-3.952,-3.952,-3.618,16.162,53.444,65.205,9.983,9.998,13.683,2.343,13.159,7.994,14.427,1.732,4.866
Fri Nov 22 19:35:01 2024,170,-15.510,-15.510,-4.093,-4.093,-3.536,16.123,54.438,66.944,9.984,10.001,13.758,2.251,13.302,8.002,14.234,2.005,4.806
Fri Nov 22 19:35:01 2024,175,-15.238,-15.238,-4.196,-4.196,-3.468,16.099,55.209,68.276,9.987,10.002,13.817,2.181,13.407,8.009,14.086,2.214,4.761
Fri Nov 22 19:35:01 2024,180,-14.769,-14.769,-4.518,-4.518,-3.470,15.948,56.593,70.412,9.947,10.047,13.904,2.180,13.489,8.040,13.990,2.501,4.768
Fri Nov 22 19:35:01 2024,185,-14.298,-14.298,-4.880,-4.880,-3.503,15.759,58.033,72.533,9.894,10.103,13.988,2.209,13.545,8.077,13.933,2.770,4.798
Fri Nov 22 19:35:01 2024,190,-13.934,-13.934,-5.162,-5.162,-3.528,15.605,59.177,74.177,9.853,10.146,14.054,2.232,13.589,8.106,13.887,2.977,4.822
Fri Nov 22 19:35:01 2024,195,-13.585,-13.585,-5.195,-5.195,-3.314,15.655,61.095,76.708,10.008,9.990,14.246,2.526,13.807,8.256,13.973,2.991,4.863
Fri Nov 22 19:35:01 2024,200,-13.264,-13.264,-5.286,-5.286,-3.177,15.652,62.695,78.756,10.100,9.892,14.392,2.727,13.950,8.366,14.019,3.050,4.897
Fri Nov 22 19:35:01 2024,205,-13.098,-13.098,-5.286,-5.286,-3.011,15.490,64.624,81.102,10.110,9.858,14.395,2.856,14.058,8.302,14.035,3.112,4.859
Fri Nov 22 19:35:01 2024,210,-12.939,-12.939,-5.288,-5.288,-2.854,15.343,66.532,83.298,10.119,9.813,14.398,2.980,14.158,8.242,14.052,3.171,4.822
Fri Nov 22 19:35:01 2024,215,-12.793,-12.793,-5.270,-5.270,-2.642,15.255,68.860,85.815,10.180,9.684,14.447,3.100,14.247,8.153,14.050,3.226,4.756
Fri Nov 22 19:35:01 2024,220,-12.715,-12.715,-5.246,-5.246,-2.480,15.254,70.536,87.513,10.253,9.546,14.508,3.170,14.294,8.081,14.038,3.258,4.698
Fri Nov 22 19:35:01 2024,225,-12.634,-12.634,-5.223,-5.223,-2.316,15.278,72.286,89.162,10.326,9.392,14.574,3.242,14.338,8.006,14.025,3.290,4.637
Fri Nov 22 19:35:01 2024,230,-12.539,-12.539,-5.287,-5.287,-2.264,15.680,74.409,90.704,10.578,30.968,14.689,3.438,14.593,8.056,14.177,3.182,4.582
Fri Nov 22 19:35:01 2024,235,-12.456,-12.456,-5.336,-5.336,-2.210,16.051,76.282,91.982,10.784,31.280,14.788,3.599,14.772,8.087,14.295,3.099,4.533
Fri Nov 22 19:35:01 2024,240,-12.369,-12.369,-5.372,-5.372,-2.165,16.533,77.836,92.874,10.948,31.530,14.832,3.666,14.904,8.090,14.342,3.122,4.514
Fri Nov 22 19:35:01 2024,245,-12.240,-12.240,-5.377,-5.377,-2.099,17.298,79.478,93.619,11.122,31.793,14.828,3.635,15.047,8.059,14.315,3.280,4.533
Fri Nov 22 19:35:01 2024,250,-12.121,-12.121,-5.275,-5.275,-1.978,17.941,80.955,94.280,11.320,32.106,14.884,3.649,15.185,8.057,14.338,3.348,4.570
Fri Nov 22 19:35:01 2024,255,-11.986,-11.986,-5.066,-5.066,-1.807,18.581,82.409,94.895,11.554,32.486,14.982,3.674,15.330,8.069,14.383,3.384,4.633
Fri Nov 22 19:35:01 2024,260,-11.856,-11.856,-4.813,-4.813,-1.647,19.195,83.734,95.389,11.790,32.882,15.097,3.704,15.458,8.088,14.437,3.398,4.708
Fri Nov 22 19:35:01 2024,265,-11.752,-11.752,-4.614,-4.614,-1.547,19.710,84.795,95.754,11.978,33.201,15.190,3.727,15.553,8.104,14.481,3.407,4.769
Fri Nov 22 19:35:01 2024,270,-11.700,-11.700,-4.516,-4.516,-1.509,19.979,85.330,95.932,12.071,33.363,15.237,3.739,15.598,8.113,14.502,3.412,4.800
Fri Nov 22 19:35:01 2024,275,-11.683,-11.683,-4.484,-4.484,-1.499,20.070,85.507,96.001,12.102,33.415,15.253,3.743,15.611,8.115,14.510,3.413,4.810
Fri Nov 22 19:35:01 2024,280,-11.110,-11.110,-3.882,-3.882,1.392,21.038,87.548,94.484,12.843,34.813,16.258,3.489,16.264,8.264,14.091,3.857,4.291
Fri Nov 22 19:35:01 2024,285,-10.962,-10.962,-3.702,-3.702,1.396,21.440,88.305,94.267,13.054,35.220,16.505,3.444,16.391,8.300,14.020,3.950,4.206
Fri Nov 22 19:35:01 2024,290,-10.712,-10.712,-3.479,-3.479,1.431,22.275,89.617,94.309,13.444,35.908,16.904,3.394,16.558,8.270,13.862,4.164,4.109
Fri Nov 22 19:35:01 2024,295,-10.517,-10.517,-3.306,-3.306,1.483,22.959,90.646,94.328,13.750,36.454,17.226,3.355,16.641,8.247,13.738,4.332,4.034
Fri Nov 22 19:35:01 2024,300,-10.400,-10.400,-3.111,-3.111,1.550,23.659,91.547,94.283,13.981,36.912,17.507,3.314,16.675,8.259,13.614,4.492,3.962
Fri Nov 22 19:35:01 2024,305,-10.490,-10.490,-2.828,-2.828,1.620,24.417,92.176,94.083,14.024,37.154,17.682,3.267,16.677,8.377,13.480,4.646,3.892
Fri Nov 22 19:35:01 2024,310,-10.507,-10.507,-2.604,-2.604,1.694,25.112,92.838,93.945,14.124,37.451,17.880,3.225,23.356,8.452,13.360,4.788,3.830
Fri Nov 22 19:35:01 2024,315,-10.528,-10.528,-2.532,-2.532,1.705,25.213,92.949,93.802,14.171,37.501,18.154,3.283,23.443,8.576,13.208,4.826,3.699
Fri Nov 22 19:35:01 2024,320,-10.550,-10.550,-2.431,-2.431,1.732,25.444,93.176,93.666,14.229,37.604,18.401,3.316,23.523,8.686,13.071,4.883,3.591
Fri Nov 22 19:35:01 2024,325,-10.642,-10.642,-2.298,-2.298,1.810,26.029,93.669,93.602,14.311,37.832,18.635,3.404,23.669,8.730,13.131,4.857,3.524
Fri Nov 22 19:35:01 2024,330,-10.744,-10.744,-2.166,-2.166,1.896,26.666,94.194,93.549,14.395,38.077,18.861,3.499,23.825,8.762,13.223,4.817,3.468
Fri Nov 22 19:35:01 2024,335,-10.822,-10.822,-2.066,-2.066,1.967,27.169,94.603,93.501,14.463,38.270,19.045,3.574,23.952,8.791,13.287,4.789,3.420
Fri Nov 22 19:35:01 2024,340,-10.927,-10.927,-2.009,-2.009,2.027,27.429,94.864,93.312,14.455,38.292,19.128,3.523,23.913,8.763,13.151,4.767,3.266
Fri Nov 22 19:35:01 2024,345,-11.018,-11.018,-1.945,-1.945,2.089,27.754,95.154,93.175,14.471,38.366,19.239,3.513,23.929,8.755,13.083,4.741,3.153
Fri Nov 22 19:35:01 2024,350,-10.963,-10.963,-1.998,-1.998,1.988,28.153,95.345,93.294,14.554,38.411,19.325,3.532,23.992,8.827,13.178,4.686,3.131
Fri Nov 22 19:35:01 2024,355,-10.933,-10.933,-2.035,-2.035,1.914,28.538,95.548,93.369,14.625,38.460,19.413,3.547,24.048,8.885,13.246,4.637,3.096
Fri Nov 22 19:35:01 2024,360,-10.909,-10.909,-2.067,-2.067,1.855,28.853,95.713,93.428,14.684,38.500,19.486,3.559,24.094,8.933,13.302,4.596,3.068
Fri Nov 22 19:35:01 2024,365,-10.954,-10.954,-1.978,-1.978,1.940,28.909,95.833,93.123,14.720,38.479,19.447,3.652,24.020,8.909,13.460,4.427,3.155
Fri Nov 22 19:35:01 2024,370,-10.972,-10.972,-1.942,-1.942,1.963,29.046,95.953,92.982,14.759,38.482,19.452,3.705,24.007,8.912,13.563,4.325,3.191
Fri Nov 22 19:35:01 2024,375,-10.940,-10.940,-1.966,-1.966,1.966,29.188,96.069,93.146,14.757,38.406,19.315,3.729,23.997,8.950,13.652,4.225,3.191
Fri Nov 22 19:35:01 2024,380,-10.925,-10.925,-1.975,-1.975,1.974,29.312,96.171,93.231,14.764,38.354,19.222,3.756,23.991,8.976,13.732,4.137,3.198
Fri Nov 22 19:35:01 2024,385,-10.846,-10.846,-2.088,-2.088,1.860,29.318,96.026,93.283,14.728,38.247,19.104,3.904,24.123,8.985,13.816,4.026,3.189
Fri Nov 22 19:35:01 2024,390,-10.756,-10.756,-2.226,-2.226,1.735,29.316,95.850,93.335,14.687,38.129,18.975,4.074,24.278,8.992,13.908,3.905,3.177
Fri Nov 22 19:35:01 2024,395,-10.683,-10.683,-2.342,-2.342,1.636,29.316,95.705,93.375,14.654,38.032,18.869,4.213,24.406,8.999,13.983,3.805,3.167
Fri Nov 22 19:35:01 2024,400,-10.665,-10.665,-2.435,-2.435,1.581,28.716,95.132,93.301,14.544,37.766,18.554,4.332,24.462,8.819,13.984,3.744,3.034
Fri Nov 22 19:35:01 2024,405,-10.633,-10.633,-2.527,-2.527,1.533,28.370,94.750,93.264,14.469,37.581,18.337,4.445,15.458,8.715,14.008,3.677,2.953
Fri Nov 22 19:35:01 2024,410,-10.506,-10.506,-2.704,-2.704,1.462,27.703,94.243,93.353,14.400,37.462,18.055,4.524,15.360,8.713,13.971,3.682,2.944
Fri Nov 22 19:35:01 2024,415,-10.398,-10.398,-2.861,-2.861,1.412,27.126,93.787,93.418,14.336,37.347,17.804,4.600,24.730,8.702,13.943,3.679,2.929
Fri Nov 22 19:35:01 2024,420,-10.317,-10.317,-2.980,-2.980,1.380,26.696,93.444,93.465,14.287,37.260,17.616,4.657,24.797,8.694,13.922,3.678,2.918
Fri Nov 22 19:35:01 2024,425,-10.128,-10.128,-3.125,-3.125,1.406,25.719,92.820,93.634,14.164,37.005,17.338,4.718,15.182,8.567,14.024,3.585,3.032
Fri Nov 22 19:35:01 2024,430,-10.014,-10.014,-3.233,-3.233,1.418,25.133,92.415,93.722,14.090,36.860,17.149,4.764,15.148,8.504,14.064,3.541,3.082
Fri Nov 22 19:35:01 2024,435,-9.780,-9.780,-3.536,-3.536,1.417,24.102,91.336,93.977,13.950,36.614,16.906,5.015,20.052,8.530,14.162,3.418,3.097
Fri Nov 22 19:35:01 2024,440,-9.617,-9.617,-3.748,-3.748,1.443,23.362,90.575,94.142,13.847,36.432,16.721,5.183,25.342,8.534,14.231,3.334,3.116
Fri Nov 22 19:35:01 2024,445,-9.484,-9.484,-3.947,-3.947,1.468,22.411,89.765,94.526,13.579,36.057,16.451,5.275,25.420,8.526,14.278,3.285,3.190
Fri Nov 22 19:35:01 2024,450,-9.391,-9.391,-4.092,-4.092,1.492,21.700,89.160,94.828,13.360,35.760,16.246,5.334,14.535,8.518,14.310,3.254,3.252
Fri Nov 22 19:35:01 2024,455,-9.302,-9.302,-4.234,-4.234,1.516,21.023,88.574,95.116,13.149,35.472,16.049,5.391,14.492,8.511,14.340,3.223,3.311
Fri Nov 22 19:35:01 2024,460,-9.117,-9.117,-4.566,-4.566,-1.555,19.813,87.350,95.137,12.810,35.039,15.699,5.426,14.452,8.492,14.364,3.225,3.273
Fri Nov 22 19:35:01 2024,465,-8.997,-8.997,-4.781,-4.781,-1.594,19.024,86.546,95.205,12.575,34.735,15.463,5.459,14.420,8.480,14.384,3.219,3.269
Fri Nov 22 19:35:01 2024,470,-8.852,-8.852,-4.980,-4.980,-1.655,17.618,85.248,94.899,12.365,34.434,15.442,5.543,14.346,8.535,14.421,3.215,3.371
Fri Nov 22 19:35:01 2024,475,-8.715,-8.715,-5.175,-5.175,-1.722,16.368,84.030,94.596,12.161,34.144,15.407,5.620,14.278,8.584,14.455,3.211,3.462
Fri Nov 22 19:35:01 2024,480,-8.615,-8.615,-5.475,-5.475,-1.835,15.550,82.691,94.238,12.008,33.836,15.293,5.729,14.189,8.563,14.467,3.203,3.423
Fri Nov 22 19:35:01 2024,485,-8.549,-8.549,-5.774,-5.774,-1.959,15.015,81.495,93.884,11.894,33.567,15.167,5.833,14.102,8.521,14.470,3.196,3.347
Fri Nov 22 19:35:01 2024,490,-8.491,-8.491,-6.056,-6.056,-2.085,14.540,80.379,93.525,11.788,33.319,15.051,5.932,14.020,8.481,14.473,3.189,3.280
Fri Nov 22 19:35:01 2024,495,-8.567,-8.567,-6.280,-6.280,-2.494,13.784,78.445,92.130,11.673,33.062,14.843,5.909,14.039,8.245,14.392,3.232,3.123
Fri Nov 22 19:35:01 2024,500,-8.610,-8.610,-6.477,-6.477,-2.801,13.263,77.017,91.075,11.579,32.857,14.693,5.913,14.037,8.088,14.341,3.258,3.016
Fri Nov 22 19:35:01 2024,505,-8.769,-8.769,-6.722,-6.722,-3.315,12.725,74.870,88.847,11.563,32.698,14.505,6.028,13.931,7.924,14.340,3.150,2.802
Fri Nov 22 19:35:01 2024,510,-9.201,-9.201,-7.062,-7.062,-4.267,12.192,71.190,83.980,11.731,32.661,14.239,6.401,13.584,7.755,14.458,2.728,2.348
Fri Nov 22 19:35:01 2024,515,-9.450,-9.450,-7.284,-7.284,-4.827,11.913,69.079,81.082,11.791,32.604,14.078,6.589,13.404,7.635,14.503,2.517,2.104
Fri Nov 22 19:35:01 2024,520,-9.222,-9.222,-7.570,-7.570,-5.184,11.875,69.132,79.308,11.526,24.059,13.348,6.551,13.440,7.661,14.250,2.467,2.065
Fri Nov 22 19:35:01 2024,525,-9.160,-9.160,-7.790,-7.790,-5.524,11.792,68.618,77.575,11.398,8.384,12.909,6.581,13.378,7.645,14.124,2.372,1.995
Fri Nov 22 19:35:01 2024,530,-8.872,-8.872,-7.498,-7.498,-5.974,11.475,64.907,69.616,11.301,8.629,12.773,6.536,13.106,7.573,13.642,2.363,2.005
Fri Nov 22 19:35:01 2024,535,-8.597,-8.597,-7.083,-7.083,-6.388,11.216,60.899,60.988,11.245,8.751,12.758,6.496,12.631,7.501,13.129,2.347,2.044
Fri Nov 22 19:35:01 2024,540,-8.459,-8.459,-6.838,-6.838,-6.717,11.114,58.317,55.316,11.206,8.780,12.685,6.500,12.095,7.458,12.775,2.277,2.070
Fri Nov 22 19:35:01 2024,545,-8.421,-8.421,-6.396,-6.396,-7.082,9.944,50.887,43.178,11.134,8.793,12.548,6.013,11.756,7.413,12.542,2.455,2.540
Fri Nov 22 19:35:01 2024,550,-8.420,-8.420,-6.068,-6.068,-7.397,9.468,46.326,36.335,11.095,8.735,12.449,5.772,11.209,7.378,12.295,2.511,2.810
Fri Nov 22 19:35:01 2024,555,-8.551,-8.551,-6.084,-6.084,-7.454,8.702,43.891,31.940,10.837,8.890,12.195,6.171,11.030,7.324,12.492,2.482,3.015
Fri Nov 22 19:35:01 2024,560,-8.648,-8.648,-6.031,-6.031,-7.557,8.093,41.296,27.856,10.648,8.958,11.993,6.408,10.785,7.278,12.583,2.473,3.216
Fri Nov 22 19:35:01 2024,565,-8.753,-8.753,-5.939,-5.939,-7.587,7.476,38.846,24.423,10.409,9.070,11.779,6.656,10.516,7.167,12.673,2.425,3.320
Fri Nov 22 19:35:01 2024,570,-8.886,-8.886,-5.746,-5.746,-7.462,6.742,36.384,21.370,10.034,9.334,11.513,6.956,10.164,6.902,12.777,2.288,3.236
Fri Nov 22 19:35:01 2024,575,-8.999,-8.999,-5.610,-5.610,-7.407,6.104,34.133,18.605,9.736,9.501,11.284,7.212,9.871,6.715,12.868,2.196,3.259
Fri Nov 22 19:35:01 2024,580,-9.207,-9.207,-5.867,-5.867,-7.884,5.305,32.256,15.983,9.251,10.068,11.076,7.336,9.834,6.492,13.082,2.191,3.150
Fri Nov 22 19:35:01 2024,585,-9.352,-9.352,-5.967,-5.967,-8.122,4.713,30.708,14.020,8.918,10.412,10.908,7.467,9.738,6.325,13.220,2.162,3.122
Fri Nov 22 19:35:01 2024,590,-9.499,-9.499,-6.079,-6.079,-8.300,3.827,28.940,12.660,8.598,10.612,10.695,7.588,9.686,6.378,13.335,2.364,3.158
Fri Nov 22 19:35:01 2024,595,-9.646,-9.646,-6.188,-6.188,-8.480,2.984,27.238,11.320,8.279,10.814,10.488,7.707,9.629,6.408,13.450,2.533,3.193
Fri Nov 22 19:35:01 2024,600,-9.796,-9.796,-6.255,-6.255,-8.624,2.285,25.931,10.404,8.031,10.985,10.314,7.812,9.544,6.398,13.554,2.689,3.212
Fri Nov 22 19:35:01 2024,605,-10.032,-10.032,-6.283,-6.283,-8.780,1.458,24.604,9.684,7.774,11.208,10.106,7.946,9.364,6.310,13.695,2.910,3.203
Fri Nov 22 19:35:01 2024,610,-10.196,-10.196,-6.314,-6.314,-8.900,0.848,23.614,9.099,7.576,11.367,9.954,8.040,9.248,6.260,13.796,3.052,3.204
Fri Nov 22 19:35:01 2024,615,-10.463,-10.463,-6.206,-6.206,-8.852,0.083,22.704,8.706,7.206,11.526,9.689,8.024,9.193,6.151,13.798,3.073,3.184
Fri Nov 22 19:35:01 2024,620,-10.697,-10.697,-6.135,-6.135,-8.846,-0.625,22.022,8.301,6.889,11.664,9.464,8.032,9.127,6.061,13.824,3.119,3.171
Fri Nov 22 19:35:01 2024,625,-10.818,-10.818,-6.061,-6.061,-8.823,-1.018,21.702,7.949,6.783,11.660,9.231,8.034,8.962,5.876,13.765,3.122,3.171
Fri Nov 22 19:35:01 2024,630,-10.909,-10.909,-5.979,-5.979,-8.791,-1.334,21.550,7.586,6.743,11.605,8.974,8.032,8.743,5.640,13.668,3.109,3.178
Fri Nov 22 19:35:01 2024,635,-10.999,-10.999,-5.912,-5.912,-8.767,-1.630,21.660,7.293,6.685,11.574,8.764,8.030,8.574,5.457,13.598,3.103,3.184
Fri Nov 22 19:35:01 2024,640,-11.017,-11.017,-5.746,-5.746,-8.629,-1.843,21.846,7.214,6.799,11.520,8.825,7.985,8.679,5.574,13.504,3.288,3.213
Fri Nov 22 19:35:01 2024,645,-11.054,-11.054,-5.630,-5.630,-8.541,-2.050,19.890,7.088,6.850,11.480,8.800,7.958,8.694,5.591,13.428,3.395,3.233
Fri Nov 22 19:35:01 2024,650,-11.020,-11.020,-5.563,-5.563,-8.566,-2.184,17.711,6.952,6.929,11.478,8.791,7.958,8.649,5.511,13.381,3.501,3.227
Fri Nov 22 19:35:01 2024,655,-10.992,-10.992,-5.490,-5.490,-8.583,-2.328,17.482,6.813,7.010,11.470,8.779,7.956,8.609,5.438,13.329,3.611,3.224
Fri Nov 22 19:35:01 2024,660,-10.997,-10.997,-5.366,-5.366,-8.498,-2.544,17.128,6.739,7.148,11.380,8.798,8.019,8.518,5.410,13.254,3.641,3.222
Fri Nov 22 19:35:01 2024,665,-11.018,-11.018,-5.225,-5.225,-8.363,-2.782,16.729,6.708,7.308,11.250,8.832,8.116,8.405,5.411,13.172,3.622,3.222
Fri Nov 22 19:35:01 2024,670,-11.033,-11.033,-5.100,-5.100,-8.250,-2.995,16.357,6.668,7.451,11.140,8.858,8.197,8.307,5.404,13.097,3.616,3.224
Fri Nov 22 19:35:01 2024,675,-11.020,-11.020,-5.011,-5.011,-8.239,-3.203,16.050,6.540,7.676,11.108,8.816,8.439,8.282,5.354,13.159,3.681,3.250
Fri Nov 22 19:35:01 2024,680,-11.018,-11.018,-4.926,-4.926,-8.210,-3.386,15.766,6.444,7.857,11.055,8.792,8.619,8.241,5.318,13.186,3.723,3.268
Fri Nov 22 19:35:01 2024,685,-11.003,-11.003,-4.843,-4.843,-8.145,-3.538,15.473,6.363,8.164,10.869,8.796,8.773,8.174,5.295,13.253,3.705,3.285
Fri Nov 22 19:35:01 2024,690,-10.983,-10.983,-4.748,-4.748,-8.054,-3.702,15.122,6.274,8.580,10.586,8.812,8.940,8.083,5.276,13.349,3.658,3.305
Fri Nov 22 19:35:01 2024,695,-10.974,-10.974,-4.676,-4.676,-7.988,-3.832,14.852,6.203,8.879,10.379,8.821,9.072,8.016,5.258,13.417,3.630,3.321
Fri Nov 22 19:35:01 2024,700,-10.976,-10.976,-4.335,-4.335,-7.832,-4.046,14.462,6.138,9.158,10.274,8.881,9.048,8.039,5.169,13.440,3.503,3.322
Fri Nov 22 19:35:01 2024,705,-10.975,-10.975,-4.112,-4.112,-7.720,-4.211,14.151,6.076,9.408,10.134,8.920,9.072,8.034,5.113,13.473,3.419,3.328
Fri Nov 22 19:35:01 2024,710,-10.973,-10.973,-4.058,-4.058,-7.727,-4.414,13.845,6.003,9.810,9.948,9.163,9.011,8.055,5.033,13.478,3.316,3.323
Fri Nov 22 19:35:01 2024,715,-10.970,-10.970,-3.982,-3.982,-7.720,-4.620,13.526,5.928,10.205,9.693,9.390,8.957,8.075,4.952,13.484,3.211,3.325
Fri Nov 22 19:35:01 2024,720,-10.986,-10.986,-3.805,-3.805,-7.624,-4.750,13.320,5.885,10.636,9.340,9.696,8.932,8.125,4.947,13.552,3.090,3.341
Fri Nov 22 19:35:01 2024,725,-11.028,-11.028,-3.479,-3.479,-7.409,-4.826,13.191,5.867,11.202,8.782,10.157,8.932,8.219,5.024,13.704,2.923,3.374
Fri Nov 22 19:35:01 2024,730,-11.057,-11.057,-3.236,-3.236,-7.256,-4.909,13.054,5.842,11.654,8.240,10.512,8.924,8.289,5.068,13.813,2.788,3.399
Fri Nov 22 19:35:01 2024,735,-11.067,-11.067,-3.146,-3.146,-7.251,-5.022,12.887,5.848,12.041,7.636,11.071,8.901,8.546,5.220,13.764,2.722,3.406
Fri Nov 22 19:35:01 2024,740,-11.082,-11.082,-3.006,-3.006,-7.204,-5.132,12.716,5.845,12.462,33.097,11.599,8.880,8.761,5.353,13.756,2.630,3.423
Fri Nov 22 19:35:01 2024,745,-11.090,-11.090,-2.781,-2.781,-7.058,-5.139,12.620,5.870,12.848,33.890,12.210,8.812,8.969,5.534,13.776,2.438,3.439
Fri Nov 22 19:35:01 2024,750,-11.096,-11.096,-2.614,-2.614,-6.947,-5.143,12.546,5.888,13.131,34.528,12.660,8.762,9.122,5.671,13.791,2.290,3.457
Fri Nov 22 19:35:01 2024,755,-11.101,-11.101,-2.445,-2.445,-6.835,-5.147,12.472,5.907,13.417,35.210,13.111,8.709,9.279,5.812,13.805,2.138,3.482
Fri Nov 22 19:35:01 2024,760,-11.138,-11.138,-2.324,-2.324,-6.756,-5.204,12.523,5.904,13.571,35.833,13.586,8.667,9.624,6.011,13.865,1.937,3.569
Fri Nov 22 19:35:01 2024,765,-11.175,-11.175,-2.212,-2.212,-6.682,-5.261,12.577,5.900,13.710,36.439,14.039,8.626,9.958,6.206,13.925,1.740,3.663
Fri Nov 22 19:35:01 2024,770,-11.199,-11.199,-2.113,-2.113,-6.616,-5.299,12.598,5.901,13.841,36.970,14.400,8.590,10.186,6.356,13.964,1.585,3.739
Fri Nov 22 19:35:01 2024,775,-10.975,-10.975,-2.048,-2.048,-6.453,-5.220,12.581,5.828,14.086,37.818,14.966,8.423,10.861,6.913,14.212,1.427,3.746
Fri Nov 22 19:35:01 2024,780,-10.924,-10.924,-1.942,-1.942,-6.337,-5.229,12.590,5.810,14.259,38.460,15.375,8.331,11.182,7.207,14.380,1.297,3.785
Fri Nov 22 19:35:01 2024,785,-10.942,-10.942,-1.740,-1.740,-6.162,-5.298,12.620,5.820,14.501,39.290,15.896,8.221,11.500,7.526,14.671,1.157,3.832
Fri Nov 22 19:35:01 2024,790,-10.937,-10.937,-1.624,-1.624,-6.052,-5.331,12.635,5.820,14.653,39.852,16.238,8.141,11.695,7.753,14.849,1.055,3.866
Fri Nov 22 19:35:01 2024,795,-10.891,-10.891,-1.515,-1.515,-5.889,-5.220,12.694,5.798,15.016,41.070,17.083,8.000,11.976,8.179,15.085,0.904,3.937
Fri Nov 22 19:35:01 2024,800,-10.861,-10.861,-1.430,-1.430,-5.766,-5.153,12.734,5.784,15.269,41.965,17.679,7.890,12.106,8.497,15.267,0.788,3.991
Fri Nov 22 19:35:01 2024,805,-10.796,-10.796,-1.454,-1.454,-5.654,-5.073,12.721,5.777,15.460,42.812,18.566,7.726,12.199,8.825,15.481,0.703,3.995
Fri Nov 22 19:35:01 2024,810,-10.626,-10.626,-1.692,-1.692,-5.493,-4.914,12.595,5.779,15.654,44.103,20.585,7.358,27.709,9.370,15.887,0.626,3.908
Fri Nov 22 19:35:01 2024,815,-10.527,-10.527,-1.810,-1.810,-5.380,-4.808,12.526,5.774,15.806,45.043,21.866,7.117,27.804,9.732,16.150,0.552,3.878
Fri Nov 22 19:35:01 2024,820,-10.587,-10.587,-1.877,-1.877,-5.014,-4.451,12.873,6.040,16.151,46.737,25.155,6.865,28.594,10.101,16.840,0.264,3.825
Fri Nov 22 19:35:01 2024,825,-10.598,-10.598,-1.944,-1.944,-4.797,-4.236,13.032,6.179,16.371,47.914,27.256,6.663,29.249,10.363,17.264,0.079,3.792
Fri Nov 22 19:35:01 2024,830,-10.652,-10.652,-1.771,-1.771,-4.458,-3.826,13.259,6.287,16.472,48.737,29.257,6.495,30.200,10.948,17.892,-0.282,3.539
Fri Nov 22 19:35:01 2024,835,-10.693,-10.693,-1.651,-1.651,-4.190,-3.499,13.434,6.382,16.568,49.487,31.004,6.341,31.059,11.398,18.399,-0.581,3.381
Fri Nov 22 19:35:01 2024,840,-10.731,-10.731,-1.540,-1.540,-3.945,-3.197,13.589,6.471,16.656,50.196,32.656,6.194,31.903,11.805,18.869,-0.867,3.264
Fri Nov 22 19:35:01 2024,845,-10.964,-10.964,-1.396,-1.396,-3.565,-3.205,12.802,6.676,17.085,50.331,33.570,6.299,34.131,12.550,19.335,-1.397,3.050
Fri Nov 22 19:35:01 2024,850,-11.090,-11.090,-1.290,-1.290,-3.303,-3.109,12.450,6.806,17.332,50.636,34.616,6.299,35.540,13.019,19.718,-1.753,2.920
Fri Nov 22 19:35:01 2024,855,-11.054,-11.054,-0.960,-0.960,-3.060,-2.868,12.193,7.001,17.213,49.240,34.242,6.231,36.116,12.879,19.927,-1.664,3.121
Fri Nov 22 19:35:01 2024,860,-11.064,-11.064,-0.730,-0.730,-2.850,-2.694,11.947,7.157,17.202,48.419,34.150,6.183,36.784,12.882,20.140,-1.695,3.260
Fri Nov 22 19:35:01 2024,865,-11.006,-11.006,-0.528,-0.528,-2.714,-2.569,11.950,7.335,17.353,47.537,33.726,5.840,37.057,12.842,20.251,-1.676,3.453
Fri Nov 22 19:35:01 2024,870,-10.790,-10.790,-0.262,-0.262,-2.622,-2.450,12.396,7.669,17.909,45.976,32.352,4.746,36.847,12.710,20.259,-1.547,3.831
Fri Nov 22 19:35:01 2024,875,-10.692,-10.692,-0.205,0.205,-2.518,-2.347,12.598,7.902,18.299,44.902,31.058,4.077,36.910,12.627,20.310,-1.481,4.120
Fri Nov 22 19:35:01 2024,880,-11.080,-11.080,0.226,0.899,-2.306,-2.226,13.598,9.204,21.747,44.830,27.130,4.128,37.130,13.888,19.830,-1.190,4.290
Fri Nov 22 19:35:01 2024,885,-11.279,-11.279,1.434,1.434,-2.166,-2.126,14.235,10.012,23.726,19.866,24.665,3.958,37.284,14.603,19.564,-1.004,4.506
Fri Nov 22 19:35:01 2024,890,-11.383,-11.383,1.737,1.737,-1.951,-1.734,15.085,10.143,23.313,45.334,25.646,4.270,38.279,15.277,19.403,-0.651,4.593
Fri Nov 22 19:35:01 2024,895,-11.492,-11.492,2.032,2.032,-1.803,-1.405,15.841,10.329,23.152,45.539,26.228,4.514,39.113,15.908,19.248,-0.353,4.693
Fri Nov 22 19:35:01 2024,900,-11.496,-11.496,2.125,2.125,-0.630,-1.069,16.428,10.476,23.061,46.155,27.301,4.585,39.805,16.631,19.335,-0.234,4.910
Fri Nov 22 19:35:01 2024,905,-11.316,-11.316,1.934,1.934,1.560,-0.480,17.123,10.661,23.001,47.986,30.074,4.403,40.746,18.042,19.891,-0.366,5.508
Fri Nov 22 19:35:01 2024,910,-11.293,-11.293,1.847,1.847,1.587,0.061,17.676,10.969,23.085,49.748,32.701,4.273,41.534,19.519,20.190,-0.494,5.985
Fri Nov 22 19:35:01 2024,915,-11.402,-11.402,1.769,1.769,1.650,0.632,18.036,11.420,23.435,51.592,35.577,4.113,42.171,21.249,20.364,-0.630,6.386
Fri Nov 22 19:35:01 2024,920,-11.516,-11.516,1.697,1.697,1.764,1.162,18.172,11.851,23.766,53.377,38.267,3.963,42.764,22.932,20.520,-0.756,6.842
Fri Nov 22 19:35:01 2024,925,-11.567,-11.567,1.658,1.658,1.868,1.526,18.150,12.234,23.856,54.686,40.660,3.828,43.444,24.470,20.662,-0.876,7.246
Fri Nov 22 19:35:01 2024,930,-11.576,-11.576,1.634,1.634,1.980,1.882,18.030,12.727,23.756,56.071,43.760,3.659,44.481,26.492,20.848,-1.036,7.739
