Timestamp,Millis,thumb_tm_aa,thumb_tm_flex,thumb_mcp_aa,thumb_mcp_flex,thumb_ip,index_mcp_aa,index_mcp_flex,index_pip,middle_mcp_aa,middle_mcp_flex,middle_pip,ring_mcp_aa,ring_mcp_flex,ring_pip,little_mcp_aa,little_mcp_flex,little_pip
Fri Nov 22 19:21:13 2024,80,-8.550,8.550,-9.439,-9.439,-10.537,-0.167,16.462,6.554,5.556,13.042,10.295,-2.905,8.163,6.812,13.984,4.276,4.704
Fri Nov 22 19:21:13 2024,85,-8.612,8.612,-9.465,-9.465,-10.560,-0.144,16.553,6.583,5.558,13.056,10.314,-2.883,8.231,6.842,13.982,4.315,4.725
Fri Nov 22 19:21:13 2024,90,-8.530,8.530,-9.449,-9.449,-10.527,-0.188,16.330,6.567,5.511,13.055,10.329,-2.952,8.084,6.837,14.019,4.203,4.744
Fri Nov 22 19:21:13 2024,95,-8.521,8.521,-9.452,-9.452,-10.523,-0.196,16.275,6.571,5.493,13.059,10.342,-2.971,8.051,6.846,14.032,4.172,4.760
Fri Nov 22 19:21:13 2024,100,-8.459,8.459,-9.518,-9.518,-10.572,-0.216,16.327,6.571,5.545,13.103,10.420,-2.907,8.190,6.909,14.113,4.138,4.783
Fri Nov 22 19:21:13 2024,105,-8.423,8.423,-9.555,-9.555,-10.597,-0.231,16.339,6.572,5.568,13.127,10.467,-2.878,8.256,6.947,14.161,4.111,4.799
Fri Nov 22 19:21:13 2024,110,-8.398,8.398,-9.580,-9.580,-10.614,-0.240,16.347,6.572,5.584,13.143,10.498,-2.858,8.302,6.972,14.193,4.092,4.810
Fri Nov 22 19:21:13 2024,115,-8.384,8.384,-9.490,-9.490,-10.574,-0.250,16.406,6.640,5.540,13.048,10.410,-2.912,8.158,6.884,14.172,4.082,4.800
Fri Nov 22 19:21:13 2024,120,-8.369,8.369,-9.468,-9.468,-10.568,-0.258,16.431,6.664,5.531,13.020,10.391,-2.922,8.127,6.863,14.177,4.070,4.800
Fri Nov 22 19:21:13 2024,125,-8.354,8.354,-9.479,-9.479,-10.560,-0.268,16.396,6.630,5.537,13.071,10.409,-2.940,8.066,6.863,14.230,4.025,4.819
Fri Nov 22 19:21:13 2024,130,-8.342,8.342,-9.478,-9.478,-10.553,-0.276,16.387,6.621,5.538,13.087,10.412,-2.952,8.028,6.856,14.258,4.000,4.828
Fri Nov 22 19:21:13 2024,135,-8.331,8.331,-9.476,-9.476,-10.548,-0.282,16.379,6.613,5.538,13.101,10.414,-2.962,7.995,6.850,14.281,3.978,4.836
Fri Nov 22 19:21:13 2024,140,-8.382,8.382,-9.482,-9.482,-10.499,-0.311,16.179,6.738,5.506,12.985,10.467,-2.922,8.024,6.926,14.221,3.950,4.742
Fri Nov 22 19:21:13 2024,145,-8.394,8.394,-9.484,-9.484,-10.480,-0.322,16.108,6.778,5.495,12.951,10.485,-2.913,8.022,6.951,14.209,3.932,4.714
Fri Nov 22 19:21:13 2024,150,-8.378,8.378,-9.500,-9.500,-10.567,-0.297,16.329,6.639,5.477,13.043,10.407,-2.908,8.018,6.861,14.231,3.952,4.717
Fri Nov 22 19:21:13 2024,155,-8.373,8.373,-9.509,-9.509,-10.608,-0.288,16.423,6.578,5.462,13.080,10.370,-2.901,8.015,6.821,14.238,3.956,4.708
Fri Nov 22 19:21:13 2024,160,-8.370,8.370,-9.516,-9.516,-10.636,-0.282,16.487,6.536,5.452,13.105,10.346,-2.896,8.012,6.794,14.242,3.958,4.701
Fri Nov 22 19:21:13 2024,165,-8.369,8.369,-9.518,-9.518,-10.647,-0.279,16.514,6.519,5.448,13.116,10.336,-2.894,8.012,6.783,14.244,3.960,4.698
Fri Nov 22 19:21:13 2024,170,-8.369,8.369,-9.519,-9.519,-10.650,-0.279,16.522,6.513,5.446,13.119,10.332,-2.894,8.012,6.779,14.245,3.960,4.698
Fri Nov 22 19:21:13 2024,175,-8.328,8.328,-9.533,-9.533,-10.601,-0.312,16.386,6.668,5.508,13.108,10.475,-2.921,8.089,6.884,14.225,4.034,4.797
Fri Nov 22 19:21:13 2024,180,-8.317,8.317,-9.540,-9.540,-10.602,-0.318,16.382,6.686,5.519,13.116,10.498,-2.925,8.107,6.898,14.222,4.053,4.818
Fri Nov 22 19:21:13 2024,185,-8.344,8.344,-9.554,-9.554,-10.617,-0.307,16.364,6.692,5.532,13.104,10.493,-2.921,8.099,6.895,14.225,4.036,4.800
Fri Nov 22 19:21:13 2024,190,-8.467,8.467,-9.600,-9.600,-10.676,-0.258,16.301,6.678,5.566,13.038,10.429,-2.895,8.035,6.860,14.241,3.935,4.686
Fri Nov 22 19:21:13 2024,195,-8.514,8.514,-9.620,-9.620,-10.699,-0.239,16.276,6.677,5.582,13.014,10.409,-2.885,8.014,6.849,14.247,3.899,4.646
Fri Nov 22 19:21:13 2024,200,-8.517,8.517,-9.595,-9.595,-10.650,-0.242,16.463,6.696,5.585,13.052,10.483,-2.891,8.008,6.851,14.209,3.963,4.687
Fri Nov 22 19:21:13 2024,205,-8.538,8.538,-9.591,-9.591,-10.635,-0.236,16.547,6.705,5.594,13.061,10.512,-2.890,7.996,6.847,14.193,3.979,4.691
Fri Nov 22 19:21:13 2024,210,-8.505,8.505,-9.559,-9.559,-10.623,-0.232,16.469,6.694,5.606,13.049,10.530,-2.862,8.014,6.870,14.210,3.974,4.712
Fri Nov 22 19:21:13 2024,215,-8.464,8.464,-9.524,-9.524,-10.612,-0.228,16.370,6.680,5.619,13.033,10.544,-2.831,8.034,6.895,14.231,3.965,4.735
Fri Nov 22 19:21:13 2024,220,-8.443,8.443,-9.503,-9.503,-10.603,-0.225,16.325,6.674,5.628,13.026,10.557,-2.813,8.044,6.910,14.241,3.963,4.748
Fri Nov 22 19:21:13 2024,225,-8.442,8.442,-9.651,-9.651,-10.683,-0.261,16.380,6.610,5.579,13.042,10.442,-2.825,8.054,6.881,14.227,3.975,4.740
Fri Nov 22 19:21:13 2024,230,-8.434,8.434,-9.702,-9.702,-10.712,-0.274,16.385,6.582,5.563,13.046,10.401,-2.824,8.061,6.875,14.226,3.979,4.742
Fri Nov 22 19:21:13 2024,235,-8.497,8.497,-9.642,-9.642,-10.706,-0.224,16.495,6.652,5.584,13.000,10.436,-2.792,8.108,6.874,14.274,3.938,4.702
Fri Nov 22 19:21:13 2024,240,-8.530,8.530,-9.621,-9.621,-10.710,-0.200,16.557,6.685,5.592,12.976,10.445,-2.774,8.135,6.872,14.301,3.916,4.680
Fri Nov 22 19:21:13 2024,245,-8.510,8.510,-9.589,-9.589,-10.664,-0.183,16.519,6.703,5.590,12.936,10.463,-2.777,8.027,6.863,14.288,3.904,4.679
Fri Nov 22 19:21:13 2024,250,-8.464,8.464,-9.548,-9.548,-10.589,-0.170,16.431,6.716,5.585,12.886,10.486,-2.791,7.845,6.849,14.256,3.895,4.689
Fri Nov 22 19:21:13 2024,255,-8.442,8.442,-9.522,-9.522,-10.547,-0.158,16.388,6.727,5.582,12.854,10.501,-2.797,7.745,6.841,14.241,3.888,4.691
Fri Nov 22 19:21:13 2024,260,-8.454,8.454,-9.580,-9.580,-10.590,-0.178,16.423,6.772,5.547,12.905,10.518,-2.813,7.850,6.900,14.232,3.920,4.751
Fri Nov 22 19:21:13 2024,265,-8.453,8.453,-9.607,-9.607,-10.601,-0.186,16.429,6.805,5.524,12.926,10.535,-2.826,7.880,6.936,14.220,3.937,4.791
Fri Nov 22 19:21:13 2024,270,-8.433,8.433,-9.599,-9.599,-10.599,-0.179,16.426,6.776,5.508,12.919,10.493,-2.836,7.897,6.923,14.190,3.961,4.777
Fri Nov 22 19:21:13 2024,275,-8.368,8.368,-9.530,-9.530,-10.574,-0.144,16.404,6.629,5.492,12.861,10.329,-2.850,7.904,6.824,14.111,4.010,4.669
Fri Nov 22 19:21:13 2024,280,-8.336,8.336,-9.502,-9.502,-10.564,-0.129,16.395,6.564,5.479,12.836,10.253,-2.859,7.915,6.784,14.069,4.038,4.626
Fri Nov 22 19:21:13 2024,285,-8.384,8.384,-9.494,-9.494,-10.512,-0.128,16.382,6.635,5.534,12.834,10.351,-2.836,7.853,6.820,14.154,4.014,4.720
Fri Nov 22 19:21:13 2024,290,-8.400,8.400,-9.477,-9.477,-10.478,-0.122,16.371,6.653,5.562,12.822,10.380,-2.825,7.820,6.828,14.189,4.011,4.761
Fri Nov 22 19:21:13 2024,295,-8.323,8.323,-9.452,-9.452,-10.501,-0.149,16.337,6.626,5.526,12.855,10.389,-2.818,7.881,6.856,14.228,3.993,4.795
Fri Nov 22 19:21:13 2024,300,-8.265,8.265,-9.428,-9.428,-10.512,-0.171,16.308,6.608,5.501,12.879,10.401,-2.811,7.924,6.881,14.266,3.978,4.831
Fri Nov 22 19:21:13 2024,305,-8.216,8.216,-9.409,-9.409,-10.521,-0.188,16.283,6.594,5.481,12.899,10.411,-2.805,7.960,6.901,14.297,3.966,4.859
Fri Nov 22 19:21:13 2024,310,-8.292,8.292,-9.556,-9.556,-10.535,-0.126,16.277,6.608,5.520,12.867,10.430,-2.807,7.850,6.839,14.213,3.928,4.720
Fri Nov 22 19:21:13 2024,315,-8.311,8.311,-9.618,-9.618,-10.545,-0.103,16.266,6.610,5.530,12.858,10.442,-2.806,7.810,6.818,14.184,3.904,4.666
Fri Nov 22 19:21:13 2024,320,-8.254,8.254,-9.588,-9.588,-10.565,-0.126,16.305,6.614,5.537,12.877,10.452,-2.759,7.929,6.887,14.256,3.887,4.726
Fri Nov 22 19:21:13 2024,325,-8.178,8.178,-9.535,-9.535,-10.586,-0.162,16.357,6.619,5.543,12.903,10.461,-2.702,8.087,6.978,14.353,3.870,4.815
Fri Nov 22 19:21:13 2024,330,-8.132,8.132,-9.510,-9.510,-10.602,-0.183,16.389,6.623,5.549,12.919,10.469,-2.665,8.183,7.035,14.411,3.855,4.864
Fri Nov 22 19:21:13 2024,335,-8.108,8.108,-9.498,-9.498,-10.610,-0.193,16.405,6.624,5.552,12.926,10.474,-2.646,8.234,7.065,14.441,3.847,4.890
Fri Nov 22 19:21:13 2024,340,-8.146,8.146,-9.503,-9.503,-10.614,-0.184,16.412,6.618,5.557,12.918,10.454,-2.650,8.200,7.034,14.421,3.851,4.864
Fri Nov 22 19:21:13 2024,345,-8.368,8.368,-9.549,-9.549,-10.625,-0.127,16.414,6.581,5.576,12.865,10.348,-2.706,7.956,6.836,14.270,3.886,4.692
Fri Nov 22 19:21:13 2024,350,-8.419,8.419,-9.554,-9.554,-10.634,-0.115,16.425,6.571,5.583,12.854,10.319,-2.710,7.917,6.797,14.246,3.890,4.658
Fri Nov 22 19:21:13 2024,355,-8.464,8.464,-9.558,-9.558,-10.641,-0.108,16.436,6.563,5.590,12.845,10.295,-2.713,7.884,6.764,14.225,3.894,4.630
Fri Nov 22 19:21:13 2024,360,-8.443,8.443,-9.450,-9.450,-10.598,-0.140,16.532,6.597,5.552,12.928,10.364,-2.678,8.111,6.854,14.294,3.923,4.680
Fri Nov 22 19:21:13 2024,365,-8.449,8.449,-9.407,-9.407,-10.582,-0.152,16.575,6.608,5.539,12.960,10.385,-2.664,8.194,6.880,14.316,3.937,4.693
Fri Nov 22 19:21:13 2024,370,-8.433,8.433,-9.473,-9.473,-10.613,-0.162,16.454,6.559,5.556,13.006,10.381,-2.712,8.096,6.820,14.274,4.002,4.738
Fri Nov 22 19:21:13 2024,375,-8.424,8.424,-9.504,-9.504,-10.628,-0.172,16.388,6.531,5.564,13.043,10.383,-2.739,8.055,6.789,14.253,4.047,4.770
Fri Nov 22 19:21:13 2024,380,-8.418,8.418,-9.526,-9.526,-10.639,-0.179,16.340,6.510,5.569,13.071,10.385,-2.759,8.025,6.766,14.237,4.081,4.794
Fri Nov 22 19:21:13 2024,385,-8.398,8.398,-9.464,-9.464,-10.559,-0.174,16.382,6.576,5.581,12.936,10.400,-2.717,8.119,6.862,14.251,4.008,4.759
Fri Nov 22 19:21:13 2024,390,-8.386,8.386,-9.446,-9.446,-10.526,-0.176,16.380,6.599,5.590,12.884,10.408,-2.706,8.150,6.896,14.251,3.988,4.752
Fri Nov 22 19:21:13 2024,395,-8.451,8.451,-9.506,-9.506,-10.633,-0.177,16.484,6.492,5.590,13.016,10.403,-2.711,8.160,6.834,14.292,3.975,4.735
Fri Nov 22 19:21:13 2024,400,-8.482,8.482,-9.534,-9.534,-10.682,-0.179,16.536,6.441,5.592,13.071,10.402,-2.711,8.173,6.808,14.312,3.964,4.724
Fri Nov 22 19:21:13 2024,405,-8.500,8.500,-9.568,-9.568,-10.683,-0.179,16.491,6.505,5.582,13.037,10.423,-2.721,8.183,6.837,14.325,3.961,4.746
Fri Nov 22 19:21:13 2024,410,-8.509,8.509,-9.602,-9.602,-10.660,-0.176,16.397,6.624,5.568,12.956,10.452,-2.736,8.191,6.891,14.332,3.963,4.783
Fri Nov 22 19:21:13 2024,415,-8.519,8.519,-9.626,-9.626,-10.653,-0.175,16.347,6.688,5.560,12.915,10.469,-2.744,8.197,6.919,14.339,3.962,4.803
Fri Nov 22 19:21:13 2024,420,-8.498,8.498,-9.600,-9.600,-10.663,-0.229,16.466,6.591,5.509,12.998,10.419,-2.757,8.246,6.909,14.322,4.012,4.834
Fri Nov 22 19:21:13 2024,425,-8.490,8.490,-9.593,-9.593,-10.666,-0.258,16.513,6.559,5.481,13.028,10.398,-2.766,8.273,6.913,14.316,4.037,4.856
Fri Nov 22 19:21:13 2024,430,-8.524,8.524,-9.586,-9.586,-10.668,-0.242,16.530,6.569,5.520,13.089,10.474,-2.757,8.298,6.935,14.327,4.041,4.856
Fri Nov 22 19:21:13 2024,435,-8.555,8.555,-9.580,-9.580,-10.669,-0.228,16.547,6.576,5.556,13.144,10.543,-2.750,8.322,6.955,14.337,4.045,4.857
Fri Nov 22 19:21:13 2024,440,-8.579,8.579,-9.576,-9.576,-10.670,-0.220,16.560,6.583,5.583,13.185,10.597,-2.743,8.341,6.971,14.345,4.048,4.857
Fri Nov 22 19:21:13 2024,445,-8.523,8.523,-9.504,-9.504,-10.603,-0.247,16.502,6.571,5.541,13.126,10.484,-2.776,8.318,6.946,14.312,4.068,4.894
Fri Nov 22 19:21:13 2024,450,-8.499,8.499,-9.459,-9.459,-10.563,-0.260,16.472,6.566,5.527,13.106,10.438,-2.793,8.312,6.936,14.296,4.081,4.917
Fri Nov 22 19:21:13 2024,455,-8.489,8.489,-9.474,-9.474,-10.565,-0.265,16.465,6.595,5.517,13.112,10.457,-2.798,8.317,6.948,14.302,4.085,4.940
Fri Nov 22 19:21:13 2024,460,-8.488,8.488,-9.576,-9.576,-10.622,-0.260,16.484,6.687,5.505,13.154,10.576,-2.790,8.338,6.994,14.344,4.078,4.983
Fri Nov 22 19:21:13 2024,465,-8.483,8.483,-9.612,-9.612,-10.638,-0.262,16.485,6.725,5.497,13.168,10.617,-2.790,8.346,7.012,14.358,4.078,5.007
Fri Nov 22 19:21:13 2024,470,-8.433,8.433,-9.530,-9.530,-10.614,-0.227,16.428,6.670,5.513,13.113,10.555,-2.804,8.330,6.983,14.289,4.012,4.828
Fri Nov 22 19:21:13 2024,475,-8.406,8.406,-9.502,-9.502,-10.607,-0.210,16.400,6.657,5.518,13.090,10.539,-2.810,8.324,6.976,14.260,3.978,4.748
Fri Nov 22 19:21:13 2024,480,-8.459,8.459,-9.564,-9.564,-10.615,-0.189,16.367,6.640,5.516,13.052,10.509,-2.758,8.308,6.970,14.326,3.988,4.874
Fri Nov 22 19:21:13 2024,485,-8.492,8.492,-9.603,-9.603,-10.620,-0.172,16.339,6.625,5.515,13.020,10.485,-2.722,8.295,6.965,14.367,3.989,4.952
Fri Nov 22 19:21:13 2024,490,-8.522,8.522,-9.602,-9.602,-10.613,-0.164,16.310,6.620,5.518,13.020,10.480,-2.713,8.332,6.974,14.396,3.958,4.952
Fri Nov 22 19:21:13 2024,495,-8.542,8.542,-9.549,-9.549,-10.596,-0.169,16.285,6.627,5.526,13.057,10.499,-2.738,8.420,6.998,14.404,3.893,4.859
Fri Nov 22 19:21:13 2024,500,-8.564,8.564,-9.522,-9.522,-10.584,-0.168,16.262,6.629,5.532,13.077,10.506,-2.748,8.480,7.014,14.418,3.847,4.810
Fri Nov 22 19:21:13 2024,505,-8.520,8.520,-9.574,-9.574,-10.622,-0.179,16.254,6.592,5.513,13.100,10.504,-2.754,8.436,6.985,14.405,3.882,4.822
Fri Nov 22 19:21:13 2024,510,-8.421,8.421,-9.692,-9.692,-10.704,-0.200,16.254,6.524,5.474,13.128,10.495,-2.756,8.311,6.916,14.372,3.981,4.882
Fri Nov 22 19:21:13 2024,515,-8.418,8.418,-9.641,-9.641,-10.684,-0.245,16.296,6.595,5.450,13.187,10.552,-2.763,8.433,6.971,14.397,3.957,4.888
Fri Nov 22 19:21:13 2024,520,-8.420,8.420,-9.593,-9.593,-10.662,-0.280,16.331,6.658,5.432,13.235,10.600,-2.768,8.542,7.020,14.420,3.932,4.892
Fri Nov 22 19:21:13 2024,525,-8.424,8.424,-9.548,-9.548,-10.642,-0.315,16.362,6.717,5.414,13.279,10.644,-2.773,8.641,7.066,14.441,3.909,4.894
Fri Nov 22 19:21:13 2024,530,-8.432,8.432,-9.568,-9.568,-10.634,-0.270,16.328,6.710,5.432,13.234,10.648,-2.748,8.488,7.044,14.416,3.944,4.936
Fri Nov 22 19:21:13 2024,535,-8.437,8.437,-9.569,-9.569,-10.625,-0.252,16.315,6.722,5.438,13.218,10.661,-2.734,8.421,7.041,14.405,3.960,4.963
Fri Nov 22 19:21:13 2024,540,-8.455,8.455,-9.563,-9.563,-10.631,-0.239,16.321,6.714,5.436,13.191,10.629,-2.743,8.362,7.001,14.411,3.943,4.940
Fri Nov 22 19:21:13 2024,545,-8.504,8.504,-9.545,-9.545,-10.676,-0.239,16.370,6.660,5.416,13.134,10.495,-2.806,8.313,6.874,14.452,3.857,4.807
Fri Nov 22 19:21:13 2024,550,-8.535,8.535,-9.533,-9.533,-10.698,-0.233,16.396,6.632,5.406,13.095,10.419,-2.839,8.265,6.798,14.473,3.810,4.737
Fri Nov 22 19:21:13 2024,555,-8.567,8.567,-9.594,-9.594,-10.666,-0.276,16.352,6.751,5.401,13.222,10.641,-2.812,8.247,6.928,14.417,3.941,4.871
Fri Nov 22 19:21:13 2024,560,-8.590,8.590,-9.620,-9.620,-10.655,-0.296,16.337,6.803,5.396,13.273,10.730,-2.807,8.226,6.972,14.396,3.992,4.920
Fri Nov 22 19:21:13 2024,565,-8.606,8.606,-9.625,-9.625,-10.661,-0.294,16.340,6.796,5.388,13.277,10.716,-2.802,8.226,6.967,14.388,4.005,4.920
Fri Nov 22 19:21:13 2024,570,-8.604,8.604,-9.583,-9.583,-10.701,-0.248,16.381,6.669,5.371,13.182,10.484,-2.795,8.274,6.860,14.411,3.937,4.815
Fri Nov 22 19:21:13 2024,575,-8.610,8.610,-9.568,-9.568,-10.721,-0.226,16.400,6.612,5.361,13.142,10.379,-2.790,8.295,6.811,14.417,3.914,4.771
Fri Nov 22 19:21:13 2024,580,-8.609,8.609,-9.635,-9.635,-10.739,-0.309,16.354,6.747,5.428,13.178,10.612,-2.761,8.342,6.948,14.480,3.890,4.845
Fri Nov 22 19:21:13 2024,585,-8.610,8.610,-9.663,-9.663,-10.753,-0.341,16.338,6.793,5.456,13.182,10.691,-2.746,8.369,6.997,14.511,3.873,4.868
Fri Nov 22 19:21:13 2024,590,-8.611,8.611,-9.684,-9.684,-10.764,-0.368,16.325,6.830,5.478,13.186,10.753,-2.735,8.391,7.037,14.535,3.859,4.886
Fri Nov 22 19:21:13 2024,595,-8.662,8.662,-9.572,-9.572,-10.644,-0.337,16.233,6.760,5.384,13.163,10.686,-2.796,8.136,7.002,14.376,3.900,4.864
Fri Nov 22 19:21:13 2024,600,-8.678,8.678,-9.544,-9.544,-10.608,-0.338,16.198,6.752,5.362,13.156,10.689,-2.811,8.063,7.006,14.334,3.907,4.864
Fri Nov 22 19:21:13 2024,605,-8.756,8.756,-9.579,-9.579,-10.672,-0.253,16.362,6.798,5.440,13.165,10.697,-2.720,8.200,6.984,14.470,3.790,4.770
Fri Nov 22 19:21:13 2024,610,-8.805,8.805,-9.588,-9.588,-10.694,-0.206,16.437,6.820,5.474,13.167,10.702,-2.676,8.247,6.973,14.529,3.729,4.719
Fri Nov 22 19:21:13 2024,615,-8.837,8.837,-9.568,-9.568,-10.698,-0.235,16.434,6.836,5.519,13.172,10.734,-2.631,8.322,7.016,14.587,3.728,4.790
Fri Nov 22 19:21:13 2024,620,-8.872,8.872,-9.554,-9.554,-10.704,-0.250,16.446,6.853,5.560,13.174,10.761,-2.588,8.389,7.049,14.643,3.715,4.836
Fri Nov 22 19:21:13 2024,625,-8.898,8.898,-9.543,-9.543,-10.710,-0.260,16.455,6.866,5.592,13.176,10.781,-2.555,8.439,7.073,14.686,3.705,4.871
Fri Nov 22 19:21:13 2024,630,-8.884,8.884,-9.610,-9.610,-10.750,-0.196,16.479,6.746,5.573,13.262,10.771,-2.624,8.408,7.006,14.570,3.825,4.839
Fri Nov 22 19:21:13 2024,635,-8.888,8.888,-9.637,-9.637,-10.771,-0.170,16.493,6.697,5.577,13.300,10.774,-2.644,8.413,6.985,14.534,3.875,4.838
Fri Nov 22 19:21:13 2024,640,-8.916,8.916,-9.559,-9.559,-10.700,-0.219,16.352,6.707,5.551,13.280,10.763,-2.656,8.339,6.957,14.493,3.828,4.754
Fri Nov 22 19:21:13 2024,645,-8.934,8.934,-9.512,-9.512,-10.657,-0.247,16.264,6.706,5.534,13.272,10.757,-2.666,8.292,6.936,14.461,3.804,4.700
Fri Nov 22 19:21:13 2024,650,-8.950,8.950,-9.472,-9.472,-10.620,-0.270,16.186,6.705,5.521,13.264,10.752,-2.676,8.251,6.917,14.433,3.783,4.653
Fri Nov 22 19:21:13 2024,655,-8.965,8.965,-9.573,-9.573,-10.676,-0.291,16.242,6.706,5.472,13.361,10.774,-2.697,8.401,7.012,14.494,3.860,4.800
Fri Nov 22 19:21:13 2024,660,-8.978,8.978,-9.622,-9.622,-10.699,-0.309,16.254,6.706,5.438,13.417,10.785,-2.712,8.480,7.064,14.522,3.899,4.875
Fri Nov 22 19:21:13 2024,665,-9.146,9.146,-9.627,-9.627,-10.739,-0.193,16.418,6.747,5.551,13.324,10.780,-2.652,8.517,7.020,14.545,3.827,4.765
Fri Nov 22 19:21:13 2024,670,-9.249,9.249,-9.636,-9.636,-10.766,-0.128,16.514,6.770,5.612,13.278,10.778,-2.620,8.550,7.002,14.563,3.790,4.711
Fri Nov 22 19:21:13 2024,675,-9.332,9.332,-9.644,-9.644,-10.787,-0.079,16.589,6.790,5.661,13.241,10.777,-2.594,8.576,6.988,14.577,3.762,4.668
Fri Nov 22 19:21:13 2024,680,-9.228,9.228,-9.641,-9.641,-10.707,-0.244,16.250,6.719,5.492,13.370,10.814,-2.661,8.600,7.079,14.570,3.839,4.823
Fri Nov 22 19:21:13 2024,685,-9.216,9.216,-9.643,-9.643,-10.680,-0.300,16.124,6.694,5.435,13.414,10.831,-2.680,8.622,7.115,14.573,3.863,4.877
Fri Nov 22 19:21:13 2024,690,-9.267,9.267,-9.667,-9.667,-10.709,-0.277,16.159,6.738,5.482,13.375,10.820,-2.674,8.568,7.084,14.574,3.847,4.856
Fri Nov 22 19:21:13 2024,695,-9.333,9.333,-9.696,-9.696,-10.750,-0.244,16.217,6.795,5.545,13.321,10.806,-2.664,8.498,7.042,14.578,3.824,4.824
Fri Nov 22 19:21:13 2024,700,-9.333,9.333,-9.718,-9.718,-10.794,-0.255,16.264,6.756,5.561,13.382,10.837,-2.677,8.476,7.012,14.603,3.819,4.833
Fri Nov 22 19:21:13 2024,705,-9.334,9.334,-9.740,-9.740,-10.840,-0.266,16.311,6.716,5.578,13.439,10.868,-2.692,8.454,6.982,14.628,3.814,4.842
Fri Nov 22 19:21:13 2024,710,-9.335,9.335,-9.759,-9.759,-10.878,-0.276,16.352,6.682,5.593,13.488,10.895,-2.704,8.436,6.955,14.649,3.809,4.849
Fri Nov 22 19:21:13 2024,715,-9.421,9.421,-9.729,-9.729,-10.879,-0.323,16.394,6.836,5.593,13.418,10.891,-2.686,8.578,7.017,14.674,3.800,4.887
Fri Nov 22 19:21:13 2024,720,-9.468,9.468,-9.718,-9.718,-10.892,-0.352,16.429,6.909,5.598,13.394,10.897,-2.680,8.651,7.042,14.695,3.794,4.910
Fri Nov 22 19:21:13 2024,725,-9.445,9.445,-9.682,-9.682,-10.851,-0.330,16.399,6.898,5.589,13.388,10.881,-2.674,8.612,7.010,14.686,3.803,4.912
Fri Nov 22 19:21:13 2024,730,-9.364,9.364,-9.613,-9.613,-10.759,-0.267,16.313,6.825,5.569,13.390,10.842,-2.665,8.487,6.929,14.655,3.824,4.899
Fri Nov 22 19:21:13 2024,735,-9.368,9.368,-9.532,-9.532,-10.694,-0.241,16.322,6.804,5.568,13.403,10.827,-2.647,8.486,6.908,14.631,3.860,4.907
Fri Nov 22 19:21:13 2024,740,-9.451,9.451,-9.385,-9.385,-10.608,-0.230,16.428,6.794,5.584,13.444,10.823,-2.608,8.592,6.930,14.590,3.937,4.933
Fri Nov 22 19:21:13 2024,745,-9.506,9.506,-9.272,-9.272,-10.537,-0.218,16.500,6.784,5.594,13.472,10.816,-2.580,8.662,6.941,14.558,3.994,4.951
Fri Nov 22 19:21:13 2024,750,-9.476,9.476,-9.228,-9.228,-10.528,-0.212,16.481,6.786,5.594,13.465,10.800,-2.577,8.694,6.935,14.537,4.004,4.896
Fri Nov 22 19:21:13 2024,755,-9.378,9.378,-9.219,-9.219,-10.558,-0.212,16.396,6.797,5.588,13.431,10.771,-2.591,8.708,6.915,14.519,3.981,4.772
Fri Nov 22 19:21:13 2024,760,-9.337,9.337,-9.193,-9.193,-10.560,-0.209,16.365,6.800,5.586,13.418,10.754,-2.594,8.729,6.906,14.502,3.981,4.710
Fri Nov 22 19:21:13 2024,765,-9.325,9.325,-9.097,-9.097,-10.458,-0.140,16.318,6.720,5.598,13.322,10.697,-2.510,8.668,6.909,14.499,3.933,4.683
Fri Nov 22 19:21:13 2024,770,-9.306,9.306,-9.044,-9.044,-10.412,-0.106,16.285,6.684,5.603,13.273,10.664,-2.472,8.647,6.908,14.492,3.911,4.651
Fri Nov 22 19:21:13 2024,775,-9.328,9.328,-9.012,-9.012,-10.417,-0.082,16.429,6.694,5.628,13.289,10.666,-2.428,8.712,6.909,14.518,3.926,4.680
Fri Nov 22 19:21:13 2024,780,-9.386,9.386,-8.977,-8.977,-10.457,-0.052,16.748,6.737,5.677,13.349,10.689,-2.358,8.860,6.913,14.575,3.969,4.760
Fri Nov 22 19:21:13 2024,785,-9.367,9.367,-8.974,-8.974,-10.463,-0.060,16.809,6.752,5.660,13.372,10.700,-2.354,8.914,6.938,14.589,3.993,4.798
Fri Nov 22 19:21:13 2024,790,-9.310,9.310,-8.995,-8.995,-10.465,-0.088,16.785,6.768,5.607,13.400,10.716,-2.387,8.952,6.986,14.591,4.024,4.842
Fri Nov 22 19:21:13 2024,795,-9.276,9.276,-9.004,-9.004,-10.468,-0.107,16.792,6.781,5.576,13.421,10.728,-2.402,8.987,7.016,14.595,4.047,4.875
Fri Nov 22 19:21:13 2024,800,-9.197,9.197,-9.090,-9.090,-10.514,-0.105,16.697,6.762,5.543,13.455,10.718,-2.435,9.011,6.980,14.585,4.040,4.822
Fri Nov 22 19:21:13 2024,805,-9.134,9.134,-9.152,-9.152,-10.546,-0.106,16.633,6.752,5.512,13.484,10.715,-2.462,9.035,6.962,14.578,4.041,4.792
Fri Nov 22 19:21:13 2024,810,-9.082,9.082,-9.188,-9.188,-10.560,-0.080,16.612,6.749,5.523,13.483,10.736,-2.464,9.026,6.960,14.574,4.056,4.800
Fri Nov 22 19:21:13 2024,815,-9.044,9.044,-9.193,-9.193,-10.552,-0.020,16.643,6.756,5.584,13.445,10.791,-2.437,8.978,6.979,14.575,4.088,4.850
Fri Nov 22 19:21:13 2024,820,-9.014,9.014,-9.206,-9.206,-10.552,0.028,16.648,6.758,5.610,13.429,10.818,-2.427,8.957,6.985,14.573,4.105,4.872
Fri Nov 22 19:21:13 2024,825,-9.000,9.000,-9.120,-9.120,-10.473,-0.056,16.618,6.811,5.520,13.476,10.808,-2.480,9.066,7.066,14.497,4.169,4.890
Fri Nov 22 19:21:13 2024,830,-8.987,8.987,-9.080,-9.080,-10.434,-0.079,16.604,6.836,5.482,13.496,10.809,-2.505,9.115,7.108,14.458,4.204,4.903
Fri Nov 22 19:21:13 2024,835,-8.986,8.986,-8.931,-8.931,-10.346,-0.077,16.641,6.815,5.504,13.463,10.767,-2.435,9.150,7.095,14.506,4.165,4.891
Fri Nov 22 19:21:13 2024,840,-8.986,8.986,-8.784,-8.784,-10.260,-0.070,16.679,6.790,5.530,13.430,10.725,-2.364,9.181,7.079,14.555,4.124,4.879
Fri Nov 22 19:21:13 2024,845,-8.986,8.986,-8.675,-8.675,-10.196,-0.066,16.707,6.773,5.550,13.403,10.693,-2.309,9.204,7.066,14.593,4.094,4.869
Fri Nov 22 19:21:13 2024,850,-9.090,9.090,-8.725,-8.725,-10.239,-0.056,16.798,6.735,5.531,13.451,10.673,-2.342,9.173,6.987,14.570,4.140,4.807
Fri Nov 22 19:21:13 2024,855,-9.138,9.138,-8.722,-8.722,-10.244,-0.048,16.846,6.712,5.527,13.468,10.655,-2.345,9.164,6.947,14.568,4.155,4.776
Fri Nov 22 19:21:13 2024,860,-9.154,9.154,-8.709,-8.709,-10.242,-0.040,16.840,6.695,5.528,13.498,10.664,-2.356,9.148,6.922,14.549,4.195,4.774
Fri Nov 22 19:21:13 2024,865,-9.127,9.127,-8.684,-8.684,-10.230,-0.040,16.758,6.686,5.537,13.545,10.708,-2.380,9.121,6.923,14.509,4.265,4.811
Fri Nov 22 19:21:13 2024,870,-9.122,9.122,-8.670,-8.670,-10.226,-0.034,16.725,6.677,5.540,13.573,10.728,-2.393,9.106,6.914,14.487,4.306,4.824
Fri Nov 22 19:21:13 2024,875,-8.990,8.990,-8.722,-8.722,-10.289,0.028,16.843,6.662,5.582,13.560,10.723,-2.278,9.466,6.984,14.578,4.253,4.795
Fri Nov 22 19:21:13 2024,880,-8.916,8.916,-8.745,-8.745,-10.322,0.048,16.896,6.650,5.606,13.562,10.727,-2.219,9.659,7.019,14.620,4.239,4.783
Fri Nov 22 19:21:13 2024,885,-8.860,8.860,-8.763,-8.763,-10.346,0.069,16.936,6.641,5.624,13.564,10.729,-2.176,9.805,7.046,14.650,4.229,4.774
Fri Nov 22 19:21:13 2024,890,-9.004,9.004,-8.704,-8.704,-10.282,0.179,17.067,6.620,5.732,13.433,10.752,-2.104,9.708,7.133,14.766,4.170,4.969
Fri Nov 22 19:21:13 2024,895,-9.033,9.033,-8.691,-8.691,-10.269,0.227,17.127,6.610,5.776,13.388,10.760,-2.062,9.732,7.174,14.817,4.145,5.033
Fri Nov 22 19:21:13 2024,900,-8.886,8.886,-8.794,-8.794,-10.370,0.109,17.129,6.545,5.682,13.477,10.740,-2.184,9.643,7.077,14.676,4.283,4.957
Fri Nov 22 19:21:13 2024,905,-8.823,8.823,-8.841,-8.841,-10.416,0.066,17.150,6.509,5.650,13.506,10.732,-2.231,9.607,7.043,14.623,4.344,4.941
Fri Nov 22 19:21:13 2024,910,-8.767,8.767,-8.855,-8.855,-10.398,0.068,17.092,6.454,5.632,13.503,10.701,-2.234,9.601,7.024,14.612,4.362,4.943
Fri Nov 22 19:21:13 2024,915,-8.707,8.707,-8.810,-8.810,-10.256,0.161,16.870,6.348,5.638,13.436,10.620,-2.154,9.648,7.034,14.680,4.303,4.980
Fri Nov 22 19:21:13 2024,920,-8.662,8.662,-8.802,-8.802,-10.201,0.192,16.770,6.289,5.632,13.412,10.578,-2.128,9.661,7.028,14.697,4.293,4.992
Fri Nov 22 19:21:13 2024,925,-8.742,8.742,-8.697,-8.697,-10.199,0.153,16.886,6.261,5.624,13.431,10.578,-2.158,9.622,7.007,14.697,4.281,4.950
Fri Nov 22 19:21:13 2024,930,-8.767,8.767,-8.641,-8.641,-10.179,0.145,16.910,6.225,5.617,13.432,10.563,-2.164,9.608,6.995,14.703,4.272,4.932
Fri Nov 22 19:21:13 2024,935,-8.840,8.840,-8.640,-8.640,-10.211,0.165,16.992,6.258,5.641,13.406,10.576,-2.139,9.624,7.001,14.763,4.218,4.912
Fri Nov 22 19:21:13 2024,940,-9.002,9.002,-8.719,-8.719,-10.326,0.231,17.179,6.397,5.714,13.333,10.636,-2.065,9.686,7.036,14.918,4.086,4.882
Fri Nov 22 19:21:13 2024,945,-9.088,9.088,-8.741,-8.741,-10.375,0.260,17.274,6.454,5.747,13.299,10.660,-2.030,9.712,7.049,14.993,4.021,4.863
Fri Nov 22 19:21:13 2024,950,-8.844,8.844,-8.702,-8.702,-10.260,0.290,16.928,6.363,5.701,13.272,10.570,-2.070,9.732,7.062,14.896,4.056,4.897
Fri Nov 22 19:21:13 2024,955,-8.759,8.759,-8.691,-8.691,-10.222,0.314,16.798,6.340,5.691,13.247,10.536,-2.076,9.751,7.073,14.878,4.048,4.906
Fri Nov 22 19:21:13 2024,960,-8.820,8.820,-8.646,-8.646,-10.233,0.332,16.962,6.341,5.726,13.287,10.556,-2.068,9.785,7.037,14.892,4.082,4.935
Fri Nov 22 19:21:13 2024,965,-8.911,8.911,-8.594,-8.594,-10.254,0.349,17.187,6.348,5.770,13.339,10.587,-2.058,9.821,6.991,14.913,4.122,4.967
Fri Nov 22 19:21:13 2024,970,-8.892,8.892,-8.650,-8.650,-10.307,0.351,17.323,6.359,5.789,13.344,10.578,-2.029,10.014,7.046,14.963,4.120,4.993
Fri Nov 22 19:21:13 2024,975,-8.842,8.842,-8.750,-8.750,-10.381,0.344,17.465,6.377,5.804,13.338,10.556,-1.991,10.286,7.141,15.032,4.104,5.020
Fri Nov 22 19:21:13 2024,980,-8.810,8.810,-8.824,-8.824,-10.438,0.341,17.589,6.390,5.818,13.336,10.542,-1.960,10.500,7.211,15.086,4.093,5.044
Fri Nov 22 19:21:13 2024,985,-8.781,8.781,-8.577,-8.577,-10.220,0.356,17.263,6.304,5.761,13.365,10.576,-2.062,10.269,7.139,14.878,4.218,4.974
Fri Nov 22 19:21:13 2024,990,-8.754,8.754,-8.450,-8.450,-10.106,0.362,17.104,6.256,5.731,13.382,10.593,-2.114,10.192,7.116,14.770,4.288,4.940
Fri Nov 22 19:21:13 2024,995,-8.731,8.731,-8.337,-8.337,-10.002,0.370,16.960,6.213,5.704,13.398,10.607,-2.160,10.122,7.096,14.670,4.353,4.908
Fri Nov 22 19:21:14 2024,0,-8.894,8.894,-8.344,-8.344,-9.969,0.378,17.125,6.342,5.706,13.422,10.644,-2.157,10.290,7.177,14.835,4.255,5.012
Fri Nov 22 19:21:14 2024,5,-8.943,8.943,-8.310,-8.310,-9.923,0.383,17.136,6.373,5.698,13.435,10.661,-2.170,10.326,7.198,14.859,4.242,5.038
Fri Nov 22 19:21:14 2024,10,-8.973,8.973,-8.360,-8.360,-10.016,0.392,17.334,6.361,5.694,13.438,10.624,-2.154,10.388,7.199,14.836,4.248,4.981
Fri Nov 22 19:21:14 2024,15,-9.004,9.004,-8.376,-8.376,-10.052,0.400,17.445,6.364,5.688,13.444,10.608,-2.149,10.434,7.206,14.831,4.247,4.958
Fri Nov 22 19:21:14 2024,20,-9.016,9.016,-8.316,-8.316,-10.035,0.428,17.392,6.329,5.702,13.414,10.578,-2.133,10.456,7.192,14.844,4.243,4.979
Fri Nov 22 19:21:14 2024,25,-9.007,9.007,-8.174,-8.174,-9.961,0.482,17.171,6.255,5.735,13.347,10.531,-2.104,10.455,7.154,14.878,4.236,5.048
Fri Nov 22 19:21:14 2024,30,-9.009,9.009,-8.088,-8.088,-9.923,0.518,17.056,6.208,5.754,13.306,10.498,-2.085,10.466,7.133,14.896,4.232,5.086
Fri Nov 22 19:21:14 2024,35,-8.886,8.886,-8.247,-8.247,-9.962,0.597,17.080,6.258,5.752,13.346,10.638,-2.156,10.336,7.154,14.810,4.316,5.073
Fri Nov 22 19:21:14 2024,40,-8.812,8.812,-8.312,-8.312,-9.971,0.658,17.051,6.270,5.758,13.355,10.709,-2.191,10.264,7.159,14.765,4.366,5.078
Fri Nov 22 19:21:14 2024,45,-8.768,8.768,-8.351,-8.351,-9.977,0.694,17.034,6.278,5.762,13.360,10.751,-2.212,10.220,7.162,14.737,4.397,5.082
Fri Nov 22 19:21:14 2024,50,-8.760,8.760,-8.406,-8.406,-9.992,0.668,17.206,6.244,5.734,13.373,10.706,-2.181,10.427,7.222,14.668,4.487,5.105
Fri Nov 22 19:21:14 2024,55,-8.734,8.734,-8.450,-8.450,-10.002,0.678,17.266,6.234,5.724,13.382,10.710,-2.179,10.488,7.248,14.625,4.540,5.116
Fri Nov 22 19:21:14 2024,60,-8.682,8.682,-8.368,-8.368,-9.934,0.606,17.249,6.283,5.672,13.434,10.737,-2.197,10.618,7.350,14.619,4.553,5.157
Fri Nov 22 19:21:14 2024,65,-8.651,8.651,-8.343,-8.343,-9.906,0.576,17.257,6.302,5.645,13.460,10.750,-2.205,10.695,7.403,14.604,4.574,5.179
Fri Nov 22 19:21:14 2024,70,-8.756,8.756,-8.294,-8.294,-9.882,0.587,17.189,6.277,5.670,13.443,10.735,-2.210,10.620,7.335,14.617,4.544,5.145
Fri Nov 22 19:21:14 2024,75,-8.831,8.831,-8.251,-8.251,-9.858,0.589,17.139,6.261,5.686,13.433,10.726,-2.215,10.576,7.292,14.624,4.525,5.123
Fri Nov 22 19:21:14 2024,80,-8.858,8.858,-8.240,-8.240,-9.864,0.576,17.132,6.252,5.684,13.438,10.721,-2.224,10.568,7.276,14.612,4.520,5.095
Fri Nov 22 19:21:14 2024,85,-8.820,8.820,-8.275,-8.275,-9.910,0.540,17.186,6.254,5.659,13.462,10.725,-2.242,10.612,7.302,14.571,4.536,5.060
Fri Nov 22 19:21:14 2024,90,-8.805,8.805,-8.291,-8.291,-9.937,0.517,17.212,6.252,5.645,13.476,10.726,-2.253,10.635,7.312,14.546,4.543,5.035
Fri Nov 22 19:21:14 2024,95,-8.826,8.826,-8.250,-8.250,-9.926,0.538,17.204,6.252,5.642,13.449,10.698,-2.257,10.582,7.316,14.556,4.522,5.042
Fri Nov 22 19:21:14 2024,100,-8.875,8.875,-8.160,-8.160,-9.885,0.596,17.167,6.253,5.647,13.385,10.646,-2.256,10.464,7.317,14.597,4.477,5.075
Fri Nov 22 19:21:14 2024,105,-8.896,8.896,-8.151,-8.151,-9.884,0.615,17.149,6.223,5.663,13.365,10.625,-2.266,10.404,7.292,14.619,4.446,5.078
Fri Nov 22 19:21:14 2024,110,-8.919,8.919,-8.184,-8.184,-9.903,0.630,17.122,6.149,5.702,13.353,10.608,-2.288,10.327,7.230,14.655,4.397,5.071
Fri Nov 22 19:21:14 2024,115,-8.937,8.937,-8.196,-8.196,-9.912,0.645,17.102,6.103,5.726,13.339,10.592,-2.302,10.268,7.192,14.680,4.363,5.070
Fri Nov 22 19:21:14 2024,120,-8.962,8.962,-8.254,-8.254,-9.941,0.636,17.161,6.182,5.719,13.353,10.628,-2.248,10.405,7.275,14.686,4.331,5.072
Fri Nov 22 19:21:14 2024,125,-8.980,8.980,-8.289,-8.289,-9.960,0.633,17.190,6.218,5.720,13.358,10.646,-2.220,10.472,7.314,14.694,4.305,5.074
Fri Nov 22 19:21:14 2024,130,-8.919,8.919,-8.284,-8.284,-9.957,0.631,17.170,6.153,5.676,13.359,10.562,-2.226,10.546,7.308,14.712,4.298,5.084
Fri Nov 22 19:21:14 2024,135,-8.874,8.874,-8.280,-8.280,-9.955,0.630,17.156,6.106,5.643,13.359,10.501,-2.230,10.602,7.304,14.725,4.293,5.091
Fri Nov 22 19:21:14 2024,140,-8.820,8.820,-8.276,-8.276,-9.953,0.629,17.139,6.049,5.604,13.358,10.427,-2.236,10.669,7.299,14.741,4.287,5.100
Fri Nov 22 19:21:14 2024,145,-8.836,8.836,-8.321,-8.321,-10.003,0.649,17.070,6.107,5.633,13.297,10.453,-2.279,10.411,7.231,14.728,4.241,5.049
Fri Nov 22 19:21:14 2024,150,-8.829,8.829,-8.351,-8.351,-10.037,0.662,17.016,6.127,5.640,13.253,10.446,-2.311,10.253,7.181,14.723,4.207,5.017
Fri Nov 22 19:21:14 2024,155,-8.872,8.872,-8.353,-8.353,-10.038,0.664,17.038,6.131,5.646,13.280,10.468,-2.303,10.264,7.193,14.732,4.186,4.990
Fri Nov 22 19:21:14 2024,160,-8.987,8.987,-8.333,-8.333,-10.014,0.657,17.137,6.122,5.656,13.382,10.527,-2.257,10.426,7.264,14.757,4.166,4.949
Fri Nov 22 19:21:14 2024,165,-9.044,9.044,-8.327,-8.327,-10.006,0.655,17.178,6.121,5.662,13.425,10.556,-2.239,10.483,7.292,14.769,4.150,4.924
Fri Nov 22 19:21:14 2024,170,-8.933,8.933,-8.350,-8.350,-9.996,0.665,17.019,6.103,5.640,13.274,10.454,-2.287,10.247,7.174,14.718,4.161,4.880
Fri Nov 22 19:21:14 2024,175,-8.892,8.892,-8.360,-8.360,-9.988,0.670,16.947,6.092,5.631,13.204,10.408,-2.307,10.139,7.120,14.695,4.161,4.848
Fri Nov 22 19:21:14 2024,180,-8.907,8.907,-8.303,-8.303,-9.941,0.709,16.932,6.119,5.649,13.189,10.435,-2.287,10.170,7.162,14.676,4.165,4.863
Fri Nov 22 19:21:14 2024,185,-8.942,8.942,-8.215,-8.215,-9.875,0.764,16.936,6.162,5.680,13.192,10.491,-2.252,10.253,7.243,14.657,4.171,4.893
Fri Nov 22 19:21:14 2024,190,-8.959,8.959,-8.160,-8.160,-9.830,0.800,16.928,6.188,5.697,13.184,10.520,-2.232,10.292,7.287,14.642,4.174,4.909
Fri Nov 22 19:21:14 2024,195,-9.006,9.006,-8.220,-8.220,-9.897,0.736,16.908,6.162,5.637,13.224,10.421,-2.326,10.095,7.086,14.655,4.151,4.857
Fri Nov 22 19:21:14 2024,200,-9.038,9.038,-8.234,-8.234,-9.919,0.714,16.894,6.156,5.610,13.242,10.376,-2.371,10.000,6.991,14.656,4.140,4.835
Fri Nov 22 19:21:14 2024,205,-9.043,9.043,-8.168,-8.168,-9.865,0.737,16.877,6.197,5.598,13.297,10.459,-2.390,10.050,7.048,14.670,4.130,4.852
Fri Nov 22 19:21:14 2024,210,-9.052,9.052,-8.119,-8.119,-9.826,0.751,16.862,6.228,5.584,13.342,10.515,-2.411,10.073,7.076,14.680,4.120,4.862
Fri Nov 22 19:21:14 2024,215,-9.059,9.059,-8.083,-8.083,-9.797,0.762,16.851,6.251,5.574,13.375,10.558,-2.427,10.090,7.097,14.688,4.114,4.870
Fri Nov 22 19:21:14 2024,220,-9.172,9.172,-8.049,-8.049,-9.802,0.770,16.944,6.294,5.591,13.378,10.578,-2.410,10.033,7.108,14.759,4.036,4.887
Fri Nov 22 19:21:14 2024,225,-9.242,9.242,-8.012,-8.012,-9.792,0.780,16.993,6.329,5.597,13.395,10.609,-2.407,10.007,7.125,14.804,3.988,4.901
Fri Nov 22 19:21:14 2024,230,-9.282,9.282,-7.991,-7.991,-9.786,0.785,17.020,6.349,5.600,13.405,10.627,-2.405,9.992,7.134,14.829,3.961,4.908
Fri Nov 22 19:21:14 2024,235,-9.208,9.208,-8.036,-8.036,-9.795,0.894,16.778,6.327,5.620,13.357,10.780,-2.395,9.972,7.263,14.970,3.810,5.006
Fri Nov 22 19:21:14 2024,240,-9.203,9.203,-8.041,-8.041,-9.796,0.936,16.705,6.330,5.629,13.345,10.844,-2.390,9.957,7.315,15.034,3.741,5.046
Fri Nov 22 19:21:14 2024,245,-9.308,9.308,-8.095,-8.095,-9.830,0.915,16.900,6.390,5.542,13.519,10.892,-2.444,10.074,7.321,15.042,3.780,5.022
Fri Nov 22 19:21:14 2024,250,-9.358,9.358,-8.123,-8.123,-9.846,0.919,16.969,6.420,5.502,13.600,10.939,-2.468,10.126,7.342,15.069,3.774,5.024
Fri Nov 22 19:21:14 2024,255,-9.326,9.326,-8.147,-8.147,-9.890,1.009,16.961,6.467,5.610,13.508,10.998,-2.406,10.138,7.358,15.101,3.675,4.959
Fri Nov 22 19:21:14 2024,260,-9.316,9.316,-8.169,-8.169,-9.923,1.070,16.969,6.504,5.673,13.464,11.047,-2.370,10.157,7.373,15.128,3.608,4.916
Fri Nov 22 19:21:14 2024,265,-9.309,9.309,-8.186,-8.186,-9.950,1.118,16.974,6.534,5.724,13.429,11.086,-2.341,10.171,7.384,15.149,3.553,4.882
Fri Nov 22 19:21:14 2024,270,-9.339,9.339,-8.227,-8.227,-9.934,1.103,16.977,6.607,5.677,13.473,11.207,-2.418,10.169,7.447,15.119,3.625,5.018
Fri Nov 22 19:21:14 2024,275,-9.350,9.350,-8.252,-8.252,-9.936,1.114,16.980,6.650,5.675,13.480,11.275,-2.441,10.173,7.478,15.114,3.636,5.065
Fri Nov 22 19:21:14 2024,280,-9.410,9.410,-8.282,-8.282,-9.935,1.136,17.028,6.714,5.663,13.466,11.289,-2.442,10.294,7.516,15.140,3.613,5.113
Fri Nov 22 19:21:14 2024,285,-9.453,9.453,-8.308,-8.308,-9.935,1.154,17.060,6.767,5.654,13.459,11.315,-2.448,10.374,7.549,15.156,3.601,5.157
Fri Nov 22 19:21:14 2024,290,-9.480,9.480,-8.324,-8.324,-9.936,1.165,17.081,6.801,5.648,13.454,11.331,-2.452,10.425,7.570,15.165,3.594,5.185
Fri Nov 22 19:21:14 2024,295,-9.509,9.509,-8.448,-8.448,-9.979,1.202,17.061,6.805,5.613,13.487,11.404,-2.523,10.303,7.609,15.232,3.595,5.301
Fri Nov 22 19:21:14 2024,300,-9.534,9.534,-8.507,-8.507,-9.997,1.222,17.062,6.821,5.597,13.498,11.442,-2.554,10.276,7.634,15.264,3.591,5.362
Fri Nov 22 19:21:14 2024,305,-9.566,9.566,-8.428,-8.428,-9.896,1.348,17.100,6.930,5.636,13.362,11.395,-2.498,10.347,7.664,15.280,3.558,5.431
Fri Nov 22 19:21:14 2024,310,-9.594,9.594,-8.397,-8.397,-9.840,1.430,17.118,7.002,5.655,13.280,11.378,-2.472,10.382,7.689,15.298,3.537,5.492
Fri Nov 22 19:21:14 2024,315,-9.615,9.615,-8.374,-8.374,-9.797,1.494,17.130,7.057,5.670,13.215,11.364,-2.452,10.409,7.709,15.313,3.521,5.539
Fri Nov 22 19:21:14 2024,320,-9.568,9.568,-8.411,-8.411,-9.898,1.295,17.311,7.062,5.562,13.353,11.286,-2.625,10.397,7.636,15.257,3.555,5.449
Fri Nov 22 19:21:14 2024,325,-9.560,9.560,-8.415,-8.415,-9.916,1.250,17.379,7.084,5.529,13.377,11.253,-2.678,10.402,7.618,15.244,3.561,5.436
Fri Nov 22 19:21:14 2024,330,-9.567,9.567,-8.374,-8.374,-9.872,1.266,17.359,7.106,5.551,13.342,11.268,-2.667,10.351,7.628,15.219,3.581,5.480
Fri Nov 22 19:21:14 2024,335,-9.596,9.596,-8.257,-8.257,-9.728,1.365,17.221,7.137,5.651,13.218,11.349,-2.571,10.206,7.675,15.172,3.629,5.618
Fri Nov 22 19:21:14 2024,340,-9.606,9.606,-8.208,-8.208,-9.671,1.394,17.184,7.159,5.685,13.171,11.373,-2.546,10.142,7.690,15.145,3.653,5.675
Fri Nov 22 19:21:14 2024,345,-9.723,9.723,-8.332,-8.332,-9.804,1.379,17.363,7.240,5.663,13.334,11.438,-2.592,10.306,7.671,15.238,3.579,5.585
Fri Nov 22 19:21:14 2024,350,-9.773,9.773,-8.359,-8.359,-9.833,1.384,17.416,7.279,5.667,13.375,11.472,-2.600,10.344,7.670,15.263,3.561,5.573
Fri Nov 22 19:21:14 2024,355,-9.690,9.690,-8.384,-8.384,-9.874,1.362,17.460,7.181,5.662,13.376,11.381,-2.550,10.422,7.643,15.216,3.628,5.578
Fri Nov 22 19:21:14 2024,360,-9.679,9.679,-8.352,-8.352,-9.861,1.354,17.479,7.180,5.662,13.388,11.381,-2.540,10.494,7.669,15.221,3.637,5.595
Fri Nov 22 19:21:14 2024,365,-9.673,9.673,-8.305,-8.305,-9.837,1.348,17.491,7.191,5.664,13.400,11.391,-2.536,10.567,7.706,15.233,3.641,5.618
Fri Nov 22 19:21:14 2024,370,-9.674,9.674,-8.242,-8.242,-9.798,1.345,17.490,7.216,5.667,13.409,11.415,-2.539,10.639,7.754,15.251,3.636,5.646
Fri Nov 22 19:21:14 2024,375,-9.677,9.677,-8.186,-8.186,-9.761,1.342,17.488,7.241,5.669,13.416,11.438,-2.543,10.698,7.798,15.269,3.630,5.671
Fri Nov 22 19:21:14 2024,380,-9.690,9.690,-8.303,-8.303,-9.868,1.254,17.508,7.174,5.620,13.492,11.404,-2.570,10.711,7.755,15.268,3.649,5.628
Fri Nov 22 19:21:14 2024,385,-9.697,9.697,-8.340,-8.340,-9.906,1.210,17.515,7.151,5.597,13.533,11.397,-2.585,10.741,7.751,15.274,3.656,5.616
Fri Nov 22 19:21:14 2024,390,-9.683,9.683,-8.337,-8.337,-9.894,1.225,17.521,7.152,5.607,13.513,11.386,-2.582,10.725,7.737,15.258,3.674,5.627
Fri Nov 22 19:21:14 2024,395,-9.629,9.629,-8.270,-8.270,-9.794,1.346,17.525,7.193,5.676,13.389,11.370,-2.548,10.629,7.703,15.201,3.715,5.677
Fri Nov 22 19:21:14 2024,400,-9.608,9.608,-8.250,-8.250,-9.761,1.386,17.527,7.204,5.701,13.347,11.361,-2.538,10.595,7.687,15.177,3.735,5.695
Fri Nov 22 19:21:14 2024,405,-9.689,9.689,-8.309,-8.309,-9.815,1.362,17.530,7.277,5.682,13.366,11.406,-2.567,10.562,7.700,15.216,3.627,5.577
Fri Nov 22 19:21:14 2024,410,-9.721,9.721,-8.330,-8.330,-9.828,1.368,17.532,7.319,5.683,13.357,11.424,-2.576,10.531,7.700,15.225,3.580,5.526
Fri Nov 22 19:21:14 2024,415,-9.762,9.762,-8.288,-8.288,-9.796,1.395,17.563,7.401,5.669,13.333,11.450,-2.565,10.513,7.732,15.246,3.561,5.587
Fri Nov 22 19:21:14 2024,420,-9.797,9.797,-8.266,-8.266,-9.778,1.413,17.583,7.463,5.660,13.315,11.471,-2.561,10.494,7.753,15.261,3.537,5.613
Fri Nov 22 19:21:14 2024,425,-9.815,9.815,-8.237,-8.237,-9.752,1.432,17.590,7.504,5.662,13.287,11.477,-2.551,10.472,7.763,15.255,3.530,5.618
Fri Nov 22 19:21:14 2024,430,-9.800,9.800,-8.186,-8.186,-9.700,1.454,17.573,7.500,5.689,13.229,11.448,-2.528,10.443,7.747,15.199,3.561,5.574
Fri Nov 22 19:21:14 2024,435,-9.799,9.799,-8.154,-8.154,-9.669,1.470,17.568,7.512,5.702,13.193,11.437,-2.514,10.423,7.744,15.171,3.573,5.556
Fri Nov 22 19:21:14 2024,440,-9.804,9.804,-8.127,-8.127,-9.707,1.420,17.672,7.494,5.679,13.311,11.453,-2.528,10.471,7.726,15.215,3.555,5.568
Fri Nov 22 19:21:14 2024,445,-9.808,9.808,-8.099,-8.099,-9.726,1.390,17.742,7.485,5.667,13.381,11.460,-2.534,10.498,7.713,15.238,3.547,5.570
Fri Nov 22 19:21:14 2024,450,-9.783,9.783,-8.105,-8.105,-9.725,1.394,17.710,7.462,5.675,13.363,11.476,-2.558,10.463,7.716,15.243,3.548,5.600
Fri Nov 22 19:21:14 2024,455,-9.727,9.727,-8.140,-8.140,-9.709,1.427,17.583,7.421,5.703,13.269,11.505,-2.605,10.365,7.733,15.237,3.556,5.661
Fri Nov 22 19:21:14 2024,460,-9.698,9.698,-8.155,-8.155,-9.704,1.441,17.524,7.396,5.716,13.228,11.522,-2.632,10.316,7.740,15.237,3.560,5.695
Fri Nov 22 19:21:14 2024,465,-9.832,9.832,-8.170,-8.170,-9.732,1.402,17.710,7.565,5.672,13.310,11.615,-2.608,10.361,7.784,15.282,3.531,5.733
Fri Nov 22 19:21:14 2024,470,-9.914,9.914,-8.186,-8.186,-9.749,1.380,17.814,7.672,5.646,13.352,11.685,-2.602,10.374,7.816,15.313,3.512,5.772
Fri Nov 22 19:21:14 2024,475,-9.883,9.883,-8.219,-8.219,-9.741,1.391,17.852,7.678,5.652,13.329,11.631,-2.574,10.479,7.837,15.305,3.549,5.826
Fri Nov 22 19:21:14 2024,480,-9.866,9.866,-8.247,-8.247,-9.737,1.397,17.892,7.694,5.653,13.314,11.594,-2.551,10.564,7.856,15.302,3.577,5.873
Fri Nov 22 19:21:14 2024,485,-9.854,9.854,-8.268,-8.268,-9.734,1.402,17.922,7.706,5.654,13.303,11.566,-2.534,10.630,7.871,15.298,3.599,5.909
Fri Nov 22 19:21:14 2024,490,-9.967,9.967,-8.242,-8.242,-9.761,1.372,17.894,7.786,5.617,13.355,11.712,-2.618,10.466,7.905,15.301,3.564,5.924
Fri Nov 22 19:21:14 2024,495,-10.013,10.013,-8.236,-8.236,-9.772,1.360,17.890,7.825,5.601,13.374,11.768,-2.650,10.413,7.924,15.300,3.556,5.942
Fri Nov 22 19:21:14 2024,500,-9.991,9.991,-8.241,-8.241,-9.764,1.360,17.892,7.812,5.591,13.382,11.754,-2.657,10.427,7.932,15.284,3.576,5.953
Fri Nov 22 19:21:14 2024,505,-9.891,9.891,-8.258,-8.258,-9.732,1.376,17.898,7.740,5.587,13.377,11.660,-2.632,10.518,7.926,15.248,3.626,5.954
Fri Nov 22 19:21:14 2024,510,-9.851,9.851,-8.266,-8.266,-9.718,1.381,17.902,7.714,5.581,13.379,11.625,-2.627,10.551,7.928,15.230,3.650,5.960
Fri Nov 22 19:21:14 2024,515,-9.967,9.967,-8.154,-8.154,-9.694,1.377,17.948,7.780,5.591,13.403,11.647,-2.580,10.539,7.912,15.288,3.578,5.943
Fri Nov 22 19:21:14 2024,520,-10.011,10.011,-8.101,-8.101,-9.677,1.377,17.972,7.803,5.594,13.415,11.647,-2.555,10.544,7.903,15.310,3.550,5.937
Fri Nov 22 19:21:14 2024,525,-9.984,9.984,-8.102,-8.102,-9.677,1.412,17.975,7.777,5.629,13.384,11.618,-2.577,10.538,7.884,15.257,3.609,5.922
Fri Nov 22 19:21:14 2024,530,-9.973,9.973,-8.091,-8.091,-9.673,1.437,17.982,7.764,5.655,13.364,11.598,-2.587,10.535,7.869,15.224,3.645,5.909
Fri Nov 22 19:21:14 2024,535,-9.964,9.964,-8.081,-8.081,-9.670,1.459,17.987,7.752,5.678,13.346,11.580,-2.596,10.532,7.855,15.195,3.676,5.898
Fri Nov 22 19:21:14 2024,540,-9.959,9.959,-8.075,-8.075,-9.667,1.472,17.989,7.746,5.691,13.337,11.570,-2.601,10.531,7.847,15.179,3.694,5.893
Fri Nov 22 19:21:14 2024,545,-9.957,9.957,-8.073,-8.073,-9.666,1.476,17.990,7.743,5.695,13.333,11.566,-2.603,10.530,7.844,15.173,3.700,5.890
Fri Nov 22 19:21:14 2024,550,-9.924,9.924,-8.035,-8.035,-9.634,1.478,17.926,7.764,5.679,13.321,11.573,-2.553,10.456,7.831,15.154,3.671,5.842
Fri Nov 22 19:21:14 2024,555,-9.896,9.896,-8.003,-8.003,-9.608,1.486,17.877,7.776,5.671,13.307,11.575,-2.516,10.398,7.818,15.132,3.657,5.802
Fri Nov 22 19:21:14 2024,560,-9.892,9.892,-7.998,-7.998,-9.614,1.489,17.872,7.766,5.672,13.307,11.567,-2.522,10.388,7.809,15.126,3.656,5.794
Fri Nov 22 19:21:14 2024,565,-9.916,9.916,-8.026,-8.026,-9.686,1.476,17.911,7.705,5.671,13.341,11.540,-2.599,10.422,7.794,15.154,3.648,5.813
Fri Nov 22 19:21:14 2024,570,-9.928,9.928,-8.040,-8.040,-9.726,1.470,17.930,7.670,5.671,13.358,11.523,-2.641,10.436,7.784,15.167,3.644,5.820
Fri Nov 22 19:21:14 2024,575,-9.972,9.972,-8.056,-8.056,-9.682,1.480,17.873,7.696,5.666,13.309,11.486,-2.597,10.359,7.755,15.192,3.570,5.764
Fri Nov 22 19:21:14 2024,580,-9.998,9.998,-8.067,-8.067,-9.666,1.484,17.846,7.704,5.664,13.284,11.462,-2.582,10.318,7.736,15.208,3.529,5.735
Fri Nov 22 19:21:14 2024,585,-10.022,10.022,-8.078,-8.078,-9.651,1.488,17.821,7.710,5.661,13.263,11.440,-2.568,10.282,7.720,15.223,3.490,5.707
Fri Nov 22 19:21:14 2024,590,-9.917,9.917,-8.044,-8.044,-9.712,1.514,17.770,7.573,5.713,13.276,11.424,-2.518,10.438,7.750,15.274,3.484,5.675
Fri Nov 22 19:21:14 2024,595,-9.885,9.885,-8.035,-8.035,-9.730,1.525,17.741,7.521,5.732,13.274,11.409,-2.494,10.486,7.755,15.300,3.467,5.653
Fri Nov 22 19:21:14 2024,600,-9.912,9.912,-8.004,-8.004,-9.679,1.536,17.711,7.516,5.707,13.250,11.369,-2.505,10.353,7.694,15.199,3.538,5.649
Fri Nov 22 19:21:14 2024,605,-9.921,9.921,-7.979,-7.979,-9.649,1.548,17.680,7.496,5.696,13.232,11.337,-2.505,10.276,7.653,15.137,3.582,5.640
Fri Nov 22 19:21:14 2024,610,-9.857,9.857,-8.002,-8.002,-9.697,1.523,17.602,7.379,5.685,13.223,11.243,-2.543,10.291,7.639,15.134,3.561,5.596
Fri Nov 22 19:21:14 2024,615,-9.797,9.797,-8.022,-8.022,-9.740,1.500,17.523,7.269,5.676,13.214,11.155,-2.579,10.302,7.624,15.130,3.543,5.555
Fri Nov 22 19:21:14 2024,620,-9.748,9.748,-8.038,-8.038,-9.775,1.482,17.456,7.177,5.668,13.206,11.081,-2.609,10.311,7.611,15.127,3.527,5.521
Fri Nov 22 19:21:14 2024,625,-9.800,9.800,-8.016,-8.016,-9.689,1.508,17.435,7.162,5.683,13.200,11.097,-2.562,10.206,7.595,15.113,3.544,5.566
Fri Nov 22 19:21:14 2024,630,-9.814,9.814,-8.008,-8.008,-9.652,1.517,17.402,7.127,5.689,13.195,11.084,-2.546,10.150,7.582,15.104,3.548,5.582
Fri Nov 22 19:21:14 2024,635,-9.782,9.782,-8.081,-8.081,-9.739,1.519,17.356,7.070,5.718,13.174,11.052,-2.536,10.120,7.524,15.112,3.514,5.480
Fri Nov 22 19:21:14 2024,640,-9.757,9.757,-8.138,-8.138,-9.802,1.522,17.316,7.022,5.742,13.156,11.026,-2.527,10.090,7.477,15.117,3.488,5.402
Fri Nov 22 19:21:14 2024,645,-9.739,9.739,-8.180,-8.180,-9.850,1.524,17.285,6.986,5.760,13.142,11.006,-2.520,10.068,7.442,15.121,3.468,5.345
Fri Nov 22 19:21:14 2024,650,-9.709,9.709,-8.159,-8.159,-9.821,1.513,17.290,7.025,5.770,13.134,11.047,-2.529,10.013,7.458,15.093,3.510,5.399
Fri Nov 22 19:21:14 2024,655,-9.679,9.679,-8.130,-8.130,-9.782,1.499,17.300,7.072,5.781,13.128,11.094,-2.539,9.956,7.481,15.061,3.559,5.466
Fri Nov 22 19:21:14 2024,660,-9.671,9.671,-8.123,-8.123,-9.778,1.525,17.328,7.054,5.753,13.124,10.994,-2.529,9.993,7.428,15.066,3.560,5.432
Fri Nov 22 19:21:14 2024,665,-9.662,9.662,-8.117,-8.117,-9.774,1.542,17.347,7.045,5.735,13.119,10.928,-2.522,10.011,7.392,15.067,3.565,5.413
Fri Nov 22 19:21:14 2024,670,-9.654,9.654,-8.111,-8.111,-9.770,1.558,17.364,7.037,5.720,13.116,10.868,-2.516,10.029,7.358,15.067,3.569,5.396
Fri Nov 22 19:21:14 2024,675,-9.502,9.502,-8.230,-8.230,-9.862,1.498,17.245,6.929,5.681,13.251,10.964,-2.511,10.128,7.415,15.071,3.585,5.378
Fri Nov 22 19:21:14 2024,680,-9.439,9.439,-8.276,-8.276,-9.897,1.479,17.201,6.884,5.662,13.303,10.986,-2.508,10.171,7.429,15.073,3.592,5.367
Fri Nov 22 19:21:14 2024,685,-9.463,9.463,-8.214,-8.214,-9.829,1.488,17.183,6.889,5.689,13.265,11.018,-2.526,10.097,7.461,15.026,3.655,5.434
Fri Nov 22 19:21:14 2024,690,-9.468,9.468,-8.181,-8.181,-9.790,1.491,17.165,6.885,5.703,13.248,11.042,-2.537,10.055,7.484,14.996,3.697,5.477
Fri Nov 22 19:21:14 2024,695,-9.496,9.496,-8.174,-8.174,-9.774,1.493,17.160,6.888,5.714,13.231,11.055,-2.536,10.021,7.501,14.990,3.704,5.496
Fri Nov 22 19:21:14 2024,700,-9.597,9.597,-8.245,-8.245,-9.826,1.489,17.201,6.913,5.710,13.206,11.036,-2.494,10.010,7.501,15.062,3.603,5.444
Fri Nov 22 19:21:14 2024,705,-9.672,9.672,-8.285,-8.285,-9.851,1.488,17.224,6.930,5.712,13.183,11.029,-2.468,9.987,7.509,15.103,3.544,5.421
Fri Nov 22 19:21:14 2024,710,-9.719,9.719,-8.298,-8.298,-9.869,1.489,17.264,6.916,5.733,13.212,11.020,-2.450,10.034,7.488,15.119,3.517,5.376
Fri Nov 22 19:21:14 2024,715,-9.776,9.776,-8.303,-8.303,-9.892,1.493,17.327,6.881,5.770,13.275,11.003,-2.428,10.132,7.444,15.132,3.494,5.303
Fri Nov 22 19:21:14 2024,720,-9.734,9.734,-8.305,-8.305,-9.861,1.500,17.285,6.929,5.778,13.217,11.059,-2.457,10.047,7.490,15.141,3.499,5.396
Fri Nov 22 19:21:14 2024,725,-9.696,9.696,-8.307,-8.307,-9.832,1.507,17.246,6.972,5.784,13.163,11.110,-2.484,9.969,7.533,15.149,3.503,5.482
Fri Nov 22 19:21:14 2024,730,-9.666,9.666,-8.308,-8.308,-9.810,1.512,17.214,7.006,5.789,13.120,11.150,-2.504,9.906,7.566,15.156,3.506,5.550
Fri Nov 22 19:21:14 2024,735,-9.792,9.792,-8.188,-8.188,-9.758,1.562,17.282,7.040,5.822,13.106,11.112,-2.437,10.010,7.552,15.183,3.448,5.493
Fri Nov 22 19:21:14 2024,740,-9.869,9.869,-8.106,-8.106,-9.716,1.598,17.315,7.073,5.846,13.083,11.099,-2.397,10.062,7.553,15.203,3.409,5.474
Fri Nov 22 19:21:14 2024,745,-9.924,9.924,-8.048,-8.048,-9.687,1.623,17.338,7.096,5.863,13.067,11.090,-2.370,10.098,7.554,15.217,3.381,5.461
Fri Nov 22 19:21:14 2024,750,-9.865,9.865,-8.216,-8.216,-9.786,1.518,17.424,7.154,5.788,13.151,11.167,-2.487,10.179,7.620,15.262,3.421,5.582
Fri Nov 22 19:21:14 2024,755,-9.865,9.865,-8.256,-8.256,-9.812,1.488,17.466,7.186,5.766,13.176,11.193,-2.521,10.225,7.646,15.285,3.424,5.623
Fri Nov 22 19:21:14 2024,760,-9.925,9.925,-8.215,-8.215,-9.734,1.529,17.441,7.282,5.787,13.128,11.292,-2.498,10.160,7.698,15.296,3.388,5.632
Fri Nov 22 19:21:14 2024,765,-9.956,9.956,-8.203,-8.203,-9.700,1.543,17.439,7.339,5.792,13.109,11.351,-2.494,10.138,7.730,15.308,3.372,5.646
Fri Nov 22 19:21:14 2024,770,-10.009,10.009,-8.219,-8.219,-9.689,1.530,17.543,7.426,5.803,13.127,11.391,-2.496,10.158,7.726,15.321,3.365,5.639
Fri Nov 22 19:21:14 2024,775,-10.052,10.052,-8.231,-8.231,-9.679,1.520,17.624,7.498,5.812,13.141,11.426,-2.498,10.174,7.724,15.331,3.359,5.633
Fri Nov 22 19:21:14 2024,780,-10.093,10.093,-8.242,-8.242,-9.670,1.511,17.696,7.565,5.820,13.153,11.458,-2.500,10.188,7.722,15.341,3.353,5.628
Fri Nov 22 19:21:14 2024,785,-10.009,10.009,-8.253,-8.253,-9.709,1.420,17.703,7.507,5.760,13.169,11.452,-2.540,10.216,7.772,15.334,3.365,5.712
Fri Nov 22 19:21:14 2024,790,-9.976,9.976,-8.262,-8.262,-9.728,1.366,17.730,7.499,5.729,13.182,11.459,-2.563,10.236,7.799,15.333,3.370,5.757
Fri Nov 22 19:21:14 2024,795,-9.995,9.995,-8.334,-8.334,-9.704,1.364,17.710,7.516,5.712,13.178,11.494,-2.605,10.114,7.772,15.300,3.391,5.740
Fri Nov 22 19:21:14 2024,800,-10.006,10.006,-8.386,-8.386,-9.688,1.358,17.699,7.528,5.697,13.175,11.520,-2.638,10.027,7.754,15.276,3.407,5.732
Fri Nov 22 19:21:14 2024,805,-10.016,10.016,-8.434,-8.434,-9.674,1.352,17.687,7.539,5.684,13.172,11.544,-2.667,9.948,7.739,15.255,3.421,5.724
Fri Nov 22 19:21:14 2024,810,-10.110,10.110,-8.479,-8.479,-9.736,1.415,17.724,7.648,5.716,13.145,11.562,-2.649,10.038,7.792,15.233,3.420,5.770
Fri Nov 22 19:21:14 2024,815,-10.172,10.172,-8.528,-8.528,-9.768,1.450,17.740,7.720,5.730,13.127,11.583,-2.650,10.059,7.818,15.210,3.426,5.796
Fri Nov 22 19:21:14 2024,820,-10.286,10.286,-8.503,-8.503,-9.776,1.407,17.877,7.773,5.753,13.154,11.588,-2.644,10.042,7.784,15.273,3.331,5.745
Fri Nov 22 19:21:14 2024,825,-10.362,10.362,-8.494,-8.494,-9.785,1.385,17.960,7.814,5.770,13.168,11.593,-2.641,10.034,7.767,15.308,3.276,5.718
Fri Nov 22 19:21:14 2024,830,-10.438,10.438,-8.485,-8.485,-9.794,1.364,18.041,7.854,5.786,13.181,11.599,-2.637,10.026,7.749,15.342,3.219,5.691
Fri Nov 22 19:21:14 2024,835,-10.336,10.336,-8.502,-8.502,-9.792,1.424,17.908,7.820,5.836,13.074,11.592,-2.636,10.050,7.782,15.198,3.340,5.642
Fri Nov 22 19:21:14 2024,840,-10.315,10.315,-8.507,-8.507,-9.794,1.444,17.874,7.818,5.864,13.031,11.591,-2.634,10.058,7.792,15.145,3.376,5.611
Fri Nov 22 19:21:14 2024,845,-10.343,10.343,-8.507,-8.507,-9.791,1.439,17.857,7.858,5.853,13.053,11.619,-2.751,9.935,7.784,15.128,3.366,5.625
Fri Nov 22 19:21:14 2024,850,-10.383,10.383,-8.506,-8.506,-9.785,1.428,17.842,7.911,5.833,13.092,11.655,-2.901,9.775,7.772,15.119,3.343,5.652
Fri Nov 22 19:21:14 2024,855,-10.404,10.404,-8.506,-8.506,-9.783,1.424,17.828,7.942,5.826,13.107,11.676,-2.988,9.683,7.766,15.106,3.336,5.663
Fri Nov 22 19:21:14 2024,860,-10.246,10.246,-8.500,-8.500,-9.738,1.509,17.676,7.879,5.935,13.002,11.673,-2.826,9.786,7.793,15.100,3.373,5.695
Fri Nov 22 19:21:14 2024,865,-10.173,10.173,-8.497,-8.497,-9.713,1.552,17.592,7.860,5.988,12.953,11.681,-2.777,9.802,7.804,15.092,3.389,5.716
Fri Nov 22 19:21:14 2024,870,-10.120,10.120,-8.489,-8.489,-9.734,1.456,17.721,7.973,5.904,13.043,11.734,-2.793,9.819,7.842,15.090,3.373,5.708
Fri Nov 22 19:21:14 2024,875,-10.066,10.066,-8.482,-8.482,-9.742,1.401,17.788,8.044,5.860,13.092,11.771,-2.792,9.835,7.871,15.087,3.366,5.708
Fri Nov 22 19:21:14 2024,880,-10.054,10.054,-8.477,-8.477,-9.738,1.408,17.797,8.084,5.855,13.100,11.781,-2.779,9.837,7.881,15.096,3.349,5.712
Fri Nov 22 19:21:14 2024,885,-10.119,10.119,-8.473,-8.473,-9.708,1.535,17.702,8.082,5.926,13.031,11.740,-2.737,9.813,7.863,15.131,3.304,5.727
Fri Nov 22 19:21:14 2024,890,-10.117,10.117,-8.470,-8.470,-9.699,1.583,17.668,8.087,5.949,12.995,11.709,-2.713,9.817,7.866,15.150,3.288,5.746
Fri Nov 22 19:21:14 2024,895,-10.071,10.071,-8.469,-8.469,-9.702,1.588,17.662,8.072,5.949,12.959,11.662,-2.698,9.843,7.879,15.159,3.296,5.775
Fri Nov 22 19:21:14 2024,900,-10.030,10.030,-8.468,-8.468,-9.703,1.596,17.654,8.060,5.952,12.925,11.618,-2.682,9.867,7.891,15.170,3.300,5.802
Fri Nov 22 19:21:14 2024,905,-10.044,10.044,-8.456,-8.456,-9.719,1.594,17.705,8.098,5.937,12.926,11.622,-2.703,9.823,7.873,15.159,3.313,5.808
Fri Nov 22 19:21:14 2024,910,-10.071,10.071,-8.440,-8.440,-9.738,1.588,17.771,8.147,5.919,12.937,11.639,-2.734,9.762,7.849,15.142,3.329,5.810
Fri Nov 22 19:21:14 2024,915,-10.089,10.089,-8.428,-8.428,-9.754,1.584,17.822,8.186,5.904,12.943,11.648,-2.758,9.715,7.830,15.130,3.342,5.813
Fri Nov 22 19:21:14 2024,920,-10.056,10.056,-8.502,-8.502,-9.775,1.615,17.679,8.145,5.958,12.858,11.656,-2.761,9.616,7.841,15.165,3.268,5.797
Fri Nov 22 19:21:14 2024,925,-10.043,10.043,-8.538,-8.538,-9.791,1.631,17.617,8.135,5.983,12.813,11.663,-2.769,9.549,7.842,15.180,3.231,5.790
Fri Nov 22 19:21:14 2024,930,-10.034,10.034,-8.564,-8.564,-9.802,1.642,17.571,8.128,6.001,12.781,11.668,-2.775,9.500,7.843,15.191,3.205,5.784
Fri Nov 22 19:21:14 2024,935,-9.900,9.900,-8.503,-8.503,-9.737,1.564,17.659,8.188,5.879,12.881,11.669,-2.752,9.684,7.939,15.164,3.293,5.912
Fri Nov 22 19:21:14 2024,940,-9.848,9.848,-8.493,-8.493,-9.719,1.541,17.669,8.206,5.843,12.903,11.672,-2.746,9.729,7.974,15.159,3.313,5.956
Fri Nov 22 19:21:14 2024,945,-9.917,9.917,-8.486,-8.486,-9.753,1.536,17.743,8.224,5.862,12.957,11.715,-2.799,9.688,7.910,15.154,3.303,5.886
Fri Nov 22 19:21:14 2024,950,-9.937,9.937,-8.480,-8.480,-9.765,1.527,17.783,8.239,5.860,12.990,11.737,-2.824,9.680,7.889,15.151,3.304,5.864
Fri Nov 22 19:21:14 2024,955,-9.907,9.907,-8.493,-8.493,-9.733,1.557,17.726,8.216,5.896,13.010,11.769,-2.799,9.628,7.895,15.112,3.338,5.880
Fri Nov 22 19:21:14 2024,960,-9.860,9.860,-8.513,-8.513,-9.686,1.599,17.638,8.182,5.945,13.024,11.804,-2.757,9.561,7.912,15.063,3.382,5.909
Fri Nov 22 19:21:14 2024,965,-9.832,9.832,-8.526,-8.526,-9.656,1.625,17.585,8.161,5.977,13.036,11.831,-2.733,9.514,7.919,15.029,3.412,5.925
Fri Nov 22 19:21:14 2024,970,-9.758,9.758,-8.552,-8.552,-9.708,1.567,17.680,8.201,5.890,13.096,11.772,-2.760,9.755,7.925,15.086,3.404,5.938
Fri Nov 22 19:21:14 2024,975,-9.710,9.710,-8.570,-8.570,-9.725,1.545,17.712,8.215,5.856,13.132,11.750,-2.767,9.866,7.930,15.104,3.409,5.950
Fri Nov 22 19:21:14 2024,980,-9.684,9.684,-8.619,-8.619,-9.779,1.572,17.702,8.197,5.908,13.080,11.734,-2.745,9.864,7.920,15.133,3.370,5.902
Fri Nov 22 19:21:14 2024,985,-9.662,9.662,-8.677,-8.677,-9.844,1.612,17.680,8.168,5.986,13.003,11.719,-2.714,9.833,7.906,15.164,3.319,5.838
Fri Nov 22 19:21:14 2024,990,-9.642,9.642,-8.716,-8.716,-9.887,1.633,17.671,8.154,6.027,12.961,11.707,-2.696,9.830,7.898,15.187,3.288,5.800
Fri Nov 22 19:21:14 2024,995,-9.510,9.510,-8.760,-8.760,-9.874,1.595,17.597,8.056,6.034,12.970,11.711,-2.711,9.844,7.958,15.234,3.326,5.951
Fri Nov 22 19:21:15 2024,0,-9.438,9.438,-8.797,-8.797,-9.884,1.584,17.556,8.003,6.053,12.959,11.708,-2.711,9.849,7.985,15.266,3.332,6.010
Fri Nov 22 19:21:15 2024,5,-9.538,9.538,-8.787,-8.787,-9.878,1.598,17.520,8.020,6.042,12.956,11.761,-2.722,9.744,8.003,15.260,3.307,6.036
Fri Nov 22 19:21:15 2024,10,-9.588,9.588,-8.789,-8.789,-9.877,1.604,17.486,8.018,6.038,12.951,11.796,-2.730,9.674,8.022,15.264,3.292,6.068
Fri Nov 22 19:21:15 2024,15,-9.631,9.631,-8.791,-8.791,-9.876,1.610,17.457,8.018,6.036,12.946,11.827,-2.737,9.614,8.038,15.269,3.277,6.096
Fri Nov 22 19:21:15 2024,20,-9.641,9.641,-8.793,-8.793,-9.848,1.657,17.327,7.854,6.092,12.847,11.572,-2.693,9.531,7.838,15.232,3.261,5.881
Fri Nov 22 19:21:15 2024,25,-9.661,9.661,-8.795,-8.795,-9.836,1.680,17.260,7.783,6.116,12.802,11.474,-2.677,9.473,7.758,15.218,3.248,5.799
Fri Nov 22 19:21:15 2024,30,-9.660,9.660,-8.856,-8.856,-9.861,1.638,17.288,7.810,6.086,12.894,11.626,-2.660,9.548,7.903,15.275,3.241,5.898
Fri Nov 22 19:21:15 2024,35,-9.664,9.664,-8.896,-8.896,-9.874,1.618,17.287,7.809,6.072,12.940,11.698,-2.645,9.580,7.976,15.308,3.232,5.941
Fri Nov 22 19:21:15 2024,40,-9.654,9.654,-8.899,-8.899,-9.870,1.655,17.236,7.788,6.091,12.916,11.683,-2.617,9.598,8.001,15.360,3.190,5.972
Fri Nov 22 19:21:15 2024,45,-9.629,9.629,-8.870,-8.870,-9.852,1.748,17.133,7.746,6.140,12.826,11.592,-2.574,9.606,7.990,15.433,3.112,5.998
Fri Nov 22 19:21:15 2024,50,-9.613,9.613,-8.857,-8.857,-9.843,1.806,17.065,7.718,6.170,12.774,11.544,-2.543,9.618,7.996,15.488,3.058,6.022
Fri Nov 22 19:21:15 2024,55,-9.669,9.669,-9.041,-9.041,-9.973,1.859,16.968,7.571,6.213,12.744,11.439,-2.497,9.491,7.851,15.520,3.045,5.952
Fri Nov 22 19:21:15 2024,60,-9.698,9.698,-9.145,-9.145,-10.046,1.904,16.894,7.480,6.246,12.714,11.366,-2.463,9.420,7.768,15.552,3.023,5.918
Fri Nov 22 19:21:15 2024,65,-9.681,9.681,-9.196,-9.196,-10.050,1.887,16.773,7.423,6.230,12.714,11.358,-2.482,9.346,7.750,15.576,3.012,5.909
Fri Nov 22 19:21:15 2024,70,-9.644,9.644,-9.215,-9.215,-10.022,1.844,16.640,7.390,6.193,12.728,11.384,-2.524,9.280,7.767,15.592,3.006,5.914
Fri Nov 22 19:21:15 2024,75,-9.622,9.622,-9.244,-9.244,-10.012,1.818,16.526,7.352,6.171,12.734,11.392,-2.550,9.220,7.766,15.611,2.998,5.913
Fri Nov 22 19:21:15 2024,80,-9.570,9.570,-9.196,-9.196,-9.996,1.787,16.494,7.274,6.212,12.724,11.308,-2.527,9.205,7.724,15.617,2.999,5.975
Fri Nov 22 19:21:15 2024,85,-9.528,9.528,-9.163,-9.163,-9.984,1.761,16.452,7.210,6.241,12.716,11.246,-2.513,9.185,7.692,15.626,2.998,6.022
Fri Nov 22 19:21:15 2024,90,-9.573,9.573,-9.271,-9.271,-10.071,1.754,16.517,7.194,6.243,12.758,11.285,-2.530,9.240,7.726,15.594,3.012,5.963
Fri Nov 22 19:21:15 2024,95,-9.601,9.601,-9.342,-9.342,-10.129,1.748,16.556,7.181,6.245,12.785,11.308,-2.540,9.274,7.747,15.574,3.021,5.927
Fri Nov 22 19:21:15 2024,100,-9.628,9.628,-9.411,-9.411,-10.184,1.741,16.594,7.167,6.248,12.811,11.332,-2.551,9.308,7.768,15.555,3.028,5.892
Fri Nov 22 19:21:15 2024,105,-9.535,9.535,-9.410,-9.410,-10.148,1.846,16.209,7.110,6.326,12.608,11.278,-2.460,9.115,7.696,15.618,2.918,5.820
Fri Nov 22 19:21:15 2024,110,-9.492,9.492,-9.434,-9.434,-10.147,1.904,15.999,7.072,6.373,12.498,11.255,-2.412,9.014,7.663,15.649,2.854,5.768
Fri Nov 22 19:21:15 2024,115,-9.697,9.697,-9.473,-9.473,-10.131,1.933,16.180,7.126,6.368,12.564,11.237,-2.338,9.184,7.721,15.761,2.816,5.867
Fri Nov 22 19:21:15 2024,120,-9.826,9.826,-9.502,-9.502,-10.120,1.961,16.264,7.156,6.373,12.590,11.222,-2.281,9.279,7.754,15.841,2.779,5.924
Fri Nov 22 19:21:15 2024,125,-9.931,9.931,-9.526,-9.526,-10.112,1.984,16.330,7.181,6.376,12.610,11.211,-2.236,9.356,7.782,15.906,2.748,5.971
Fri Nov 22 19:21:15 2024,130,-9.754,9.754,-9.537,-9.537,-10.191,1.843,16.270,6.971,6.269,12.710,11.190,-2.368,9.425,7.738,15.719,2.935,5.812
Fri Nov 22 19:21:15 2024,135,-9.701,9.701,-9.553,-9.553,-10.230,1.777,16.261,6.868,6.213,12.771,11.174,-2.421,9.491,7.726,15.646,3.021,5.745
Fri Nov 22 19:21:15 2024,140,-9.856,9.856,-9.620,-9.620,-10.309,1.837,16.230,6.814,6.279,12.743,11.096,-2.354,9.414,7.607,15.695,2.882,5.534
Fri Nov 22 19:21:15 2024,145,-9.956,9.956,-9.668,-9.668,-10.370,1.867,16.206,6.760,6.315,12.732,11.038,-2.316,9.370,7.522,15.716,2.798,5.377
Fri Nov 22 19:21:15 2024,150,-9.994,9.994,-9.678,-9.678,-10.357,1.880,16.120,6.695,6.319,12.736,11.015,-2.294,9.313,7.485,15.712,2.818,5.381
Fri Nov 22 19:21:15 2024,155,-9.976,9.976,-9.650,-9.650,-10.271,1.878,15.969,6.616,6.292,12.752,11.021,-2.285,9.241,7.492,15.683,2.940,5.537
Fri Nov 22 19:21:15 2024,160,-9.982,9.982,-9.637,-9.637,-10.213,1.882,15.837,6.540,6.278,12.764,11.014,-2.269,9.172,7.482,15.664,3.021,5.635
Fri Nov 22 19:21:15 2024,165,-10.095,10.095,-9.682,-9.682,-10.220,1.858,15.871,6.602,6.241,12.761,11.055,-2.272,9.296,7.588,15.680,3.027,5.652
Fri Nov 22 19:21:15 2024,170,-10.240,10.240,-9.742,-9.742,-10.237,1.825,15.930,6.693,6.197,12.756,11.108,-2.278,9.465,7.727,15.705,3.022,5.663
Fri Nov 22 19:21:15 2024,175,-10.255,10.255,-9.769,-9.769,-10.221,1.800,15.914,6.700,6.185,12.815,11.202,-2.296,9.475,7.764,15.689,3.064,5.681
Fri Nov 22 19:21:15 2024,180,-10.230,10.230,-9.790,-9.790,-10.195,1.773,15.879,6.687,6.184,12.902,11.321,-2.323,9.438,7.772,15.658,3.121,5.695
Fri Nov 22 19:21:15 2024,185,-10.220,10.220,-9.809,-9.809,-10.177,1.752,15.856,6.683,6.180,12.964,11.412,-2.342,9.421,7.788,15.637,3.162,5.708
Fri Nov 22 19:21:15 2024,190,-10.305,10.305,-9.900,-9.900,-10.277,1.716,15.950,6.703,6.212,12.897,11.334,-2.286,9.420,7.770,15.677,3.033,5.591
Fri Nov 22 19:21:15 2024,195,-10.357,10.357,-9.962,-9.962,-10.335,1.689,16.004,6.714,6.232,12.868,11.308,-2.256,9.415,7.763,15.697,2.959,5.521
Fri Nov 22 19:21:15 2024,200,-10.358,10.358,-9.996,-9.996,-10.358,1.667,16.007,6.671,6.229,12.848,11.262,-2.242,9.393,7.737,15.691,2.965,5.520
Fri Nov 22 19:21:15 2024,205,-10.279,10.279,-10.010,-10.010,-10.346,1.640,15.934,6.516,6.190,12.827,11.157,-2.244,9.334,7.660,15.636,3.101,5.623
Fri Nov 22 19:21:15 2024,210,-10.250,10.250,-10.030,-10.030,-10.351,1.620,15.907,6.438,6.176,12.809,11.097,-2.239,9.301,7.620,15.612,3.154,5.662
Fri Nov 22 19:21:15 2024,215,-10.253,10.253,-10.020,-10.020,-10.323,1.560,15.913,6.506,6.170,12.786,11.167,-2.236,9.340,7.718,15.672,3.074,5.676
Fri Nov 22 19:21:15 2024,220,-10.270,10.270,-9.992,-9.992,-10.271,1.462,15.935,6.664,6.166,12.754,11.318,-2.231,9.426,7.910,15.790,2.906,5.686
Fri Nov 22 19:21:15 2024,225,-10.262,10.262,-9.984,-9.984,-10.240,1.466,15.940,6.730,6.176,12.736,11.351,-2.246,9.400,7.914,15.795,2.869,5.682
Fri Nov 22 19:21:15 2024,230,-10.258,10.258,-9.978,-9.978,-10.214,1.466,15.945,6.787,6.183,12.721,11.380,-2.257,9.380,7.922,15.804,2.834,5.681
Fri Nov 22 19:21:15 2024,235,-10.254,10.254,-9.973,-9.973,-10.194,1.466,15.948,6.831,6.188,12.708,11.402,-2.266,9.364,7.928,15.810,2.806,5.680
Fri Nov 22 19:21:15 2024,240,-10.247,10.247,-10.185,-10.185,-10.284,1.480,15.887,6.803,6.225,12.677,11.371,-2.215,9.376,7.930,15.804,2.731,5.577
Fri Nov 22 19:21:15 2024,245,-10.243,10.243,-10.300,-10.300,-10.327,1.488,15.855,6.802,6.246,12.656,11.362,-2.191,9.377,7.933,15.803,2.680,5.521
Fri Nov 22 19:21:15 2024,250,-10.155,10.155,-10.187,-10.187,-10.261,1.473,15.799,6.751,6.254,12.609,11.326,-2.194,9.348,7.940,15.836,2.638,5.538
Fri Nov 22 19:21:15 2024,255,-10.064,10.064,-10.060,-10.060,-10.189,1.457,15.740,6.698,6.262,12.560,11.290,-2.200,9.316,7.947,15.871,2.596,5.558
Fri Nov 22 19:21:15 2024,260,-10.002,10.002,-9.981,-9.981,-10.143,1.446,15.698,6.662,6.268,12.523,11.265,-2.202,9.294,7.953,15.896,2.562,5.570
Fri Nov 22 19:21:15 2024,265,-10.117,10.117,-10.069,-10.069,-10.146,1.313,15.688,6.867,6.147,12.603,11.385,-2.254,9.234,7.992,15.841,2.533,5.542
Fri Nov 22 19:21:15 2024,270,-10.151,10.151,-10.085,-10.085,-10.132,1.246,15.666,6.954,6.091,12.628,11.436,-2.280,9.197,8.013,15.823,2.506,5.533
Fri Nov 22 19:21:15 2024,275,-10.161,10.161,-10.187,-10.187,-10.200,1.245,15.611,6.960,6.112,12.563,11.398,-2.315,9.048,7.954,15.801,2.480,5.510
Fri Nov 22 19:21:15 2024,280,-10.150,10.150,-10.355,-10.355,-10.331,1.298,15.534,6.904,6.192,12.429,11.291,-2.357,8.816,7.834,15.776,2.456,5.477
Fri Nov 22 19:21:15 2024,285,-10.153,10.153,-10.450,-10.450,-10.400,1.312,15.486,6.893,6.225,12.360,11.244,-2.386,8.681,7.775,15.760,2.434,5.458
Fri Nov 22 19:21:15 2024,290,-10.085,10.085,-10.492,-10.492,-10.354,1.353,15.353,6.786,6.231,12.279,11.136,-2.257,8.792,7.768,15.801,2.329,5.336
Fri Nov 22 19:21:15 2024,295,-10.052,10.052,-10.549,-10.549,-10.355,1.380,15.268,6.728,6.247,12.211,11.064,-2.202,8.799,7.743,15.817,2.266,5.267
Fri Nov 22 19:21:15 2024,300,-10.179,10.179,-10.528,-10.528,-10.373,1.316,15.263,6.796,6.255,12.144,11.096,-2.243,8.749,7.770,15.828,2.219,5.304
Fri Nov 22 19:21:15 2024,305,-10.268,10.268,-10.526,-10.526,-10.386,1.274,15.239,6.834,6.265,12.077,11.104,-2.262,8.712,7.785,15.842,2.168,5.317
Fri Nov 22 19:21:15 2024,310,-10.330,10.330,-10.524,-10.524,-10.396,1.246,15.223,6.861,6.273,12.030,11.110,-2.274,8.687,7.796,15.852,2.133,5.326
Fri Nov 22 19:21:15 2024,315,-10.498,10.498,-10.677,-10.677,-10.403,1.252,15.267,7.074,6.269,12.101,11.321,-2.281,8.664,7.933,15.897,2.087,5.447
Fri Nov 22 19:21:15 2024,320,-10.588,10.588,-10.739,-10.739,-10.409,1.245,15.279,7.171,6.270,12.113,11.409,-2.288,8.645,7.993,15.919,2.055,5.500
Fri Nov 22 19:21:15 2024,325,-10.710,10.710,-10.863,-10.863,-10.502,1.189,15.238,7.242,6.255,12.114,11.423,-2.320,8.532,7.948,15.908,1.956,5.388
Fri Nov 22 19:21:15 2024,330,-10.796,10.796,-10.944,-10.944,-10.554,1.157,15.217,7.301,6.247,12.117,11.450,-2.339,8.467,7.936,15.907,1.895,5.338
Fri Nov 22 19:21:15 2024,335,-10.892,10.892,-11.036,-11.036,-10.598,1.170,15.236,7.366,6.262,12.116,11.452,-2.341,8.478,7.930,15.921,1.874,5.354
Fri Nov 22 19:21:15 2024,340,-10.981,10.981,-11.124,-11.124,-10.622,1.241,15.306,7.422,6.305,12.110,11.420,-2.318,8.590,7.930,15.951,1.915,5.456
Fri Nov 22 19:21:15 2024,345,-11.072,11.072,-11.211,-11.211,-10.655,1.285,15.351,7.480,6.335,12.105,11.402,-2.306,8.656,7.929,15.974,1.929,5.519
Fri Nov 22 19:21:15 2024,350,-10.972,10.972,-11.206,-11.206,-10.639,1.365,15.253,7.486,6.392,12.027,11.414,-2.220,8.534,7.941,15.996,1.867,5.550
Fri Nov 22 19:21:15 2024,355,-10.943,10.943,-11.224,-11.224,-10.639,1.416,15.212,7.502,6.428,11.986,11.416,-2.173,8.486,7.946,16.013,1.839,5.581
Fri Nov 22 19:21:15 2024,360,-10.896,10.896,-11.250,-11.250,-10.704,1.396,15.241,7.504,6.434,12.002,11.438,-2.193,8.397,7.906,16.036,1.791,5.535
Fri Nov 22 19:21:15 2024,365,-10.852,10.852,-11.272,-11.272,-10.765,1.376,15.270,7.505,6.439,12.019,11.460,-2.214,8.315,7.868,16.056,1.747,5.490
Fri Nov 22 19:21:15 2024,370,-10.817,10.817,-11.293,-11.293,-10.817,1.359,15.294,7.506,6.443,12.032,11.478,-2.232,8.245,7.835,16.074,1.709,5.453
Fri Nov 22 19:21:15 2024,375,-10.670,10.670,-11.140,-11.140,-10.726,1.414,15.133,7.472,6.434,11.904,11.413,-2.271,8.057,7.802,15.991,1.792,5.524
Fri Nov 22 19:21:15 2024,380,-10.583,10.583,-11.067,-11.067,-10.694,1.438,15.055,7.455,6.431,11.839,11.384,-2.297,7.938,7.775,15.954,1.824,5.550
Fri Nov 22 19:21:15 2024,385,-10.582,10.582,-11.069,-11.069,-10.701,1.373,15.029,7.425,6.381,11.875,11.372,-2.332,7.983,7.780,15.962,1.839,5.569
Fri Nov 22 19:21:15 2024,390,-10.627,10.627,-11.114,-11.114,-10.730,1.263,15.033,7.391,6.309,11.965,11.370,-2.367,8.118,7.804,15.993,1.843,5.583
Fri Nov 22 19:21:15 2024,395,-10.589,10.589,-11.144,-11.144,-10.760,1.232,14.998,7.299,6.297,11.986,11.328,-2.383,8.099,7.775,15.962,1.884,5.569
Fri Nov 22 19:21:15 2024,400,-10.465,10.465,-11.189,-11.189,-10.809,1.268,14.929,7.110,6.347,11.957,11.233,-2.381,7.939,7.684,15.858,1.974,5.513
Fri Nov 22 19:21:15 2024,405,-10.381,10.381,-11.224,-11.224,-10.845,1.283,14.880,6.976,6.374,11.944,11.166,-2.384,7.838,7.622,15.790,2.038,5.476
Fri Nov 22 19:21:15 2024,410,-10.320,10.320,-11.162,-11.162,-10.830,1.252,14.849,6.939,6.322,11.923,11.116,-2.430,7.821,7.611,15.760,2.060,5.462
Fri Nov 22 19:21:15 2024,415,-10.281,10.281,-11.036,-11.036,-10.782,1.192,14.834,6.973,6.219,11.897,11.083,-2.501,7.864,7.636,15.760,2.052,5.467
Fri Nov 22 19:21:15 2024,420,-10.247,10.247,-10.978,-10.978,-10.764,1.164,14.817,6.966,6.171,11.879,11.054,-2.540,7.868,7.639,15.747,2.058,5.463
Fri Nov 22 19:21:15 2024,425,-10.155,10.155,-11.000,-11.000,-10.739,1.118,14.664,6.840,6.157,11.902,10.966,-2.559,7.752,7.595,15.697,2.249,5.606
Fri Nov 22 19:21:15 2024,430,-10.106,10.106,-10.991,-10.991,-10.722,1.089,14.590,6.783,6.135,11.906,10.918,-2.579,7.702,7.577,15.672,2.333,5.667
Fri Nov 22 19:21:15 2024,435,-10.086,10.086,-10.966,-10.966,-10.734,1.094,14.672,6.738,6.119,11.964,10.892,-2.559,7.719,7.544,15.662,2.369,5.655
Fri Nov 22 19:21:15 2024,440,-10.080,10.080,-10.930,-10.930,-10.761,1.116,14.831,6.697,6.105,12.050,10.874,-2.519,7.766,7.502,15.660,2.384,5.605
Fri Nov 22 19:21:15 2024,445,-10.067,10.067,-10.908,-10.908,-10.772,1.122,14.907,6.661,6.092,12.099,10.854,-2.500,7.783,7.475,15.654,2.408,5.591
Fri Nov 22 19:21:15 2024,450,-10.274,10.274,-10.742,-10.742,-10.810,1.022,14.972,6.569,6.050,12.276,10.715,-2.585,7.860,7.347,15.744,2.354,5.477
Fri Nov 22 19:21:15 2024,455,-10.374,10.374,-10.648,-10.648,-10.833,0.974,15.036,6.508,6.023,12.385,10.636,-2.622,7.907,7.269,15.788,2.336,5.414
Fri Nov 22 19:21:15 2024,460,-10.479,10.479,-10.622,-10.622,-10.764,0.985,14.910,6.490,6.020,12.332,10.632,-2.632,7.799,7.254,15.695,2.440,5.419
Fri Nov 22 19:21:15 2024,465,-10.621,10.621,-10.621,-10.621,-10.628,1.029,14.652,6.489,6.026,12.184,10.662,-2.633,7.583,7.261,15.505,2.636,5.458
Fri Nov 22 19:21:15 2024,470,-10.707,10.707,-10.604,-10.604,-10.565,1.043,14.538,6.477,6.025,12.129,10.662,-2.639,7.486,7.252,15.422,2.727,5.466
Fri Nov 22 19:21:15 2024,475,-10.679,10.679,-10.484,-10.484,-10.650,0.985,14.655,6.326,5.993,12.258,10.476,-2.578,7.723,7.170,15.526,2.708,5.413
Fri Nov 22 19:21:15 2024,480,-10.699,10.699,-10.428,-10.428,-10.660,0.966,14.661,6.259,5.980,12.291,10.399,-2.556,7.784,7.132,15.539,2.733,5.395
Fri Nov 22 19:21:15 2024,485,-10.829,10.829,-10.291,-10.291,-10.604,0.972,14.673,6.234,5.980,12.298,10.343,-2.567,7.752,7.055,15.542,2.739,5.343
Fri Nov 22 19:21:15 2024,490,-11.143,11.143,-10.024,-10.024,-10.434,1.020,14.696,6.281,6.004,12.261,10.324,-2.638,7.562,6.911,15.530,2.711,5.238
Fri Nov 22 19:21:15 2024,495,-11.262,11.262,-9.664,-9.664,-10.212,1.018,14.647,6.278,6.026,12.247,10.297,-2.625,7.584,6.905,15.522,2.728,5.222
Fri Nov 22 19:21:15 2024,500,-11.282,11.282,-9.113,-9.113,-9.852,0.989,14.524,6.271,6.064,12.226,10.290,-2.556,7.735,7.009,15.508,2.770,5.271
Fri Nov 22 19:21:15 2024,505,-11.329,11.329,-8.761,-8.761,-9.621,0.976,14.454,6.267,6.088,12.212,10.280,-2.522,7.807,7.054,15.500,2.794,5.287
Fri Nov 22 19:21:15 2024,510,-11.310,11.310,-7.729,-7.729,-9.012,0.824,14.425,6.372,6.002,12.303,10.235,-2.614,7.748,6.980,15.389,2.833,5.245
Fri Nov 22 19:21:15 2024,515,-11.286,11.286,-6.582,-6.582,-8.328,0.653,14.395,6.492,5.904,12.407,10.184,-2.722,7.676,6.892,15.263,2.875,5.198
Fri Nov 22 19:21:15 2024,520,-11.282,11.282,-5.946,-5.946,-7.929,0.562,14.368,6.553,5.857,12.459,10.158,-2.773,7.648,6.854,15.198,2.898,5.175
Fri Nov 22 19:21:15 2024,525,-11.134,11.134,-4.171,-4.171,-6.720,0.305,14.305,6.876,5.667,12.456,10.294,-2.799,7.532,7.104,15.239,2.792,5.433
Fri Nov 22 19:21:15 2024,530,-11.082,11.082,-3.308,-3.308,-6.109,0.187,14.268,7.013,5.583,12.471,10.333,-2.826,7.480,7.178,15.230,2.761,5.518
Fri Nov 22 19:21:15 2024,535,-11.356,11.356,-1.049,-1.049,-4.470,-0.290,14.033,7.176,5.290,12.732,10.410,-3.188,7.056,7.051,14.947,2.849,5.441
Fri Nov 22 19:21:15 2024,540,-11.488,11.488,0.159,0.485,-3.327,-0.565,13.880,7.309,5.105,12.876,10.464,-3.395,6.810,7.008,14.791,2.882,5.427
Fri Nov 22 19:21:15 2024,545,-11.573,11.573,1.441,1.441,-2.570,-0.748,13.775,7.396,4.985,12.968,10.500,-3.531,6.649,6.979,14.688,2.902,5.418
Fri Nov 22 19:21:15 2024,550,-11.999,11.999,4.046,4.046,-0.902,-1.350,13.072,7.799,4.759,13.142,10.574,-3.584,6.419,7.153,14.951,2.705,5.879
Fri Nov 22 19:21:15 2024,555,-12.196,12.196,5.441,5.441,0.500,-1.658,12.750,7.986,4.622,13.246,10.618,-3.665,6.261,7.204,15.002,2.640,6.051
Fri Nov 22 19:21:15 2024,560,-12.626,12.626,9.010,9.010,3.013,-1.672,12.402,8.215,4.525,13.419,10.771,-3.541,6.264,7.395,15.395,2.408,6.542
Fri Nov 22 19:21:15 2024,565,-12.867,12.867,10.934,10.934,4.440,-1.755,12.169,8.361,4.448,13.520,10.849,-3.507,6.226,7.492,15.580,2.287,6.810
Fri Nov 22 19:21:15 2024,570,-13.807,13.807,14.134,14.134,6.799,-1.747,11.527,8.536,4.474,13.207,10.918,-3.471,6.033,7.688,15.866,2.173,7.315
Fri Nov 22 19:21:15 2024,575,-14.516,14.516,16.584,16.584,8.740,-1.749,11.064,8.672,4.485,12.999,10.974,-3.443,5.896,7.831,16.080,2.078,7.693
Fri Nov 22 19:21:15 2024,580,-15.570,15.570,19.097,19.097,10.815,-1.718,10.506,8.819,4.494,12.705,11.135,-3.441,5.612,7.971,16.228,2.000,8.053
Fri Nov 22 19:21:15 2024,585,-17.557,17.557,21.802,21.802,13.232,-1.600,9.697,9.000,4.501,12.188,11.566,-3.512,4.940,8.108,16.209,1.975,8.362
Fri Nov 22 19:21:15 2024,590,-19.025,19.025,24.003,24.003,15.211,-1.527,9.119,9.136,4.511,11.822,11.834,-3.545,4.512,8.218,16.242,1.939,8.623
Fri Nov 22 19:21:15 2024,595,-20.389,20.389,25.865,25.865,16.773,-1.285,8.335,9.233,4.593,11.296,11.999,-3.483,4.113,8.370,16.247,1.791,8.819
Fri Nov 22 19:21:15 2024,600,-21.632,21.632,27.298,27.298,17.826,-0.718,7.050,9.262,4.824,10.402,11.978,-3.230,3.724,8.620,16.201,1.395,8.910
Fri Nov 22 19:21:15 2024,605,-23.220,23.220,28.139,28.139,18.437,-0.780,6.716,9.243,4.891,10.406,11.950,-3.060,3.826,8.760,16.358,1.268,8.939
Fri Nov 22 19:21:15 2024,610,-25.254,25.254,28.226,28.226,18.272,-1.162,6.936,9.147,4.891,11.030,11.808,-2.842,4.397,8.876,16.688,1.248,8.862
Fri Nov 22 19:21:15 2024,615,-27.102,27.102,28.612,28.612,18.480,-1.431,6.933,9.085,4.916,11.380,11.714,-2.655,4.764,8.997,16.936,1.176,8.829
Fri Nov 22 19:21:15 2024,620,-27.561,27.561,28.858,28.858,18.676,-1.641,6.992,8.683,4.977,11.484,11.586,-2.617,4.926,8.902,16.936,1.275,8.815
Fri Nov 22 19:21:15 2024,625,-28.285,28.285,29.104,29.104,18.870,-1.837,7.024,8.405,5.021,11.619,11.483,-2.556,5.106,8.862,16.984,1.323,8.802
Fri Nov 22 19:21:15 2024,630,-28.636,28.636,29.165,29.165,18.956,-1.883,6.953,8.176,5.134,11.664,11.456,-2.460,5.188,8.881,17.119,1.276,8.814
Fri Nov 22 19:21:15 2024,635,-28.676,28.676,29.045,29.045,18.943,-1.778,6.756,7.946,5.346,11.627,11.504,-2.302,5.184,8.966,17.378,1.118,8.857
Fri Nov 22 19:21:15 2024,640,-28.871,28.871,29.016,29.016,18.984,-1.741,6.634,7.752,5.488,11.620,11.520,-2.191,5.210,9.014,17.552,1.021,8.883
Fri Nov 22 19:21:15 2024,645,-28.990,28.990,28.504,28.504,18.768,-1.797,6.400,7.642,5.378,11.502,11.500,-2.272,5.018,8.996,17.533,1.048,8.889
Fri Nov 22 19:21:15 2024,650,-29.075,29.075,27.597,27.597,18.342,-1.922,6.061,7.572,5.088,11.284,11.452,-2.489,4.655,8.931,17.386,1.163,8.882
Fri Nov 22 19:21:15 2024,655,-29.196,29.196,27.132,27.132,18.137,-1.976,5.858,7.490,4.977,11.160,11.432,-2.572,4.475,8.912,17.355,1.195,8.886
Fri Nov 22 19:21:15 2024,660,-29.843,29.843,26.168,26.168,17.450,-2.096,6.325,7.676,4.904,11.719,11.662,-2.523,5.071,9.128,17.499,1.238,8.977
Fri Nov 22 19:21:15 2024,665,-30.149,30.149,25.627,25.627,17.102,-2.163,6.430,7.718,4.836,11.888,11.743,-2.534,5.234,9.204,17.543,1.262,9.013
Fri Nov 22 19:21:15 2024,670,-30.245,30.245,25.276,25.276,16.952,-2.359,6.507,7.770,4.669,12.106,11.742,-2.602,5.591,9.324,17.548,1.415,9.300
Fri Nov 22 19:21:15 2024,675,-30.409,30.409,24.886,24.886,16.748,-2.510,6.585,7.816,4.539,12.299,11.765,-2.652,5.873,9.426,17.564,1.516,9.502
Fri Nov 22 19:21:15 2024,680,-30.538,30.538,24.590,24.590,16.592,-2.625,6.642,7.852,4.440,12.446,11.782,-2.691,6.086,9.502,17.576,1.588,9.654
Fri Nov 22 19:21:15 2024,685,-30.780,30.780,24.205,24.205,16.370,-2.814,6.628,7.740,4.270,12.653,11.743,-2.822,6.162,9.444,17.566,1.622,9.668
Fri Nov 22 19:21:15 2024,690,-30.937,30.937,23.924,23.924,16.212,-2.940,6.643,7.708,4.160,12.798,11.735,-2.892,6.280,9.452,17.568,1.664,9.736
Fri Nov 22 19:21:15 2024,695,-31.104,31.104,23.460,23.460,15.882,-3.136,6.539,7.807,4.085,12.864,11.870,-2.948,6.273,9.553,17.571,1.638,9.712
Fri Nov 22 19:21:15 2024,700,-31.287,31.287,22.923,22.923,15.494,-3.362,6.406,7.936,4.009,12.923,12.039,-3.006,6.245,9.678,17.575,1.600,9.670
Fri Nov 22 19:21:15 2024,705,-31.362,31.362,22.444,22.444,15.162,-3.514,6.270,7.983,3.946,13.044,12.180,-3.008,6.304,9.796,17.590,1.590,9.724
Fri Nov 22 19:21:15 2024,710,-31.333,31.333,21.968,21.968,14.841,-3.606,6.109,7.954,3.893,13.237,12.313,-2.950,6.456,9.924,17.617,1.604,9.879
Fri Nov 22 19:21:15 2024,715,-31.351,31.351,21.672,21.672,14.634,-3.680,6.019,7.954,3.856,13.339,12.394,-2.933,6.527,9.998,17.631,1.608,9.949
Fri Nov 22 19:21:15 2024,720,-31.738,31.738,21.469,21.469,14.522,-3.768,6.244,7.914,3.784,13.392,12.364,-2.979,6.418,9.875,17.541,1.699,9.884
Fri Nov 22 19:21:15 2024,725,-31.969,31.969,21.241,21.241,14.378,-3.845,6.337,7.891,3.728,13.460,12.379,-2.999,6.382,9.833,17.496,1.753,9.873
Fri Nov 22 19:21:15 2024,730,-32.150,32.150,21.076,21.076,14.215,-3.928,6.348,7.906,3.691,13.490,12.382,-2.970,6.468,9.856,17.558,1.694,9.846
Fri Nov 22 19:21:15 2024,735,-32.330,32.330,20.920,20.920,14.032,-4.020,6.331,7.934,3.658,13.511,12.381,-2.923,6.600,9.901,17.663,1.593,9.813
Fri Nov 22 19:21:15 2024,740,-32.478,32.478,20.731,20.731,13.905,-4.104,6.295,7.935,3.607,13.519,12.388,-2.917,6.623,9.930,17.680,1.585,9.847
Fri Nov 22 19:21:15 2024,745,-32.636,32.636,20.392,20.392,13.789,-4.228,6.168,7.902,3.502,13.495,12.407,-2.959,6.518,9.974,17.600,1.684,10.016
Fri Nov 22 19:21:15 2024,750,-32.757,32.757,20.178,20.178,13.695,-4.312,6.097,7.887,3.437,13.485,12.419,-2.976,6.478,10.003,17.569,1.726,10.103
Fri Nov 22 19:21:15 2024,755,-32.925,32.925,20.014,20.014,13.566,-4.361,6.209,7.942,3.394,13.482,12.453,-3.008,6.491,10.012,17.543,1.729,10.064
Fri Nov 22 19:21:15 2024,760,-33.121,33.121,19.854,19.854,13.417,-4.402,6.384,8.021,3.355,13.479,12.495,-3.046,6.520,10.015,17.519,1.719,9.983
Fri Nov 22 19:21:15 2024,765,-33.240,33.240,19.742,19.742,13.326,-4.436,6.464,8.060,3.325,13.476,12.519,-3.069,6.530,10.021,17.502,1.720,9.954
Fri Nov 22 19:21:15 2024,770,-33.470,33.470,19.222,19.222,12.948,-4.557,6.385,7.987,3.182,13.296,12.350,-3.152,6.344,9.892,17.452,1.755,9.885
Fri Nov 22 19:21:15 2024,775,-33.606,33.606,18.972,18.972,12.766,-4.618,6.380,7.971,3.113,13.218,12.290,-3.194,6.273,9.842,17.427,1.769,9.848
Fri Nov 22 19:21:15 2024,780,-33.510,33.510,18.763,18.763,12.538,-4.698,6.582,7.984,3.029,13.231,12.282,-3.274,6.177,9.738,17.394,1.751,9.639
Fri Nov 22 19:21:15 2024,785,-33.480,33.480,18.564,18.564,12.343,-4.764,6.716,7.989,2.956,13.220,12.264,-3.338,6.098,9.657,17.365,1.740,9.492
Fri Nov 22 19:21:15 2024,790,-33.448,33.448,18.418,18.418,12.209,-4.784,6.778,8.014,2.948,13.208,12.294,-3.370,6.034,9.654,17.362,1.716,9.458
Fri Nov 22 19:21:15 2024,795,-33.415,33.415,18.351,18.351,12.168,-4.743,6.744,8.062,3.019,13.196,12.381,-3.360,5.998,9.747,17.392,1.678,9.564
Fri Nov 22 19:21:15 2024,800,-33.390,33.390,18.276,18.276,12.107,-4.731,6.749,8.091,3.047,13.186,12.429,-3.366,5.963,9.787,17.404,1.654,9.600
Fri Nov 22 19:21:15 2024,805,-33.286,33.286,18.095,18.095,11.863,-4.856,6.829,8.138,2.936,13.169,12.339,-3.445,5.976,9.740,17.443,1.596,9.473
Fri Nov 22 19:21:15 2024,810,-33.218,33.218,17.964,17.964,11.698,-4.930,6.877,8.174,2.875,13.156,12.297,-3.494,5.974,9.722,17.470,1.553,9.404
Fri Nov 22 19:21:15 2024,815,-33.159,33.159,17.853,17.853,11.557,-4.991,6.918,8.206,2.824,13.144,12.261,-3.536,5.972,9.707,17.494,1.517,9.346
Fri Nov 22 19:21:15 2024,820,-33.130,33.130,17.888,17.888,11.622,-5.003,7.074,8.218,2.819,13.308,12.374,-3.473,5.971,9.754,17.401,1.629,9.372
Fri Nov 22 19:21:15 2024,825,-33.096,33.096,17.861,17.861,11.596,-5.031,7.156,8.235,2.798,13.374,12.408,-3.462,5.969,9.768,17.370,1.662,9.361
Fri Nov 22 19:21:15 2024,830,-33.007,33.007,18.217,18.217,11.811,-5.099,7.151,8.252,2.837,13.362,12.388,-3.429,5.905,9.734,17.456,1.472,9.278
Fri Nov 22 19:21:15 2024,835,-32.939,32.939,18.434,18.434,11.938,-5.151,7.174,8.269,2.855,13.376,12.386,-3.404,5.863,9.717,17.501,1.360,9.222
Fri Nov 22 19:21:15 2024,840,-32.886,32.886,18.602,18.602,12.036,-5.192,7.192,8.282,2.868,13.387,12.385,-3.385,5.831,9.704,17.536,1.273,9.179
Fri Nov 22 19:21:15 2024,845,-32.740,32.740,18.829,18.829,12.211,-5.232,7.215,8.235,2.944,13.292,12.231,-3.541,5.666,9.540,17.386,1.362,9.010
Fri Nov 22 19:21:15 2024,850,-32.657,32.657,19.001,19.001,12.329,-5.267,7.233,8.221,2.982,13.256,12.165,-3.598,5.581,9.465,17.339,1.359,8.920
Fri Nov 22 19:21:15 2024,855,-32.662,32.662,19.683,19.683,12.779,-5.262,7.231,8.202,3.161,13.241,12.117,-3.633,5.464,9.345,17.356,1.220,8.729
Fri Nov 22 19:21:15 2024,860,-32.644,32.644,20.170,20.170,13.096,-5.271,7.236,8.184,3.287,13.214,12.063,-3.676,5.361,9.244,17.349,1.128,8.578
Fri Nov 22 19:21:15 2024,865,-32.395,32.395,20.592,20.592,13.359,-5.203,7.297,8.115,3.470,13.123,11.987,-3.699,5.102,9.123,17.252,1.108,8.464
Fri Nov 22 19:21:15 2024,870,-32.210,32.210,20.976,20.976,13.597,-5.152,7.344,8.058,3.626,13.046,11.922,-3.724,4.891,9.018,17.177,1.078,8.358
Fri Nov 22 19:21:15 2024,875,-32.076,32.076,21.265,21.265,13.774,-5.113,7.379,8.017,3.743,12.986,11.872,-3.743,4.731,8.939,17.119,1.053,8.279
Fri Nov 22 19:21:15 2024,880,-31.718,31.718,22.321,22.321,14.439,-5.118,7.613,8.008,4.031,12.838,11.632,-3.670,4.579,8.651,17.077,0.919,7.918
Fri Nov 22 19:21:15 2024,885,-31.530,31.530,22.902,22.902,14.795,-5.108,7.733,7.990,4.202,12.744,11.504,-3.642,4.458,8.491,17.038,0.845,7.726
Fri Nov 22 19:21:15 2024,890,-30.972,30.972,23.560,23.560,15.240,-5.046,7.642,7.976,4.357,12.599,11.438,-3.650,4.232,8.392,16.996,0.796,7.648
Fri Nov 22 19:21:15 2024,895,-30.070,30.070,24.377,24.377,15.815,-4.940,7.381,7.962,4.524,12.399,11.405,-3.685,3.897,8.322,16.947,0.757,7.640
Fri Nov 22 19:21:15 2024,900,-29.562,29.562,24.966,24.966,16.205,-4.879,7.263,7.951,4.655,12.264,11.357,-3.698,3.683,8.246,16.910,0.717,7.592
Fri Nov 22 19:21:15 2024,905,-28.255,28.255,25.797,25.797,16.783,-4.655,7.412,7.995,4.856,12.088,11.327,-3.650,3.607,8.198,16.961,0.557,7.380
Fri Nov 22 19:21:15 2024,910,-27.402,27.402,26.489,26.489,17.256,-4.511,7.443,8.014,5.017,11.936,11.292,-3.630,3.479,8.142,16.973,0.453,7.246
Fri Nov 22 19:21:15 2024,915,-26.424,26.424,27.265,27.265,17.772,-4.272,7.706,7.965,5.223,11.990,11.201,-3.663,3.318,7.926,16.972,0.297,7.087
Fri Nov 22 19:21:15 2024,920,-25.834,25.834,27.825,27.825,18.147,-4.106,7.867,7.938,5.373,11.992,11.140,-3.681,3.202,7.787,16.973,0.185,6.972
Fri Nov 22 19:21:15 2024,925,-25.397,25.397,28.316,28.316,18.476,-3.959,8.007,7.913,5.506,11.988,11.085,-3.697,3.098,7.664,16.972,0.086,6.870
Fri Nov 22 19:21:15 2024,930,-25.424,25.424,28.448,28.448,18.271,-3.856,8.649,8.176,5.642,12.421,10.926,-3.495,3.976,7.400,16.925,-0.021,6.400
Fri Nov 22 19:21:15 2024,935,-25.466,25.466,28.651,28.651,18.275,-3.758,8.972,8.280,5.751,12.576,10.837,-3.410,4.315,7.244,16.902,-0.101,6.165
Fri Nov 22 19:21:15 2024,940,-25.158,25.158,28.538,28.538,17.965,-3.834,8.974,8.149,5.620,12.539,10.510,-3.484,4.282,6.997,16.712,-0.080,6.064
Fri Nov 22 19:21:15 2024,945,-25.032,25.032,28.400,28.400,17.624,-3.907,8.985,8.020,5.489,12.505,10.178,-3.557,4.257,6.747,16.519,-0.065,5.956
Fri Nov 22 19:21:15 2024,950,-24.753,24.753,29.348,29.348,18.308,-4.243,8.670,8.005,5.386,12.427,10.044,-3.855,3.936,6.588,16.401,-0.245,5.868
Fri Nov 22 19:21:15 2024,955,-24.608,24.608,30.109,30.109,18.853,-4.511,8.415,7.996,5.306,12.361,9.944,-4.091,3.680,6.469,16.310,-0.395,5.802
Fri Nov 22 19:21:15 2024,960,-24.530,24.530,30.902,30.902,19.415,-4.789,8.148,7.987,5.223,12.288,9.840,-4.337,3.411,6.346,16.216,-0.558,5.735
Fri Nov 22 19:21:15 2024,965,-24.601,24.601,31.579,31.579,19.995,-4.882,7.970,8.079,5.259,12.115,9.839,-4.372,3.132,6.274,16.240,-0.843,5.666
Fri Nov 22 19:21:15 2024,970,-24.842,24.842,32.298,32.298,20.773,-4.731,7.870,8.347,5.480,11.740,9.990,-4.105,2.748,6.252,16.443,-1.396,5.572
Fri Nov 22 19:21:15 2024,975,-24.953,24.953,32.820,32.820,21.220,-4.747,7.753,8.458,5.549,11.562,10.025,-4.065,2.509,6.211,16.501,-1.679,5.517
Fri Nov 22 19:21:15 2024,980,-24.188,24.188,30.579,30.579,19.427,-4.478,7.995,8.221,5.624,11.620,9.796,-3.895,2.921,6.367,16.658,-1.263,6.042
Fri Nov 22 19:21:15 2024,985,-24.016,24.016,30.024,30.024,19.009,-4.391,8.035,8.179,5.675,11.575,9.729,-3.822,2.978,6.407,16.732,-1.222,6.207
Fri Nov 22 19:21:15 2024,990,-23.049,23.049,28.551,28.551,18.303,-4.373,8.000,8.476,5.522,11.272,9.716,-3.982,2.868,6.522,16.515,-1.167,6.256
Fri Nov 22 19:21:15 2024,995,-22.640,0.079,27.648,27.648,17.850,-4.338,7.991,8.624,5.456,11.087,9.690,-4.048,2.826,6.595,16.420,-1.126,6.328
Fri Nov 22 19:21:16 2024,0,-22.607,-22.607,26.818,26.818,17.370,-4.306,8.092,8.714,5.419,11.038,9.663,-4.029,2.853,6.630,16.328,-1.100,6.351
Fri Nov 22 19:21:16 2024,5,-23.371,-23.371,25.503,25.503,16.396,-4.256,8.572,8.710,5.431,11.344,9.613,-3.756,3.099,6.582,16.172,-1.087,6.252
Fri Nov 22 19:21:16 2024,10,-23.699,-23.699,24.661,24.661,15.862,-4.219,8.801,8.751,5.419,11.436,9.582,-3.644,3.203,6.580,16.070,-1.070,6.226
Fri Nov 22 19:21:16 2024,15,-23.882,-23.882,23.051,23.051,14.454,-4.204,8.858,8.400,5.447,11.487,9.305,-3.748,3.438,6.336,15.990,-0.980,5.894
Fri Nov 22 19:21:16 2024,20,-24.113,-24.113,22.107,22.107,13.692,-4.186,8.947,8.249,5.457,11.535,9.168,-3.767,3.574,6.222,15.925,-0.934,5.737
Fri Nov 22 19:21:16 2024,25,-24.565,-24.565,21.106,21.106,13.023,-4.210,8.832,8.001,5.453,11.721,9.166,-3.830,3.645,6.157,15.783,-0.684,5.759
Fri Nov 22 19:21:16 2024,30,-24.957,-24.957,20.313,20.313,12.489,-4.224,8.759,7.809,5.452,11.856,9.150,-3.876,3.709,6.099,15.676,-0.501,5.760
Fri Nov 22 19:21:16 2024,35,-25.243,-25.243,19.341,19.341,11.751,-4.253,8.782,7.629,5.477,11.968,9.111,-3.899,3.788,6.025,15.551,-0.342,5.702
Fri Nov 22 19:21:16 2024,40,-25.332,-25.332,17.631,17.631,10.306,-4.322,9.032,7.418,5.574,12.064,9.002,-3.872,3.926,5.891,15.344,-0.182,5.494
Fri Nov 22 19:21:16 2024,45,-25.492,-25.492,16.426,16.426,9.361,-4.369,9.179,7.245,5.639,12.145,8.929,-3.864,4.027,5.794,15.189,-0.043,5.361
Fri Nov 22 19:21:16 2024,50,-25.532,-25.532,14.693,14.693,7.981,-4.350,9.461,7.024,5.778,12.337,8.989,-3.791,4.329,5.710,15.126,0.081,5.103
Fri Nov 22 19:21:16 2024,55,-25.584,-25.584,13.486,13.486,7.062,-4.342,9.657,6.864,5.876,12.452,9.018,-3.742,4.533,5.646,15.070,0.176,4.929
Fri Nov 22 19:21:16 2024,60,-25.637,-25.637,12.412,12.412,6.276,-4.334,9.834,6.718,5.965,12.546,9.044,-3.696,4.718,5.588,15.018,0.262,4.775
Fri Nov 22 19:21:16 2024,65,-25.634,-25.634,11.041,11.041,5.222,-4.197,9.913,6.651,6.168,12.525,9.206,-3.463,4.881,5.624,15.035,0.187,4.697
Fri Nov 22 19:21:16 2024,70,-25.662,-25.662,9.974,9.974,4.452,-4.124,10.018,6.565,6.306,12.534,9.297,-3.328,5.030,5.620,15.024,0.181,4.603
Fri Nov 22 19:21:16 2024,75,-25.554,-25.554,8.136,8.136,3.045,-3.939,10.144,6.349,6.416,12.391,9.335,-3.216,5.078,5.558,14.995,0.235,4.434
Fri Nov 22 19:21:16 2024,80,-25.486,-25.486,6.666,6.666,2.030,-3.795,10.250,6.184,6.520,12.293,9.379,-3.112,5.139,5.514,14.974,0.270,4.304
Fri Nov 22 19:21:16 2024,85,-25.435,-25.435,5.563,5.563,1.383,-3.686,10.329,6.059,6.599,12.218,9.412,-3.032,5.185,5.480,14.957,0.297,4.208
Fri Nov 22 19:21:16 2024,90,-25.430,-25.430,4.501,4.501,0.998,-3.743,10.413,5.999,6.632,12.230,9.489,-2.932,5.383,5.541,14.976,0.438,4.296
Fri Nov 22 19:21:16 2024,95,-25.410,-25.410,3.576,3.576,0.302,-3.723,10.485,5.921,6.680,12.204,9.538,-2.854,5.491,5.555,14.979,0.511,4.296
Fri Nov 22 19:21:16 2024,100,-25.402,-25.402,2.723,2.723,-1.491,-3.720,10.601,5.902,6.640,12.179,9.552,-2.817,5.532,5.567,14.904,0.503,4.246
Fri Nov 22 19:21:16 2024,105,-25.398,-25.398,1.891,1.891,-1.980,-3.712,10.700,5.868,6.626,12.154,9.576,-2.769,5.591,5.578,14.854,0.519,4.213
Fri Nov 22 19:21:16 2024,110,-25.397,-25.397,1.253,1.253,-2.375,-3.707,10.776,5.841,6.615,12.135,9.595,-2.732,5.636,5.587,14.815,0.531,4.188
Fri Nov 22 19:21:16 2024,115,-25.388,-25.388,0.672,0.672,-2.701,-3.564,10.839,5.898,6.687,12.026,9.769,-2.458,5.700,5.697,14.899,0.487,4.225
Fri Nov 22 19:21:16 2024,120,-25.391,-25.391,0.071,0.239,-2.959,-3.508,10.890,5.910,6.710,11.978,9.842,-2.340,5.740,5.742,14.918,0.474,4.231
Fri Nov 22 19:21:16 2024,125,-25.490,-25.490,-0.133,-0.133,-3.180,-3.512,10.992,5.865,6.614,11.995,9.806,-2.326,5.806,5.793,14.941,0.524,4.287
Fri Nov 22 19:21:16 2024,130,-25.560,-25.560,-0.474,-0.474,-3.410,-3.498,11.077,5.839,6.555,11.990,9.804,-2.280,5.864,5.841,14.964,0.554,4.328
Fri Nov 22 19:21:16 2024,135,-25.550,-25.550,-0.875,-0.875,-3.703,-3.436,11.133,5.819,6.583,11.901,9.799,-2.199,5.854,5.831,15.011,0.483,4.295
Fri Nov 22 19:21:16 2024,140,-25.549,-25.549,-1.341,-1.341,-4.033,-3.370,11.202,5.795,6.606,11.804,9.792,-2.109,5.850,5.825,15.063,0.412,4.265
Fri Nov 22 19:21:16 2024,145,-25.550,-25.550,-1.647,-1.647,-4.246,-3.327,11.247,5.779,6.620,11.740,9.788,-2.050,5.847,5.821,15.098,0.365,4.246
Fri Nov 22 19:21:16 2024,150,-25.542,-25.542,-2.013,-2.013,-4.449,-3.266,11.292,5.777,6.663,11.673,9.825,-2.072,5.680,5.854,15.085,0.324,4.298
Fri Nov 22 19:21:16 2024,155,-25.541,-25.541,-2.341,-2.341,-4.645,-3.214,11.335,5.770,6.693,11.610,9.846,-2.063,5.582,5.871,15.090,0.283,4.321
Fri Nov 22 19:21:16 2024,160,-25.393,-25.393,-2.853,-2.853,-5.010,-3.154,11.492,5.737,6.661,11.556,9.800,-2.065,5.586,5.838,15.077,0.299,4.264
Fri Nov 22 19:21:16 2024,165,-25.285,-25.285,-3.245,-3.245,-5.285,-3.108,11.608,5.713,6.639,11.512,9.767,-2.066,5.585,5.814,15.067,0.309,4.225
Fri Nov 22 19:21:16 2024,170,-25.198,-25.198,-3.569,-3.569,-5.508,-3.068,11.704,5.692,6.620,11.475,9.740,-2.067,5.584,5.794,15.060,0.318,4.194
Fri Nov 22 19:21:16 2024,175,-24.964,-24.964,-3.821,-3.821,-5.738,-2.989,11.715,5.742,6.610,11.414,9.844,-2.010,5.604,5.945,15.156,0.262,4.303
Fri Nov 22 19:21:16 2024,180,-24.803,-24.803,-4.078,-4.078,-5.946,-2.930,11.754,5.763,6.598,11.366,9.893,-1.978,5.615,6.024,15.209,0.234,4.355
Fri Nov 22 19:21:16 2024,185,-24.492,-24.492,-4.275,-4.275,-6.153,-2.782,11.992,5.765,6.514,11.374,9.826,-1.974,5.748,6.062,15.200,0.342,4.376
Fri Nov 22 19:21:16 2024,190,-24.245,-24.245,-4.454,-4.454,-6.331,-2.670,12.168,5.770,6.453,11.370,9.784,-1.967,5.845,6.100,15.202,0.414,4.400
Fri Nov 22 19:21:16 2024,195,-24.016,-24.016,-4.619,-4.619,-6.496,-2.565,12.331,5.775,6.396,11.366,9.747,-1.961,5.936,6.136,15.203,0.482,4.421
Fri Nov 22 19:21:16 2024,200,-23.386,-23.386,-4.851,-4.851,-6.765,-2.282,12.596,5.777,6.362,11.380,9.781,-1.877,6.194,6.232,15.265,0.684,4.512
Fri Nov 22 19:21:16 2024,205,-23.024,-23.024,-5.007,-5.007,-6.938,-2.122,12.768,5.781,6.328,11.384,9.784,-1.838,6.340,6.287,15.293,0.795,4.561
Fri Nov 22 19:21:16 2024,210,-22.706,-22.706,-5.184,-5.184,-7.142,-2.034,12.929,5.845,6.235,11.438,9.814,-1.853,6.614,6.439,15.272,1.025,4.685
Fri Nov 22 19:21:16 2024,215,-22.382,-22.382,-5.350,-5.350,-7.333,-1.934,13.090,5.896,6.158,11.479,9.838,-1.858,6.855,6.568,15.260,1.223,4.791
Fri Nov 22 19:21:16 2024,220,-22.141,-22.141,-5.472,-5.472,-7.473,-1.860,13.210,5.935,6.101,11.508,9.855,-1.862,7.034,6.665,15.251,1.367,4.871
Fri Nov 22 19:21:16 2024,225,-21.798,-21.798,-5.774,-5.774,-7.670,-1.611,13.624,5.983,6.167,11.448,9.784,-1.779,7.002,6.501,15.246,1.301,4.695
Fri Nov 22 19:21:16 2024,230,-21.567,-21.567,-5.943,-5.943,-7.803,-1.480,13.840,6.017,6.175,11.433,9.759,-1.745,7.051,6.465,15.241,1.323,4.650
Fri Nov 22 19:21:16 2024,235,-21.379,-21.379,-6.002,-6.002,-7.814,-1.369,13.969,6.080,6.172,11.355,9.861,-1.709,6.943,6.558,15.231,1.397,4.789
Fri Nov 22 19:21:16 2024,240,-21.192,-21.192,-6.082,-6.082,-7.852,-1.260,14.111,6.134,6.172,11.295,9.929,-1.676,6.876,6.617,15.222,1.455,4.881
Fri Nov 22 19:21:16 2024,245,-20.977,-20.977,-6.189,-6.189,-7.936,-1.176,14.266,6.208,6.180,11.259,9.974,-1.629,6.896,6.670,15.240,1.453,4.910
Fri Nov 22 19:21:16 2024,250,-20.683,-20.683,-6.354,-6.354,-8.104,-1.113,14.471,6.323,6.201,11.252,9.996,-1.555,7.041,6.724,15.300,1.369,4.856
Fri Nov 22 19:21:16 2024,255,-20.499,-20.499,-6.453,-6.453,-8.197,-1.062,14.600,6.392,6.212,11.238,10.019,-1.511,7.106,6.762,15.330,1.334,4.843
Fri Nov 22 19:21:16 2024,260,-20.175,-20.175,-6.539,-6.539,-8.337,-0.905,14.922,6.436,6.190,11.315,10.012,-1.482,7.196,6.736,15.415,1.365,4.876
Fri Nov 22 19:21:16 2024,265,-19.948,-19.948,-6.612,-6.612,-8.438,-0.805,15.132,6.479,6.181,11.353,10.015,-1.454,7.263,6.732,15.469,1.372,4.891
Fri Nov 22 19:21:16 2024,270,-19.544,-19.544,-6.758,-6.758,-8.564,-0.678,15.380,6.465,6.180,11.413,10.080,-1.372,7.218,6.729,15.460,1.454,4.970
Fri Nov 22 19:21:16 2024,275,-19.168,-19.168,-6.890,-6.890,-8.682,-0.558,15.615,6.456,6.178,11.469,10.138,-1.297,7.183,6.726,15.456,1.526,5.041
Fri Nov 22 19:21:16 2024,280,-18.843,-18.843,-7.003,-7.003,-8.783,-0.456,15.815,6.448,6.176,11.517,10.188,-1.234,7.153,6.724,15.452,1.587,5.103
Fri Nov 22 19:21:16 2024,285,-18.309,-18.309,-7.405,-7.405,-9.145,-0.305,16.297,6.572,6.153,11.521,10.153,-1.104,7.423,6.751,15.550,1.594,5.085
Fri Nov 22 19:21:16 2024,290,-17.864,-17.864,-7.699,-7.699,-9.408,-0.177,16.668,6.652,6.138,11.538,10.145,-1.002,7.588,6.768,15.613,1.616,5.093
Fri Nov 22 19:21:16 2024,295,-17.289,-17.289,-8.082,-8.082,-9.625,-0.086,16.755,6.692,6.109,11.532,10.208,-1.032,7.477,6.722,15.584,1.682,5.089
Fri Nov 22 19:21:16 2024,300,-16.757,-16.757,-8.434,-8.434,-9.831,0.020,16.850,6.733,6.083,11.527,10.262,-1.053,7.390,6.682,15.562,1.741,5.087
Fri Nov 22 19:21:16 2024,305,-16.371,-16.371,-8.672,-8.672,-9.977,0.110,16.941,6.754,6.071,11.526,10.296,-1.039,7.357,6.658,15.576,1.756,5.087
Fri Nov 22 19:21:16 2024,310,-16.011,-16.011,-8.833,-8.833,-10.101,0.336,17.095,6.743,6.080,11.531,10.303,-0.933,7.422,6.650,15.686,1.676,5.090
Fri Nov 22 19:21:16 2024,315,-15.640,-15.640,-9.022,-9.022,-10.233,0.524,17.212,6.743,6.081,11.534,10.320,-0.857,7.454,6.636,15.765,1.627,5.093
Fri Nov 22 19:21:16 2024,320,-15.317,-15.317,-9.159,-9.159,-10.321,0.650,17.294,6.797,6.074,11.567,10.388,-0.849,7.456,6.658,15.810,1.607,5.108
Fri Nov 22 19:21:16 2024,325,-14.927,-14.927,-9.276,-9.276,-10.374,0.731,17.367,6.963,6.050,11.665,10.571,-0.944,7.411,6.745,15.819,1.627,5.152
Fri Nov 22 19:21:16 2024,330,-14.692,-14.692,-9.362,-9.362,-10.424,0.803,17.414,7.031,6.040,11.705,10.650,-0.969,7.399,6.779,15.839,1.625,5.170
Fri Nov 22 19:21:16 2024,335,-14.458,-14.458,-9.320,-9.320,-10.388,0.858,17.310,6.938,6.024,11.664,10.576,-0.931,7.498,6.805,15.854,1.596,5.179
Fri Nov 22 19:21:16 2024,340,-14.271,-14.271,-9.328,-9.328,-10.386,0.908,17.274,6.916,6.014,11.658,10.566,-0.921,7.540,6.828,15.867,1.582,5.190
Fri Nov 22 19:21:16 2024,345,-13.992,-13.992,-9.438,-9.438,-10.474,0.918,17.306,6.932,6.013,11.767,10.618,-0.936,7.625,6.857,15.891,1.599,5.178
Fri Nov 22 19:21:16 2024,350,-13.712,-13.712,-9.572,-9.572,-10.582,0.912,17.356,6.958,6.016,11.903,10.686,-0.959,7.716,6.883,15.917,1.624,5.160
Fri Nov 22 19:21:16 2024,355,-13.550,-13.550,-9.592,-9.592,-10.605,0.886,17.369,6.954,5.994,11.949,10.680,-0.955,7.765,6.865,15.958,1.602,5.135
Fri Nov 22 19:21:16 2024,360,-13.391,-13.391,-9.540,-9.540,-10.581,0.814,17.368,6.930,5.941,11.965,10.616,-0.929,7.812,6.796,16.041,1.530,5.085
Fri Nov 22 19:21:16 2024,365,-13.257,-13.257,-9.514,-9.514,-10.571,0.763,17.369,6.914,5.904,11.985,10.575,-0.913,7.851,6.749,16.101,1.481,5.049
Fri Nov 22 19:21:16 2024,370,-13.096,-13.096,-9.604,-9.604,-10.601,0.813,17.336,6.932,5.928,11.982,10.623,-0.897,7.849,6.797,16.123,1.464,5.079
Fri Nov 22 19:21:16 2024,375,-12.903,-12.903,-9.729,-9.729,-10.643,0.888,17.291,6.958,5.968,11.974,10.695,-0.879,7.838,6.868,16.141,1.449,5.123
Fri Nov 22 19:21:16 2024,380,-12.788,-12.788,-9.790,-9.790,-10.664,0.920,17.267,6.969,5.984,11.973,10.726,-0.868,7.838,6.898,16.159,1.435,5.141
Fri Nov 22 19:21:16 2024,385,-12.739,-12.739,-9.641,-9.641,-10.611,0.953,17.335,6.927,5.944,12.038,10.715,-0.830,7.860,6.855,16.204,1.415,5.157
Fri Nov 22 19:21:16 2024,390,-12.676,-12.676,-9.601,-9.601,-10.596,0.978,17.354,6.912,5.933,12.064,10.722,-0.809,7.870,6.848,16.229,1.401,5.171
Fri Nov 22 19:21:16 2024,395,-12.574,-12.574,-9.722,-9.722,-10.633,1.197,17.366,7.024,5.892,11.934,10.692,-0.854,7.697,6.751,16.082,1.436,5.085
Fri Nov 22 19:21:16 2024,400,-12.492,-12.492,-9.791,-9.791,-10.654,1.345,17.364,7.095,5.864,11.854,10.674,-0.879,7.587,6.685,15.993,1.454,5.033
Fri Nov 22 19:21:16 2024,405,-12.421,-12.421,-9.852,-9.852,-10.673,1.477,17.354,7.157,5.838,11.781,10.658,-0.900,7.490,6.628,15.915,1.470,4.988
Fri Nov 22 19:21:16 2024,410,-12.522,-12.522,-9.592,-9.592,-10.581,1.693,17.362,7.345,5.855,11.898,10.756,-0.830,7.852,6.739,16.102,1.399,5.148
Fri Nov 22 19:21:16 2024,415,-12.539,-12.539,-9.498,-9.498,-10.546,1.843,17.342,7.455,5.853,11.922,10.795,-0.807,7.978,6.766,16.155,1.373,5.205
Fri Nov 22 19:21:16 2024,420,-12.523,-12.523,-9.512,-9.512,-10.565,1.997,17.301,7.526,5.836,11.934,10.810,-0.801,7.955,6.714,16.144,1.379,5.175
Fri Nov 22 19:21:16 2024,425,-12.453,-12.453,-9.660,-9.660,-10.659,2.271,17.204,7.603,5.793,11.942,10.809,-0.808,7.746,6.531,16.050,1.428,5.024
Fri Nov 22 19:21:16 2024,430,-12.415,-12.415,-9.678,-9.678,-10.655,2.547,17.054,7.746,5.783,11.926,10.838,-0.765,7.743,6.485,16.039,1.415,4.990
Fri Nov 22 19:21:16 2024,435,-12.359,-12.359,-9.638,-9.638,-10.564,3.001,16.752,8.026,5.799,11.853,10.902,-0.642,7.868,6.517,16.070,1.342,5.004
Fri Nov 22 19:21:16 2024,440,-12.322,-12.322,-9.630,-9.630,-10.525,3.295,16.530,8.199,5.802,11.817,10.939,-0.579,7.918,6.513,16.080,1.308,4.996
Fri Nov 22 19:21:16 2024,445,-12.212,-12.212,-9.622,-9.622,-10.416,3.790,16.158,8.823,5.640,11.892,11.084,-0.593,7.902,6.514,16.030,1.314,5.063
Fri Nov 22 19:21:16 2024,450,-12.148,-12.148,-9.617,-9.617,-10.349,4.133,15.852,9.202,5.557,11.920,11.170,-0.583,7.906,6.514,16.008,1.308,5.095
Fri Nov 22 19:21:16 2024,455,-12.095,-12.095,-9.612,-9.612,-10.289,4.435,15.564,9.537,5.485,11.944,11.245,-0.574,7.912,6.513,15.987,1.303,5.124
Fri Nov 22 19:21:16 2024,460,-11.943,-11.943,-9.527,-9.527,-10.270,5.714,14.201,10.698,5.680,11.524,11.403,-0.587,7.748,6.587,16.300,0.868,5.287
Fri Nov 22 19:21:16 2024,465,-11.871,-11.871,-9.494,-9.494,-10.238,6.318,13.508,11.277,5.723,11.377,11.493,-0.589,7.689,6.614,16.409,0.703,5.361
Fri Nov 22 19:21:16 2024,470,-11.837,-11.837,-9.488,-9.488,-10.364,7.407,27.821,11.841,5.634,11.416,11.185,-0.794,7.487,6.284,16.331,0.818,5.357
Fri Nov 22 19:21:16 2024,475,-11.802,-11.802,-9.476,-9.476,-10.414,8.092,28.679,12.281,5.604,11.392,11.066,-0.897,7.374,6.140,16.325,0.826,5.376
Fri Nov 22 19:21:16 2024,480,-11.775,-11.775,-9.467,-9.467,-10.452,8.598,29.324,12.611,5.581,11.374,10.978,-0.975,7.291,6.035,16.321,0.831,5.391
Fri Nov 22 19:21:16 2024,485,-11.702,-11.702,-9.446,-9.446,-10.458,10.138,31.566,16.078,6.198,10.814,10.888,-1.067,7.238,5.895,16.038,0.714,5.357
Fri Nov 22 19:21:16 2024,490,-11.666,-11.666,-9.436,-9.436,-10.477,10.901,32.666,17.478,6.397,10.614,10.818,-1.134,7.184,5.806,15.938,0.672,5.354
Fri Nov 22 19:21:16 2024,495,-11.728,-11.728,-9.726,-9.726,-10.547,11.688,35.147,22.344,6.954,9.984,10.759,-1.274,6.888,5.663,15.720,0.569,5.238
Fri Nov 22 19:21:16 2024,500,-11.744,-11.744,-9.863,-9.863,-10.588,12.338,36.839,25.277,7.283,9.616,10.710,-1.364,6.729,5.572,15.581,0.499,5.183
Fri Nov 22 19:21:16 2024,505,-11.752,-11.752,-9.991,-9.991,-10.555,12.538,39.117,29.517,7.491,9.464,10.676,-1.504,6.441,5.534,15.434,0.514,5.071
Fri Nov 22 19:21:16 2024,510,-11.759,-11.759,-10.133,-10.133,-10.499,12.632,41.952,34.737,7.687,9.355,10.641,-1.674,6.087,5.513,15.269,0.553,4.931
Fri Nov 22 19:21:16 2024,515,-11.765,-11.765,-10.238,-10.238,-10.473,12.781,43.952,38.207,7.844,9.239,10.615,-1.786,5.858,5.495,15.152,0.563,4.842
Fri Nov 22 19:21:16 2024,520,-11.768,-11.768,-10.297,-10.297,-10.460,12.864,45.076,40.085,7.930,9.176,10.601,-1.848,5.732,5.487,15.086,0.569,4.792
Fri Nov 22 19:21:16 2024,525,-11.770,-11.770,-10.315,-10.315,-10.456,12.888,45.410,40.626,7.956,9.157,10.596,-1.867,5.694,5.485,15.067,0.571,4.776
Fri Nov 22 19:21:16 2024,530,-11.672,-11.672,-10.448,-10.448,-9.942,12.140,47.898,45.796,7.844,9.269,10.402,-1.560,6.042,5.556,14.970,0.664,4.659
Fri Nov 22 19:21:16 2024,535,-11.538,-11.538,-10.657,-10.657,-9.220,11.129,52.063,54.041,7.729,9.395,10.127,-1.164,6.467,5.653,14.808,0.792,4.497
Fri Nov 22 19:21:16 2024,540,-11.504,-11.504,-10.736,-10.736,-9.018,10.879,53.803,57.079,7.731,9.405,10.050,-1.082,6.533,5.680,14.739,0.828,4.456
Fri Nov 22 19:21:16 2024,545,-11.564,-11.564,-11.161,-11.161,-8.453,11.215,56.274,63.640,7.551,9.988,10.591,-1.021,7.692,5.906,15.012,0.727,4.476
Fri Nov 22 19:21:16 2024,550,-11.625,-11.625,-11.379,-11.379,-8.127,11.314,58.072,67.799,7.483,10.235,10.801,-0.953,8.218,6.024,15.110,0.690,4.472
Fri Nov 22 19:21:16 2024,555,-11.423,-11.423,-11.490,-11.490,-8.164,10.567,57.101,67.125,7.737,10.447,10.922,-0.747,8.452,6.025,15.160,0.893,4.623
Fri Nov 22 19:21:16 2024,560,-11.340,-11.340,-11.601,-11.601,-8.105,10.202,57.033,67.784,7.852,10.590,11.034,-0.627,8.699,6.054,15.210,0.986,4.703
Fri Nov 22 19:21:16 2024,565,-11.252,-11.252,-11.720,-11.720,-8.081,10.018,57.196,68.460,7.898,10.750,11.093,-0.543,8.838,5.989,15.205,0.991,4.673
Fri Nov 22 19:21:16 2024,570,-11.161,-11.161,-11.847,-11.847,-8.096,10.039,57.618,69.150,7.870,10.928,11.092,-0.498,8.858,5.821,15.138,0.898,4.522
Fri Nov 22 19:21:16 2024,575,-11.091,-11.091,-11.946,-11.946,-8.093,9.980,57.860,69.704,7.878,11.053,11.113,-0.451,8.917,5.727,15.106,0.861,4.450
Fri Nov 22 19:21:16 2024,580,-11.059,-11.059,-11.930,-11.930,-7.932,10.073,59.020,71.458,7.960,11.107,11.253,-0.393,9.000,5.811,15.156,0.978,4.713
Fri Nov 22 19:21:16 2024,585,-11.025,-11.025,-11.947,-11.947,-7.846,10.109,59.693,72.531,8.003,11.160,11.333,-0.357,9.059,5.832,15.174,1.030,4.835
Fri Nov 22 19:21:16 2024,590,-10.998,-10.998,-11.961,-11.961,-7.777,10.139,60.229,73.389,8.036,11.199,11.395,-0.331,9.105,5.848,15.187,1.071,4.933
Fri Nov 22 19:21:16 2024,595,-10.939,-10.939,-12.036,-12.036,-7.602,10.470,62.306,75.946,8.082,11.102,11.442,-0.307,8.838,5.821,14.976,1.112,4.971
Fri Nov 22 19:21:16 2024,600,-10.909,-10.909,-12.070,-12.070,-7.509,10.616,63.300,77.227,8.112,11.082,11.485,-0.101,8.757,5.818,14.903,1.143,5.024
Fri Nov 22 19:21:16 2024,605,-10.884,-10.884,-11.968,-11.968,-7.330,10.740,64.526,78.816,8.145,11.125,11.653,0.309,8.678,5.880,14.881,1.146,5.123
Fri Nov 22 19:21:16 2024,610,-10.867,-10.867,-11.922,-11.922,-7.201,10.866,65.532,80.090,8.172,11.142,11.761,0.313,8.608,5.915,14.847,1.158,5.198
Fri Nov 22 19:21:16 2024,615,-10.858,-10.858,-11.887,-11.887,-7.102,10.967,66.302,81.048,8.192,11.154,11.844,0.318,8.556,5.941,14.820,1.167,5.257
Fri Nov 22 19:21:16 2024,620,-10.843,-10.843,-11.953,-11.953,-6.916,11.210,66.988,82.310,8.400,10.934,11.932,0.353,8.422,5.981,14.728,1.087,5.270
Fri Nov 22 19:21:16 2024,625,-10.835,-10.835,-11.963,-11.963,-6.804,11.352,67.576,83.177,8.487,10.856,12.000,0.377,8.349,6.008,14.682,1.060,5.301
Fri Nov 22 19:21:16 2024,630,-10.796,-10.796,-11.938,-11.938,-6.743,11.358,68.043,83.232,8.488,10.909,11.984,0.375,8.507,6.046,14.691,1.120,5.303
Fri Nov 22 19:21:16 2024,635,-10.778,-10.778,-11.929,-11.929,-6.675,11.413,68.473,83.551,8.519,10.907,12.000,0.384,8.558,6.074,14.680,1.141,5.315
Fri Nov 22 19:21:16 2024,640,-10.737,-10.737,-11.938,-11.938,-6.614,11.402,68.880,83.999,8.560,10.910,12.070,0.405,8.618,6.085,14.632,1.133,5.282
Fri Nov 22 19:21:16 2024,645,-10.711,-10.711,-11.943,-11.943,-6.570,11.402,69.178,84.306,8.589,10.910,12.115,0.422,8.661,6.094,14.600,1.131,5.263
Fri Nov 22 19:21:16 2024,650,-10.685,-10.685,-11.947,-11.947,-6.528,11.403,69.461,84.596,8.616,10.909,12.158,0.438,8.701,6.103,14.570,1.129,5.245
Fri Nov 22 19:21:16 2024,655,-10.521,-10.521,-11.971,-11.971,-6.481,11.366,69.781,84.624,8.567,10.983,12.095,0.441,8.690,6.171,14.710,1.228,5.452
Fri Nov 22 19:21:16 2024,660,-10.424,-10.424,-11.986,-11.986,-6.439,11.348,70.063,84.748,8.550,11.022,12.077,0.449,8.700,6.210,14.772,1.280,5.558
Fri Nov 22 19:21:16 2024,665,-10.380,-10.380,-11.916,-11.916,-6.363,11.328,70.298,84.882,8.572,11.024,12.081,0.462,8.701,6.214,14.755,1.320,5.590
Fri Nov 22 19:21:16 2024,670,-10.364,-10.364,-11.683,-11.683,-6.181,11.291,70.673,85.146,8.660,10.982,12.114,0.493,8.695,6.173,14.624,1.381,5.559
Fri Nov 22 19:21:16 2024,675,-10.331,-10.331,-11.569,-11.569,-6.075,11.268,70.937,85.307,8.700,10.970,12.127,0.511,8.694,6.163,14.574,1.425,5.571
Fri Nov 22 19:21:16 2024,680,-10.241,-10.241,-11.542,-11.542,-6.098,11.341,71.266,85.475,8.756,10.958,12.110,0.557,8.899,6.240,14.662,1.430,5.716
Fri Nov 22 19:21:16 2024,685,-10.185,-10.185,-11.482,-11.482,-6.067,11.370,71.544,85.624,8.800,10.945,12.107,0.589,9.004,6.276,14.687,1.450,5.796
Fri Nov 22 19:21:16 2024,690,-10.130,-10.130,-11.458,-11.458,-6.046,11.298,71.850,85.744,8.834,10.936,12.103,0.576,9.044,6.290,14.675,1.526,5.861
Fri Nov 22 19:21:16 2024,695,-10.056,-10.056,-11.439,-11.439,-6.022,11.179,72.262,85.891,8.875,10.925,12.098,0.545,9.078,6.302,14.649,1.640,5.945
Fri Nov 22 19:21:16 2024,700,-10.016,-10.016,-11.420,-11.420,-6.006,11.131,72.490,85.975,8.900,10.917,12.095,0.537,9.109,6.313,14.642,1.694,5.995
Fri Nov 22 19:21:16 2024,705,-9.989,-9.989,-11.158,-11.158,-5.853,11.302,73.215,86.278,9.164,10.719,12.129,0.532,9.167,6.326,14.474,1.745,6.011
Fri Nov 22 19:21:16 2024,710,-9.964,-9.964,-11.040,-11.040,-5.781,11.358,73.611,86.432,9.284,10.625,12.142,0.528,9.204,6.336,14.400,1.788,6.039
Fri Nov 22 19:21:16 2024,715,-9.873,-9.873,-11.009,-11.009,-5.897,11.377,73.977,86.370,9.447,10.503,12.226,0.558,9.525,6.383,14.319,1.825,5.978
Fri Nov 22 19:21:16 2024,720,-9.821,-9.821,-10.964,-10.964,-5.941,11.402,74.263,86.371,9.561,10.410,12.273,0.574,9.703,6.411,14.259,1.854,5.952
Fri Nov 22 19:21:16 2024,725,-9.775,-9.775,-10.922,-10.922,-5.981,11.426,74.532,86.369,9.667,10.317,12.318,0.589,9.871,6.437,14.203,1.881,5.928
Fri Nov 22 19:21:16 2024,730,-9.567,-9.567,-10.894,-10.894,-5.863,11.315,74.718,86.307,9.676,10.315,12.383,0.514,9.810,6.476,14.057,2.020,6.017
Fri Nov 22 19:21:16 2024,735,-9.450,-9.450,-10.862,-10.862,-5.824,11.275,74.922,86.274,9.726,10.271,12.433,0.485,9.852,6.506,13.963,2.097,6.048
Fri Nov 22 19:21:16 2024,740,-9.298,-9.298,-10.777,-10.777,-5.767,11.375,75.422,86.470,9.772,10.227,12.428,0.461,9.955,6.528,13.947,2.073,6.054
Fri Nov 22 19:21:16 2024,745,-9.046,-9.046,-10.598,-10.598,-5.669,11.670,76.448,87.002,9.831,10.168,12.362,0.431,10.165,6.548,14.009,1.930,6.035
Fri Nov 22 19:21:16 2024,750,-8.870,-8.870,-10.447,-10.447,-5.668,11.983,77.077,86.805,9.927,10.067,12.310,0.332,10.149,6.389,13.805,2.039,5.867
Fri Nov 22 19:21:16 2024,755,-8.743,-8.743,-10.338,-10.338,-5.662,12.207,77.543,86.687,9.994,9.992,12.274,0.276,10.146,6.283,13.668,2.108,5.755
Fri Nov 22 19:21:16 2024,760,-8.614,-8.614,-10.226,-10.226,-5.654,12.439,78.018,86.564,10.063,9.912,12.238,0.240,10.142,6.176,13.528,2.178,5.642
Fri Nov 22 19:21:16 2024,765,-8.578,-8.578,-9.863,-9.863,-5.486,12.370,78.527,86.568,10.084,9.866,12.218,-0.226,10.356,6.250,13.411,2.186,5.667
Fri Nov 22 19:21:16 2024,770,-8.527,-8.527,-9.609,-9.609,-5.381,12.410,78.986,86.525,10.118,9.807,12.194,-0.262,10.480,6.258,13.296,2.211,5.646
Fri Nov 22 19:21:16 2024,775,-8.368,-8.368,-9.395,-9.395,-5.297,12.621,79.392,86.395,10.212,9.681,12.198,-0.328,10.586,6.218,13.152,2.277,5.553
Fri Nov 22 19:21:16 2024,780,-8.159,-8.159,-9.183,-9.183,-5.214,12.906,79.802,86.226,10.334,9.520,12.211,-0.412,10.690,6.157,12.990,2.360,5.429
Fri Nov 22 19:21:16 2024,785,-8.033,-8.033,-9.026,-9.026,-5.151,13.081,80.101,86.118,10.408,9.412,12.216,-0.477,10.766,6.122,12.880,2.410,5.356
Fri Nov 22 19:21:16 2024,790,-8.041,-8.041,-8.753,-8.753,-5.053,13.226,80.597,85.723,10.510,9.239,12.239,-0.473,11.031,6.126,12.872,2.508,5.333
Fri Nov 22 19:21:16 2024,795,-8.010,-8.010,-8.574,-8.574,-4.986,13.354,80.924,85.504,10.580,9.119,12.251,-0.496,11.177,6.116,12.830,2.569,5.298
Fri Nov 22 19:21:16 2024,800,-7.945,-7.945,-8.383,-8.383,-4.926,13.449,81.345,85.318,10.695,23.737,12.288,-0.542,11.262,6.113,12.685,2.571,5.226
Fri Nov 22 19:21:16 2024,805,-7.872,-7.872,-8.198,-8.198,-4.870,13.530,81.775,85.154,10.821,31.208,12.333,-0.594,11.320,6.113,12.511,2.548,5.145
Fri Nov 22 19:21:16 2024,810,-7.826,-7.826,-8.054,-8.054,-4.824,13.604,82.096,85.012,10.910,31.334,12.363,-0.631,11.380,6.112,12.395,2.540,5.090
Fri Nov 22 19:21:16 2024,815,-7.807,-7.807,-7.797,-7.797,-4.726,13.735,82.226,84.985,10.958,31.442,12.431,-0.654,11.528,6.116,12.334,2.621,5.022
Fri Nov 22 19:21:16 2024,820,-7.788,-7.788,-7.589,-7.589,-4.645,13.842,82.385,84.934,11.009,31.546,12.486,-0.678,11.642,6.119,12.267,2.674,4.965
Fri Nov 22 19:21:16 2024,825,-7.713,-7.713,-7.527,-7.527,-4.565,13.765,82.547,85.026,11.042,31.605,12.533,-0.657,11.704,6.170,12.244,2.708,4.996
Fri Nov 22 19:21:16 2024,830,-7.613,-7.613,-7.484,-7.484,-4.472,13.642,82.731,85.166,11.074,31.666,12.587,-0.621,11.768,6.240,12.227,2.746,5.052
Fri Nov 22 19:21:16 2024,835,-7.515,-7.515,-7.455,-7.455,-4.482,13.641,82.771,85.166,11.130,31.744,12.634,-0.592,11.863,6.277,12.237,2.752,5.048
Fri Nov 22 19:21:16 2024,840,-7.315,-7.315,-7.467,-7.467,-4.649,13.746,82.632,85.023,11.260,31.899,12.708,-0.524,12.070,6.312,12.312,2.717,4.986
Fri Nov 22 19:21:16 2024,845,-7.201,-7.201,-7.463,-7.463,-4.721,13.790,82.588,84.962,11.331,31.988,12.754,-0.487,12.186,6.339,12.346,2.704,4.960
Fri Nov 22 19:21:16 2024,850,-6.997,-6.997,-7.338,-7.338,-4.521,13.841,82.593,85.201,11.393,32.060,12.797,-0.424,12.238,6.401,12.200,2.867,5.034
Fri Nov 22 19:21:16 2024,855,-6.874,-6.874,-7.274,-7.274,-4.432,13.876,82.588,85.310,11.438,32.112,12.826,-0.386,12.286,6.437,12.133,2.946,5.067
Fri Nov 22 19:21:16 2024,860,-6.642,-6.642,-7.281,-7.281,-4.493,13.922,82.597,85.370,11.515,32.208,12.854,-0.316,12.345,6.455,12.180,2.954,5.073
Fri Nov 22 19:21:16 2024,865,-6.443,-6.443,-7.301,-7.301,-4.573,13.961,82.608,85.404,11.581,32.289,12.873,-0.257,12.393,6.465,12.242,2.943,5.071
Fri Nov 22 19:21:16 2024,870,-6.258,-6.258,-7.318,-7.318,-4.644,13.996,82.617,85.440,11.642,32.366,12.892,-0.207,12.437,6.474,12.296,2.936,5.070
Fri Nov 22 19:21:16 2024,875,-6.148,-6.148,-7.209,-7.209,-4.571,14.130,82.682,85.380,11.728,32.467,12.863,-0.163,12.405,6.397,12.204,2.981,4.983
Fri Nov 22 19:21:16 2024,880,-6.044,-6.044,-7.154,-7.154,-4.548,14.213,82.721,85.356,11.789,32.540,12.852,-0.141,12.397,6.358,12.167,3.003,4.935
Fri Nov 22 19:21:16 2024,885,-5.964,-5.964,-7.114,-7.114,-4.538,14.324,82.866,85.385,11.846,32.620,12.851,0.135,12.442,6.317,12.154,3.012,4.882
Fri Nov 22 19:21:16 2024,890,-5.930,-5.930,-7.104,-7.104,-4.549,14.454,83.125,85.480,11.887,32.693,12.865,0.148,12.547,6.282,12.179,3.001,4.832
Fri Nov 22 19:21:16 2024,895,-5.885,-5.885,-7.085,-7.085,-4.551,14.554,83.297,85.533,11.926,32.756,12.871,0.175,12.611,6.252,12.186,2.999,4.789
Fri Nov 22 19:21:16 2024,900,-5.940,-5.940,-7.041,-7.041,-4.547,14.279,82.975,85.361,11.891,32.711,12.844,0.192,12.616,6.306,12.174,2.940,4.833
Fri Nov 22 19:21:16 2024,905,-5.959,-5.959,-7.009,-7.009,-4.545,14.150,82.841,85.276,11.883,32.705,12.830,0.215,12.641,6.328,12.169,2.904,4.846
Fri Nov 22 19:21:16 2024,910,-5.974,-5.974,-6.982,-6.982,-4.524,14.070,82.758,85.307,11.854,32.674,12.824,0.240,12.631,6.332,12.136,2.890,4.850
Fri Nov 22 19:21:16 2024,915,-5.988,-5.988,-6.954,-6.954,-4.478,14.030,82.714,85.459,11.801,32.611,12.827,0.274,12.585,6.316,12.070,2.896,4.846
Fri Nov 22 19:21:16 2024,920,-5.999,-5.999,-6.934,-6.934,-4.454,13.987,82.668,85.522,11.772,32.578,12.826,0.297,12.566,6.312,12.035,2.893,4.847
Fri Nov 22 19:21:16 2024,925,-6.001,-6.001,-7.042,-7.042,-4.594,13.956,82.466,85.419,11.794,32.599,12.814,0.365,12.731,6.358,12.205,2.853,4.877
Fri Nov 22 19:21:16 2024,930,-6.006,-6.006,-7.098,-7.098,-4.668,13.921,82.327,85.382,11.796,32.597,12.807,0.416,12.821,6.383,12.292,2.828,4.896
Fri Nov 22 19:21:16 2024,935,-6.037,-6.037,-7.177,-7.177,-4.655,13.794,82.007,85.462,11.796,32.567,12.836,0.499,12.811,6.424,12.304,2.773,4.909
Fri Nov 22 19:21:16 2024,940,-6.090,-6.090,-7.281,-7.281,-4.578,13.589,81.520,85.636,11.795,32.510,12.896,0.613,12.725,6.482,12.264,2.691,4.918
Fri Nov 22 19:21:16 2024,945,-6.126,-6.126,-7.361,-7.361,-4.544,13.451,81.174,85.740,11.794,32.475,12.932,0.700,12.688,6.525,12.258,2.632,4.929
Fri Nov 22 19:21:16 2024,950,-6.040,-6.040,-7.752,-7.752,-4.817,13.192,80.483,85.474,11.683,32.338,12.991,0.812,12.753,6.650,12.369,2.628,5.012
Fri Nov 22 19:21:16 2024,955,-6.011,-6.011,-7.989,-7.989,-4.950,13.013,79.995,85.362,11.623,32.254,13.035,0.902,12.774,6.732,12.427,2.606,5.061
Fri Nov 22 19:21:16 2024,960,-6.094,-6.094,-8.105,-8.105,-5.032,12.692,79.132,85.311,11.532,32.097,12.993,0.992,12.721,6.766,12.482,2.522,5.062
Fri Nov 22 19:21:16 2024,965,-6.147,-6.147,-8.225,-8.225,-5.111,12.449,78.455,85.251,11.458,31.977,12.973,1.069,12.687,6.804,12.529,2.462,5.072
Fri Nov 22 19:21:16 2024,970,-6.159,-6.159,-8.406,-8.406,-5.214,12.172,77.717,85.185,11.362,31.830,12.966,1.156,12.637,6.860,12.584,2.403,5.093
Fri Nov 22 19:21:16 2024,975,-6.054,-6.054,-8.784,-8.784,-5.410,11.735,76.688,85.099,11.189,31.580,12.998,1.288,12.531,6.976,12.672,2.341,5.150
Fri Nov 22 19:21:16 2024,980,-6.016,-6.016,-9.007,-9.007,-5.526,11.469,76.016,85.031,11.082,8.572,13.010,1.371,12.467,7.045,12.727,2.296,5.182
Fri Nov 22 19:21:16 2024,985,-6.013,-6.013,-9.175,-9.175,-5.543,11.181,74.976,85.030,10.832,8.910,12.949,1.461,12.274,6.994,12.784,2.235,5.154
Fri Nov 22 19:21:16 2024,990,-6.006,-6.006,-9.360,-9.360,-5.586,10.907,74.014,84.996,10.611,9.198,12.906,1.550,12.110,6.972,12.840,2.176,5.140
Fri Nov 22 19:21:16 2024,995,-6.046,-6.046,-9.487,-9.487,-5.623,10.689,73.142,84.792,10.449,9.393,12.918,1.613,12.016,6.991,12.901,2.112,5.141
Fri Nov 22 19:21:17 2024,0,-6.180,-6.180,-9.586,-9.586,-5.671,10.436,71.945,84.206,10.295,9.551,13.029,1.670,11.988,7.089,13.001,2.004,5.170
Fri Nov 22 19:21:17 2024,5,-6.253,-6.253,-9.672,-9.672,-5.705,10.265,71.138,83.867,10.173,9.686,13.081,1.716,11.943,7.137,13.064,1.935,5.183
Fri Nov 22 19:21:17 2024,10,-6.297,-6.297,-10.023,-10.023,-5.917,10.295,70.324,83.458,10.033,9.865,13.118,1.800,11.910,7.189,13.089,1.919,5.159
Fri Nov 22 19:21:17 2024,15,-6.342,-6.342,-10.236,-10.236,-6.039,10.277,69.692,83.144,9.927,9.993,13.151,1.856,11.881,7.229,13.117,1.894,5.149
Fri Nov 22 19:21:17 2024,20,-6.417,-6.417,-10.397,-10.397,-6.182,10.341,68.818,82.526,9.846,10.097,13.177,1.885,11.806,7.226,13.125,1.824,5.082
Fri Nov 22 19:21:17 2024,25,-6.548,-6.548,-10.373,-10.373,-6.341,10.610,67.535,81.256,9.862,10.104,13.178,1.829,11.632,7.108,13.077,1.653,4.881
Fri Nov 22 19:21:17 2024,30,-6.623,-6.623,-10.413,-10.413,-6.445,10.743,66.793,80.567,9.843,10.135,13.186,1.816,11.543,7.062,13.060,1.566,4.786
Fri Nov 22 19:21:17 2024,35,-6.684,-6.684,-10.703,-10.703,-6.824,11.091,65.622,79.344,9.859,10.130,13.164,1.740,11.645,7.049,12.996,1.582,4.610
Fri Nov 22 19:21:17 2024,40,-6.760,-6.760,-10.896,-10.896,-7.086,11.353,64.697,78.363,9.861,10.133,13.153,1.688,11.682,7.028,12.950,1.568,4.477
Fri Nov 22 19:21:17 2024,45,-6.818,-6.818,-11.025,-11.025,-7.364,11.503,63.501,76.876,9.883,10.116,13.051,1.625,11.736,6.929,12.892,1.547,4.290
Fri Nov 22 19:21:17 2024,50,-6.852,-6.852,-11.016,-11.016,-7.688,11.408,61.661,74.196,9.947,10.050,12.741,1.531,11.828,6.651,12.810,1.511,3.984
Fri Nov 22 19:21:17 2024,55,-6.908,-6.908,-11.058,-11.058,-7.902,11.432,60.590,72.688,9.978,10.014,12.593,1.475,11.881,6.514,12.758,1.492,3.823
Fri Nov 22 19:21:17 2024,60,-6.888,-6.888,-11.146,-11.146,-8.237,10.963,58.497,69.788,10.065,9.913,12.396,1.553,11.896,6.493,13.003,1.425,3.789
Fri Nov 22 19:21:17 2024,65,-6.920,-6.920,-11.212,-11.212,-8.494,10.720,56.990,67.717,10.124,9.838,12.239,1.580,11.921,6.438,13.128,1.378,3.720
Fri Nov 22 19:21:17 2024,70,-6.926,-6.926,-11.230,-11.230,-8.658,10.474,56.418,66.409,10.107,9.812,12.036,1.546,11.807,6.407,13.135,1.364,3.659
Fri Nov 22 19:21:17 2024,75,-6.864,-6.864,-11.166,-11.166,-8.708,10.128,57.296,65.942,9.952,9.854,11.680,1.390,11.404,6.408,12.929,1.407,3.592
Fri Nov 22 19:21:17 2024,80,-6.846,-6.846,-11.153,-11.153,-8.799,9.900,57.345,65.202,9.891,9.825,11.469,1.321,11.211,6.394,12.861,1.413,3.541
Fri Nov 22 19:21:17 2024,85,-6.721,-6.721,-10.692,-10.692,-9.282,10.284,54.973,57.580,10.023,9.544,11.500,1.659,9.934,6.133,12.734,1.061,3.380
Fri Nov 22 19:21:17 2024,90,-6.692,-6.692,-10.469,-10.469,-9.541,10.398,53.909,53.889,10.075,9.369,11.448,1.815,9.257,6.011,12.659,0.881,3.291
Fri Nov 22 19:21:17 2024,95,-6.741,-6.741,-10.283,-10.283,-9.819,10.464,51.744,49.526,9.973,9.390,11.479,1.877,8.755,5.946,12.582,0.883,3.348
Fri Nov 22 19:21:17 2024,100,-6.910,-6.910,-10.126,-10.126,-10.186,10.474,47.137,43.030,9.550,9.817,11.674,1.762,8.497,5.971,12.477,1.249,3.692
Fri Nov 22 19:21:17 2024,105,-6.982,-6.982,-10.007,-10.007,-10.402,10.530,45.169,39.929,9.390,9.942,11.742,1.762,8.222,5.954,12.414,1.353,3.816
Fri Nov 22 19:21:17 2024,110,-7.020,-7.020,-10.247,-10.247,-10.527,9.369,41.940,34.155,9.010,9.984,11.199,1.673,8.075,5.837,12.437,1.592,4.040
Fri Nov 22 19:21:17 2024,115,-7.069,-7.069,-10.312,-10.312,-10.647,8.929,39.975,30.918,8.799,10.012,10.985,1.638,7.921,5.783,12.422,1.728,4.174
Fri Nov 22 19:21:17 2024,120,-7.173,-7.173,-10.062,-10.062,-10.846,8.034,37.639,26.096,8.279,10.504,10.564,1.826,8.216,5.592,12.616,1.857,4.172
Fri Nov 22 19:21:17 2024,125,-7.264,-7.264,-9.900,-9.900,-11.010,7.342,35.626,22.265,7.868,10.853,10.224,1.950,8.396,5.448,12.747,1.972,4.198
Fri Nov 22 19:21:17 2024,130,-7.335,-7.335,-9.782,-9.782,-11.130,6.849,34.159,19.612,7.565,11.105,9.973,2.040,8.527,5.343,12.840,2.055,4.218
Fri Nov 22 19:21:17 2024,135,-7.381,-7.381,-9.677,-9.677,-11.020,6.289,31.912,17.115,7.021,11.456,10.112,2.099,8.475,5.343,13.073,1.804,4.057
Fri Nov 22 19:21:17 2024,140,-7.426,-7.426,-9.591,-9.591,-11.019,5.882,30.478,15.214,6.682,11.682,10.078,2.157,8.501,5.307,13.203,1.731,3.999
Fri Nov 22 19:21:17 2024,145,-7.462,-7.462,-9.721,-9.721,-11.097,4.824,28.657,13.463,6.406,12.008,9.977,2.352,8.977,5.391,13.388,1.770,3.846
Fri Nov 22 19:21:17 2024,150,-7.497,-7.497,-9.782,-9.782,-11.144,4.100,27.264,12.062,6.166,12.254,9.910,2.483,9.270,5.438,13.529,1.776,3.743
Fri Nov 22 19:21:17 2024,155,-7.530,-7.530,-9.837,-9.837,-11.187,3.467,26.048,10.872,5.955,12.470,9.851,2.598,9.525,5.482,13.653,1.780,3.653
Fri Nov 22 19:21:17 2024,160,-7.463,-7.463,-9.909,-9.909,-11.173,2.788,24.707,10.213,6.143,12.140,9.803,2.564,9.448,5.710,13.625,1.855,3.575
Fri Nov 22 19:21:17 2024,165,-7.460,-7.460,-9.959,-9.959,-11.183,2.271,23.716,9.538,6.145,12.079,9.762,2.592,9.508,5.826,13.658,1.887,3.509
Fri Nov 22 19:21:17 2024,170,-7.384,-7.384,-10.117,-10.117,-11.204,1.597,22.498,8.811,5.925,12.015,9.594,2.581,9.587,5.983,13.594,2.047,3.546
Fri Nov 22 19:21:17 2024,175,-7.341,-7.341,-10.217,-10.217,-11.218,1.104,21.607,8.272,5.799,11.955,9.491,2.580,9.644,6.100,13.564,2.144,3.554
Fri Nov 22 19:21:17 2024,180,-7.245,-7.245,-10.325,-10.325,-11.288,0.781,20.979,7.884,5.743,11.960,9.363,2.611,9.612,6.098,13.572,2.153,3.487
Fri Nov 22 19:21:17 2024,185,-7.168,-7.168,-10.418,-10.418,-11.349,0.502,20.241,7.558,5.694,11.963,9.253,2.638,9.584,6.097,13.578,2.160,3.432
Fri Nov 22 19:21:17 2024,190,-7.108,-7.108,-10.496,-10.496,-11.400,0.271,19.586,7.293,5.653,11.965,9.163,2.661,9.560,6.094,13.583,2.166,3.389
Fri Nov 22 19:21:17 2024,195,-7.157,-7.157,-10.489,-10.489,-11.383,-0.088,19.065,7.037,5.499,11.935,9.129,2.553,9.556,6.161,13.549,2.348,3.494
Fri Nov 22 19:21:17 2024,200,-7.167,-7.167,-10.507,-10.507,-11.388,-0.334,18.598,6.838,5.409,11.916,9.088,2.503,9.548,6.194,13.533,2.443,3.538
Fri Nov 22 19:21:17 2024,205,-7.190,-7.190,-10.527,-10.527,-11.407,-0.549,18.165,6.654,5.369,11.913,9.028,2.483,9.544,6.194,13.531,2.467,3.522
Fri Nov 22 19:21:17 2024,210,-7.246,-7.246,-10.565,-10.565,-11.457,-0.808,17.609,6.407,5.402,11.944,8.906,2.507,9.552,6.134,13.556,2.370,3.389
Fri Nov 22 19:21:17 2024,215,-7.280,-7.280,-10.588,-10.588,-11.484,-1.003,17.206,6.236,5.396,11.954,8.834,2.506,9.552,6.111,13.564,2.347,3.336
Fri Nov 22 19:21:17 2024,220,-7.315,-7.315,-10.672,-10.672,-11.482,-1.351,16.627,6.112,5.388,11.876,8.819,2.613,9.649,6.255,13.685,2.384,3.387
Fri Nov 22 19:21:17 2024,225,-7.339,-7.339,-10.714,-10.714,-11.488,-1.554,16.266,6.013,5.382,11.844,8.794,2.660,9.690,6.312,13.740,2.393,3.396
Fri Nov 22 19:21:17 2024,230,-7.391,-7.391,-10.737,-10.737,-11.489,-1.867,15.802,5.927,5.352,11.867,8.788,2.673,9.689,6.348,13.785,2.419,3.420
Fri Nov 22 19:21:17 2024,235,-7.476,-7.476,-10.730,-10.730,-11.483,-2.304,15.242,5.866,5.288,11.968,8.810,2.636,9.628,6.352,13.811,2.466,3.466
Fri Nov 22 19:21:17 2024,240,-7.532,-7.532,-10.738,-10.738,-11.481,-2.600,14.832,5.806,5.251,12.014,8.816,2.628,9.606,6.369,13.841,2.492,3.494
Fri Nov 22 19:21:17 2024,245,-7.607,-7.607,-10.646,-10.646,-11.354,-2.857,14.244,5.825,5.235,11.883,8.810,2.659,9.455,6.383,13.825,2.385,3.443
Fri Nov 22 19:21:17 2024,250,-7.659,-7.659,-10.605,-10.605,-11.294,-3.059,13.862,5.818,5.218,11.835,8.809,2.670,9.380,6.394,13.826,2.343,3.426
Fri Nov 22 19:21:17 2024,255,-7.723,-7.723,-10.640,-10.640,-11.313,-3.228,13.568,5.752,5.122,11.849,8.774,2.583,9.247,6.317,13.805,2.288,3.364
Fri Nov 22 19:21:17 2024,260,-7.774,-7.774,-10.657,-10.657,-11.319,-3.365,13.329,5.708,5.057,11.851,8.750,2.526,9.151,6.269,13.790,2.248,3.323
Fri Nov 22 19:21:17 2024,265,-7.826,-7.826,-10.675,-10.675,-11.324,-3.498,13.100,5.666,4.994,11.853,8.728,2.471,9.057,6.222,13.776,2.208,3.283
Fri Nov 22 19:21:17 2024,270,-7.840,-7.840,-10.560,-10.560,-11.235,-3.499,12.899,5.601,4.956,11.916,8.695,2.444,9.059,6.163,13.844,2.165,3.322
Fri Nov 22 19:21:17 2024,275,-7.871,-7.871,-10.503,-10.503,-11.186,-3.554,12.691,5.547,4.909,11.952,8.668,2.406,9.022,6.112,13.877,2.124,3.329
