Timestamp,Millis,thumb_tm_aa,thumb_tm_flex,thumb_mcp_aa,thumb_mcp_flex,thumb_ip,index_mcp_aa,index_mcp_flex,index_pip,middle_mcp_aa,middle_mcp_flex,middle_pip,ring_mcp_aa,ring_mcp_flex,ring_pip,little_mcp_aa,little_mcp_flex,little_pip
Fri Nov 22 20:48:10 2024,840,-18.424,-18.424,-2.249,-2.249,-4.731,-1.496,15.849,5.630,3.920,12.764,7.772,-6.555,5.763,5.473,0.670,7.284,3.826
Fri Nov 22 20:48:10 2024,845,-18.413,-18.413,-2.223,-2.223,-4.733,-1.508,15.815,5.650,3.947,12.746,7.733,-6.554,5.736,5.439,0.659,7.143,3.769
Fri Nov 22 20:48:10 2024,850,-18.407,-18.407,-2.199,-2.199,-4.752,-1.525,15.844,5.676,3.974,12.742,7.691,-6.528,5.737,5.396,0.687,7.153,3.741
Fri Nov 22 20:48:10 2024,855,-18.404,-18.404,-2.175,-2.175,-4.783,-1.547,15.914,5.710,4.003,12.747,7.645,-6.485,5.757,5.344,0.741,7.258,3.729
Fri Nov 22 20:48:10 2024,860,-18.401,-18.401,-2.156,-2.156,-4.806,-1.564,15.963,5.736,4.027,12.750,7.608,-6.454,5.770,5.304,0.783,7.325,3.716
Fri Nov 22 20:48:10 2024,865,-18.382,-18.382,-2.207,-2.207,-4.812,-1.624,15.818,5.729,3.998,12.761,7.665,-6.484,5.694,5.317,0.789,7.191,3.695
Fri Nov 22 20:48:10 2024,870,-18.370,-18.370,-2.238,-2.238,-4.820,-1.666,15.731,5.729,3.982,12.769,7.696,-6.499,5.647,5.318,0.799,7.115,3.680
Fri Nov 22 20:48:10 2024,875,-18.343,-18.343,-2.300,-2.300,-4.867,-1.707,15.733,5.712,3.978,12.791,7.704,-6.485,5.693,5.323,0.853,7.167,3.683
Fri Nov 22 20:48:10 2024,880,-18.319,-18.319,-2.352,-2.352,-4.910,-1.736,15.755,5.696,3.978,12.810,7.704,-6.470,5.748,5.327,0.903,7.234,3.690
Fri Nov 22 20:48:10 2024,885,-18.298,-18.298,-2.399,-2.399,-4.948,-1.762,15.774,5.683,3.978,12.828,7.704,-6.456,5.798,5.330,0.948,7.294,3.697
Fri Nov 22 20:48:10 2024,890,-18.324,-18.324,-2.413,-2.413,-4.924,-1.810,15.796,5.790,3.941,12.797,7.715,-6.479,5.799,5.359,0.907,7.258,3.689
Fri Nov 22 20:48:10 2024,895,-18.334,-18.334,-2.422,-2.422,-4.914,-1.833,15.803,5.844,3.932,12.780,7.723,-6.484,5.803,5.374,0.898,7.236,3.686
Fri Nov 22 20:48:10 2024,900,-18.328,-18.328,-2.398,-2.398,-4.902,-1.798,15.770,5.841,3.980,12.764,7.734,-6.453,5.786,5.367,0.930,7.183,3.688
Fri Nov 22 20:48:10 2024,905,-18.323,-18.323,-2.373,-2.373,-4.889,-1.763,15.736,5.838,4.029,12.749,7.744,-6.423,5.770,5.361,0.961,7.129,3.690
Fri Nov 22 20:48:10 2024,910,-18.316,-18.316,-2.346,-2.346,-4.876,-1.723,15.698,5.828,4.082,12.734,7.754,-6.391,5.752,5.353,0.996,7.074,3.692
Fri Nov 22 20:48:10 2024,915,-18.340,-18.340,-2.422,-2.422,-4.949,-1.716,15.834,5.834,4.084,12.627,7.706,-6.404,5.690,5.289,0.994,7.112,3.672
Fri Nov 22 20:48:10 2024,920,-18.353,-18.353,-2.459,-2.459,-4.988,-1.703,15.901,5.835,4.097,12.562,7.682,-6.404,5.650,5.251,1.001,7.119,3.662
Fri Nov 22 20:48:10 2024,925,-18.360,-18.360,-2.500,-2.500,-4.987,-1.671,15.979,5.864,4.124,12.519,7.722,-6.392,5.700,5.337,1.005,7.179,3.748
Fri Nov 22 20:48:10 2024,930,-18.367,-18.367,-2.537,-2.537,-4.983,-1.642,16.048,5.894,4.149,12.483,7.762,-6.380,5.748,5.421,1.007,7.234,3.832
Fri Nov 22 20:48:10 2024,935,-18.373,-18.373,-2.571,-2.571,-4.980,-1.616,16.111,5.919,4.172,12.450,7.797,-6.370,5.792,5.496,1.010,7.285,3.909
Fri Nov 22 20:48:10 2024,940,-18.323,-18.323,-2.695,-2.695,-5.116,-1.587,16.166,5.907,4.201,12.418,7.788,-6.289,5.927,5.425,1.077,7.250,3.811
Fri Nov 22 20:48:10 2024,945,-18.300,-18.300,-2.766,-2.766,-5.185,-1.566,16.210,5.907,4.221,12.394,7.792,-6.245,6.007,5.408,1.112,7.245,3.781
Fri Nov 22 20:48:10 2024,950,-18.332,-18.332,-2.770,-2.770,-5.198,-1.488,16.358,5.973,4.274,12.391,7.809,-6.223,6.019,5.379,1.122,7.204,3.743
Fri Nov 22 20:48:10 2024,955,-18.361,-18.361,-2.779,-2.779,-5.214,-1.414,16.497,6.034,4.324,12.386,7.826,-6.200,6.036,5.350,1.132,7.166,3.705
Fri Nov 22 20:48:10 2024,960,-18.374,-18.374,-2.817,-2.817,-5.241,-1.390,16.516,6.000,4.352,12.342,7.810,-6.245,5.968,5.289,1.114,7.139,3.688
Fri Nov 22 20:48:10 2024,965,-18.376,-18.376,-2.864,-2.864,-5.269,-1.397,16.469,5.924,4.362,12.286,7.782,-6.317,5.868,5.221,1.085,7.123,3.685
Fri Nov 22 20:48:10 2024,970,-18.378,-18.378,-2.900,-2.900,-5.291,-1.403,16.432,5.865,4.371,12.242,7.760,-6.374,5.790,5.169,1.062,7.111,3.683
Fri Nov 22 20:48:10 2024,975,-18.401,-18.401,-3.011,-3.011,-5.333,-1.369,16.558,6.047,4.364,12.168,7.863,-6.384,5.828,5.238,1.128,7.063,3.692
Fri Nov 22 20:48:10 2024,980,-18.420,-18.420,-3.095,-3.095,-5.366,-1.344,16.647,6.176,4.361,12.110,7.935,-6.394,5.850,5.284,1.174,7.028,3.700
Fri Nov 22 20:48:10 2024,985,-18.441,-18.441,-3.087,-3.087,-5.366,-1.329,16.633,6.198,4.375,12.101,7.950,-6.399,5.831,5.255,1.169,6.980,3.668
Fri Nov 22 20:48:10 2024,990,-18.463,-18.463,-3.008,-3.008,-5.343,-1.317,16.537,6.142,4.406,12.128,7.923,-6.399,5.777,5.166,1.127,6.917,3.604
Fri Nov 22 20:48:10 2024,995,-18.485,-18.485,-2.950,-2.950,-5.326,-1.306,16.464,6.107,4.431,12.144,7.907,-6.400,5.734,5.095,1.095,6.860,3.551
Fri Nov 22 20:48:11 2024,0,-18.451,-18.451,-3.034,-3.034,-5.401,-1.274,16.522,6.079,4.468,12.069,7.878,-6.421,5.716,5.044,1.116,6.679,3.452
Fri Nov 22 20:48:11 2024,5,-18.428,-18.428,-3.091,-3.091,-5.459,-1.246,16.553,6.049,4.504,12.011,7.851,-6.439,5.692,4.987,1.125,6.518,3.360
Fri Nov 22 20:48:11 2024,10,-18.430,-18.430,-3.122,-3.122,-5.488,-1.227,16.592,6.086,4.538,11.978,7.865,-6.432,5.708,4.977,1.137,6.466,3.325
Fri Nov 22 20:48:11 2024,15,-18.464,-18.464,-3.128,-3.128,-5.488,-1.217,16.651,6.214,4.578,11.968,7.932,-6.394,5.774,5.024,1.154,6.540,3.351
Fri Nov 22 20:48:11 2024,20,-18.483,-18.483,-3.142,-3.142,-5.498,-1.207,16.694,6.292,4.610,11.953,7.970,-6.372,5.813,5.046,1.168,6.562,3.354
Fri Nov 22 20:48:11 2024,25,-18.486,-18.486,-3.147,-3.147,-5.520,-1.167,16.744,6.228,4.621,12.076,7.984,-6.349,5.849,5.011,1.162,6.594,3.316
Fri Nov 22 20:48:11 2024,30,-18.493,-18.493,-3.154,-3.154,-5.538,-1.136,16.789,6.200,4.637,12.158,8.002,-6.326,5.883,4.992,1.161,6.623,3.290
Fri Nov 22 20:48:11 2024,35,-18.465,-18.465,-3.150,-3.150,-5.533,-1.125,16.710,6.171,4.665,12.151,8.018,-6.334,5.863,5.003,1.215,6.612,3.324
Fri Nov 22 20:48:11 2024,40,-18.438,-18.438,-3.146,-3.146,-5.527,-1.115,16.627,6.143,4.693,12.138,8.031,-6.343,5.840,5.016,1.270,6.599,3.360
Fri Nov 22 20:48:11 2024,45,-18.414,-18.414,-3.143,-3.143,-5.522,-1.106,16.550,6.117,4.719,12.127,8.044,-6.351,5.819,5.027,1.320,6.588,3.394
Fri Nov 22 20:48:11 2024,50,-18.458,-18.458,-3.186,-3.186,-5.496,-1.080,16.559,6.204,4.724,12.068,8.131,-6.376,5.774,5.095,1.210,6.460,3.400
Fri Nov 22 20:48:11 2024,55,-18.480,-18.480,-3.213,-3.213,-5.478,-1.061,16.545,6.253,4.734,12.026,8.191,-6.394,5.739,5.142,1.153,6.374,3.414
Fri Nov 22 20:48:11 2024,60,-18.496,-18.496,-3.156,-3.156,-5.436,-1.084,16.550,6.261,4.714,12.073,8.172,-6.356,5.794,5.150,1.140,6.502,3.459
Fri Nov 22 20:48:11 2024,65,-18.513,-18.513,-3.096,-3.096,-5.391,-1.107,16.556,6.268,4.691,12.122,8.152,-6.316,5.854,5.157,1.126,6.638,3.507
Fri Nov 22 20:48:11 2024,70,-18.526,-18.526,-3.049,-3.049,-5.355,-1.125,16.561,6.274,4.674,12.162,8.136,-6.285,5.901,5.163,1.115,6.746,3.546
Fri Nov 22 20:48:11 2024,75,-18.525,-18.525,-2.986,-2.986,-5.317,-1.016,16.570,6.252,4.733,12.142,8.118,-6.286,5.796,5.087,1.123,6.584,3.490
Fri Nov 22 20:48:11 2024,80,-18.528,-18.528,-2.939,-2.939,-5.286,-0.959,16.575,6.241,4.762,12.140,8.104,-6.278,5.748,5.046,1.124,6.520,3.468
Fri Nov 22 20:48:11 2024,85,-18.500,-18.500,-2.958,-2.958,-5.301,-0.977,16.526,6.221,4.731,12.196,8.109,-6.303,5.798,5.070,1.115,6.588,3.497
Fri Nov 22 20:48:11 2024,90,-18.473,-18.473,-2.974,-2.974,-5.313,-0.990,16.477,6.200,4.701,12.252,8.114,-6.328,5.845,5.090,1.105,6.651,3.526
Fri Nov 22 20:48:11 2024,95,-18.456,-18.456,-2.974,-2.974,-5.319,-1.008,16.440,6.150,4.672,12.286,8.075,-6.332,5.870,5.068,1.092,6.698,3.525
Fri Nov 22 20:48:11 2024,100,-18.451,-18.451,-2.950,-2.950,-5.314,-1.037,16.421,6.047,4.643,12.291,7.961,-6.303,5.866,4.974,1.072,6.725,3.475
Fri Nov 22 20:48:11 2024,105,-18.444,-18.444,-2.932,-2.932,-5.312,-1.061,16.400,5.968,4.617,12.302,7.876,-6.284,5.868,4.906,1.055,6.754,3.442
Fri Nov 22 20:48:11 2024,110,-18.455,-18.455,-2.941,-2.941,-5.289,-1.039,16.384,6.014,4.644,12.194,7.882,-6.291,5.790,4.915,1.055,6.719,3.459
Fri Nov 22 20:48:11 2024,115,-18.463,-18.463,-2.946,-2.946,-5.271,-1.024,16.370,6.043,4.663,12.110,7.881,-6.295,5.728,4.917,1.054,6.694,3.470
Fri Nov 22 20:48:11 2024,120,-18.458,-18.458,-2.948,-2.948,-5.262,-0.984,16.342,6.049,4.665,12.014,7.875,-6.295,5.670,4.930,1.062,6.601,3.467
Fri Nov 22 20:48:11 2024,125,-18.446,-18.446,-2.949,-2.949,-5.260,-0.936,16.309,6.039,4.655,11.926,7.866,-6.293,5.623,4.947,1.074,6.483,3.455
Fri Nov 22 20:48:11 2024,130,-18.433,-18.433,-2.950,-2.950,-5.258,-0.886,16.273,6.028,4.646,11.833,7.858,-6.292,5.573,4.964,1.087,6.359,3.442
Fri Nov 22 20:48:11 2024,135,-18.479,-18.479,-2.885,-2.885,-5.233,-0.931,16.348,6.052,4.618,11.959,7.863,-6.290,5.677,4.989,1.095,6.521,3.514
Fri Nov 22 20:48:11 2024,140,-18.515,-18.515,-2.831,-2.831,-5.211,-0.961,16.404,6.070,4.592,12.048,7.866,-6.289,5.756,5.012,1.104,6.635,3.574
Fri Nov 22 20:48:11 2024,145,-18.520,-18.520,-2.798,-2.798,-5.175,-0.928,16.406,6.030,4.556,12.026,7.805,-6.315,5.751,4.975,1.074,6.652,3.548
Fri Nov 22 20:48:11 2024,150,-18.518,-18.518,-2.773,-2.773,-5.140,-0.886,16.396,5.985,4.520,11.982,7.737,-6.344,5.730,4.928,1.040,6.647,3.506
Fri Nov 22 20:48:11 2024,155,-18.514,-18.514,-2.752,-2.752,-5.109,-0.863,16.365,5.940,4.497,11.956,7.689,-6.363,5.722,4.902,1.013,6.652,3.488
Fri Nov 22 20:48:11 2024,160,-18.505,-18.505,-2.744,-2.744,-5.093,-0.908,16.274,5.906,4.515,11.994,7.714,-6.345,5.765,4.947,1.011,6.697,3.547
Fri Nov 22 20:48:11 2024,165,-18.498,-18.498,-2.736,-2.736,-5.076,-0.945,16.194,5.874,4.528,12.024,7.731,-6.332,5.801,4.982,1.007,6.734,3.597
Fri Nov 22 20:48:11 2024,170,-18.480,-18.480,-2.766,-2.766,-5.103,-0.950,16.213,5.814,4.499,12.057,7.716,-6.320,5.785,4.978,1.031,6.751,3.600
Fri Nov 22 20:48:11 2024,175,-18.462,-18.462,-2.799,-2.799,-5.134,-0.948,16.249,5.754,4.465,12.086,7.695,-6.309,5.760,4.966,1.058,6.762,3.593
Fri Nov 22 20:48:11 2024,180,-18.472,-18.472,-2.801,-2.801,-5.137,-0.953,16.247,5.740,4.451,12.092,7.685,-6.287,5.766,4.977,1.073,6.781,3.610
Fri Nov 22 20:48:11 2024,185,-18.516,-18.516,-2.765,-2.765,-5.106,-0.966,16.198,5.781,4.464,12.067,7.689,-6.254,5.807,5.015,1.071,6.810,3.656
Fri Nov 22 20:48:11 2024,190,-18.553,-18.553,-2.735,-2.735,-5.079,-0.976,16.156,5.817,4.475,12.046,7.691,-6.225,5.842,5.047,1.069,6.835,3.696
Fri Nov 22 20:48:11 2024,195,-18.546,-18.546,-2.739,-2.739,-5.067,-0.981,16.210,5.810,4.419,12.006,7.666,-6.290,5.763,5.032,1.002,6.861,3.723
Fri Nov 22 20:48:11 2024,200,-18.538,-18.538,-2.744,-2.744,-5.059,-0.984,16.260,5.800,4.370,11.973,7.644,-6.347,5.693,5.017,0.945,6.881,3.744
Fri Nov 22 20:48:11 2024,205,-18.535,-18.535,-2.734,-2.734,-5.038,-0.982,16.296,5.799,4.339,11.962,7.649,-6.387,5.640,5.028,0.894,6.890,3.778
Fri Nov 22 20:48:11 2024,210,-18.548,-18.548,-2.684,-2.684,-4.988,-0.968,16.284,5.820,4.366,12.018,7.724,-6.366,5.648,5.107,0.872,6.870,3.837
Fri Nov 22 20:48:11 2024,215,-18.558,-18.558,-2.645,-2.645,-4.948,-0.958,16.281,5.835,4.381,12.059,7.782,-6.358,5.645,5.168,0.849,6.857,3.888
Fri Nov 22 20:48:11 2024,220,-18.515,-18.515,-2.660,-2.660,-4.936,-0.993,16.193,5.787,4.326,12.030,7.704,-6.429,5.568,5.096,0.816,6.944,3.875
Fri Nov 22 20:48:11 2024,225,-18.476,-18.476,-2.672,-2.672,-4.922,-1.026,16.108,5.741,4.274,12.003,7.633,-6.497,5.494,5.030,0.782,7.026,3.866
Fri Nov 22 20:48:11 2024,230,-18.442,-18.442,-2.666,-2.666,-4.924,-1.015,16.035,5.692,4.262,12.006,7.610,-6.492,5.485,5.028,0.786,7.031,3.867
Fri Nov 22 20:48:11 2024,235,-18.418,-18.418,-2.650,-2.650,-4.937,-0.977,15.975,5.647,4.280,12.029,7.623,-6.438,5.517,5.067,0.814,6.984,3.874
Fri Nov 22 20:48:11 2024,240,-18.397,-18.397,-2.636,-2.636,-4.947,-0.945,15.925,5.609,4.294,12.047,7.633,-6.394,5.544,5.101,0.838,6.944,3.881
Fri Nov 22 20:48:11 2024,245,-18.390,-18.390,-2.633,-2.633,-4.969,-0.951,15.894,5.600,4.278,12.056,7.632,-6.354,5.590,5.138,0.891,6.966,3.915
Fri Nov 22 20:48:11 2024,250,-18.404,-18.404,-2.647,-2.647,-5.005,-1.009,15.891,5.632,4.222,12.053,7.618,-6.323,5.661,5.178,0.984,7.071,3.986
Fri Nov 22 20:48:11 2024,255,-18.409,-18.409,-2.611,-2.611,-4.986,-1.018,15.903,5.577,4.193,12.105,7.575,-6.317,5.681,5.138,0.956,7.141,3.964
Fri Nov 22 20:48:11 2024,260,-18.415,-18.415,-2.566,-2.566,-4.955,-1.021,15.922,5.508,4.169,12.169,7.525,-6.320,5.689,5.079,0.901,7.208,3.925
Fri Nov 22 20:48:11 2024,265,-18.421,-18.421,-2.524,-2.524,-4.925,-1.023,15.941,5.443,4.145,12.229,7.477,-6.322,5.696,5.023,0.850,7.271,3.887
Fri Nov 22 20:48:11 2024,270,-18.418,-18.418,-2.563,-2.563,-4.980,-1.007,15.880,5.469,4.181,12.209,7.515,-6.342,5.583,5.020,0.872,7.130,3.840
Fri Nov 22 20:48:11 2024,275,-18.417,-18.417,-2.590,-2.590,-5.022,-0.993,15.831,5.482,4.208,12.201,7.540,-6.360,5.488,5.010,0.883,7.018,3.794
Fri Nov 22 20:48:11 2024,280,-18.416,-18.416,-2.610,-2.610,-5.054,-0.982,15.793,5.493,4.229,12.194,7.560,-6.374,5.414,5.002,0.891,6.932,3.759
Fri Nov 22 20:48:11 2024,285,-18.427,-18.427,-2.528,-2.528,-4.907,-0.984,15.857,5.513,4.198,12.224,7.596,-6.399,5.416,5.031,0.811,6.926,3.778
Fri Nov 22 20:48:11 2024,290,-18.432,-18.432,-2.492,-2.492,-4.841,-0.981,15.878,5.527,4.189,12.237,7.621,-6.417,5.392,5.044,0.773,6.893,3.776
Fri Nov 22 20:48:11 2024,295,-18.447,-18.447,-2.424,-2.424,-4.845,-0.990,15.944,5.600,4.175,12.299,7.699,-6.378,5.474,5.183,0.864,6.939,3.872
Fri Nov 22 20:48:11 2024,300,-18.460,-18.460,-2.360,-2.360,-4.838,-0.996,16.002,5.664,4.162,12.353,7.768,-6.350,5.538,5.300,0.936,6.971,3.953
Fri Nov 22 20:48:11 2024,305,-18.457,-18.457,-2.343,-2.343,-4.831,-1.006,15.926,5.614,4.158,12.357,7.732,-6.349,5.517,5.266,0.944,6.981,3.938
Fri Nov 22 20:48:11 2024,310,-18.453,-18.453,-2.337,-2.337,-4.826,-1.014,15.839,5.551,4.156,12.351,7.682,-6.354,5.483,5.208,0.939,6.985,3.907
Fri Nov 22 20:48:11 2024,315,-18.447,-18.447,-2.330,-2.330,-4.821,-1.024,15.746,5.485,4.155,12.345,7.629,-6.359,5.446,5.146,0.933,6.988,3.874
Fri Nov 22 20:48:11 2024,320,-18.416,-18.416,-2.357,-2.357,-4.818,-0.973,15.754,5.475,4.174,12.326,7.655,-6.343,5.428,5.162,0.955,6.989,3.846
Fri Nov 22 20:48:11 2024,325,-18.398,-18.398,-2.370,-2.370,-4.815,-0.948,15.743,5.459,4.184,12.315,7.659,-6.336,5.412,5.160,0.965,6.990,3.826
Fri Nov 22 20:48:11 2024,330,-18.456,-18.456,-2.269,-2.269,-4.775,-0.994,15.796,5.441,4.151,12.407,7.623,-6.341,5.456,5.122,0.968,7.072,3.824
Fri Nov 22 20:48:11 2024,335,-18.510,-18.510,-2.177,-2.177,-4.740,-1.040,15.844,5.428,4.119,12.490,7.591,-6.346,5.497,5.088,0.968,7.144,3.826
Fri Nov 22 20:48:11 2024,340,-18.571,-18.571,-2.074,-2.074,-4.702,-1.091,15.897,5.413,4.085,12.583,7.554,-6.352,5.543,5.050,0.968,7.225,3.829
Fri Nov 22 20:48:11 2024,345,-18.492,-18.492,-2.218,-2.218,-4.802,-1.071,15.920,5.400,4.110,12.608,7.584,-6.340,5.477,5.036,0.959,7.164,3.751
Fri Nov 22 20:48:11 2024,350,-18.459,-18.459,-2.281,-2.281,-4.853,-1.072,15.949,5.388,4.117,12.648,7.593,-6.335,5.449,5.017,0.953,7.147,3.704
Fri Nov 22 20:48:11 2024,355,-18.447,-18.447,-2.317,-2.317,-4.867,-1.071,15.924,5.398,4.097,12.635,7.606,-6.341,5.430,5.039,0.912,7.084,3.681
Fri Nov 22 20:48:11 2024,360,-18.470,-18.470,-2.309,-2.309,-4.825,-1.067,15.826,5.436,4.043,12.548,7.624,-6.364,5.427,5.117,0.830,6.964,3.696
Fri Nov 22 20:48:11 2024,365,-18.476,-18.476,-2.319,-2.319,-4.810,-1.064,15.770,5.458,4.010,12.500,7.638,-6.377,5.419,5.164,0.778,6.882,3.695
Fri Nov 22 20:48:11 2024,370,-18.472,-18.472,-2.268,-2.268,-4.780,-1.041,15.766,5.470,4.064,12.567,7.653,-6.360,5.488,5.183,0.836,6.940,3.768
Fri Nov 22 20:48:11 2024,375,-18.472,-18.472,-2.244,-2.244,-4.758,-1.028,15.748,5.482,4.085,12.589,7.665,-6.354,5.523,5.206,0.854,6.950,3.808
Fri Nov 22 20:48:11 2024,380,-18.453,-18.453,-2.221,-2.221,-4.752,-1.036,15.747,5.490,4.091,12.528,7.643,-6.360,5.410,5.156,0.894,6.991,3.802
Fri Nov 22 20:48:11 2024,385,-18.435,-18.435,-2.198,-2.198,-4.745,-1.044,15.746,5.496,4.098,12.472,7.624,-6.365,5.308,5.110,0.932,7.028,3.797
Fri Nov 22 20:48:11 2024,390,-18.423,-18.423,-2.183,-2.183,-4.741,-1.048,15.746,5.501,4.102,12.433,7.611,-6.368,5.238,5.079,0.959,7.054,3.794
Fri Nov 22 20:48:11 2024,395,-18.415,-18.415,-2.263,-2.263,-4.775,-1.112,15.602,5.519,4.056,12.438,7.665,-6.429,5.334,5.213,0.898,7.068,3.883
Fri Nov 22 20:48:11 2024,400,-18.407,-18.407,-2.301,-2.301,-4.792,-1.146,15.526,5.530,4.032,12.428,7.690,-6.463,5.363,5.275,0.874,7.084,3.929
Fri Nov 22 20:48:11 2024,405,-18.401,-18.401,-2.262,-2.262,-4.765,-1.114,15.574,5.558,4.070,12.412,7.724,-6.390,5.386,5.290,0.960,7.102,3.931
Fri Nov 22 20:48:11 2024,410,-18.396,-18.396,-2.234,-2.234,-4.745,-1.092,15.604,5.580,4.098,12.398,7.752,-6.338,5.406,5.308,1.025,7.116,3.936
Fri Nov 22 20:48:11 2024,415,-18.392,-18.392,-2.210,-2.210,-4.727,-1.072,15.632,5.600,4.122,12.387,7.778,-6.291,5.424,5.323,1.085,7.129,3.941
Fri Nov 22 20:48:11 2024,420,-18.355,-18.355,-2.349,-2.349,-4.869,-1.026,15.780,5.540,4.109,12.381,7.692,-6.318,5.450,5.212,1.004,7.064,3.768
Fri Nov 22 20:48:11 2024,425,-18.335,-18.335,-2.412,-2.412,-4.936,-0.996,15.866,5.516,4.111,12.374,7.656,-6.316,5.470,5.161,0.984,7.036,3.683
Fri Nov 22 20:48:11 2024,430,-18.319,-18.319,-2.461,-2.461,-4.988,-0.973,15.932,5.497,4.113,12.369,7.628,-6.315,5.486,5.121,0.967,7.014,3.618
Fri Nov 22 20:48:11 2024,435,-18.311,-18.311,-2.486,-2.486,-5.013,-0.961,15.965,5.488,4.113,12.366,7.615,-6.315,5.493,5.101,0.959,7.002,3.585
Fri Nov 22 20:48:11 2024,440,-18.308,-18.308,-2.492,-2.492,-5.020,-0.958,15.974,5.485,4.113,12.366,7.611,-6.314,5.496,5.095,0.957,7.000,3.577
Fri Nov 22 20:48:11 2024,445,-18.374,-18.374,-2.265,-2.265,-4.864,-1.012,15.728,5.530,4.091,12.334,7.665,-6.377,5.298,5.163,0.966,7.019,3.803
Fri Nov 22 20:48:11 2024,450,-18.381,-18.381,-2.239,-2.239,-4.852,-1.014,15.703,5.533,4.087,12.326,7.666,-6.389,5.266,5.162,0.962,7.015,3.824
Fri Nov 22 20:48:11 2024,455,-18.352,-18.352,-2.312,-2.312,-4.841,-1.038,15.735,5.540,4.097,12.356,7.668,-6.356,5.349,5.166,0.961,7.083,3.809
Fri Nov 22 20:48:11 2024,460,-18.334,-18.334,-2.358,-2.358,-4.832,-1.055,15.752,5.546,4.104,12.375,7.669,-6.335,5.399,5.169,0.960,7.128,3.802
Fri Nov 22 20:48:11 2024,465,-18.332,-18.332,-2.381,-2.381,-4.843,-1.026,15.792,5.572,4.099,12.328,7.697,-6.353,5.364,5.182,0.942,7.046,3.783
Fri Nov 22 20:48:11 2024,470,-18.334,-18.334,-2.394,-2.394,-4.858,-0.989,15.833,5.602,4.093,12.268,7.728,-6.380,5.310,5.196,0.923,6.940,3.763
Fri Nov 22 20:48:11 2024,475,-18.338,-18.338,-2.408,-2.408,-4.875,-0.950,15.875,5.632,4.085,12.207,7.761,-6.408,5.254,5.211,0.902,6.831,3.743
Fri Nov 22 20:48:11 2024,480,-18.317,-18.317,-2.417,-2.417,-4.832,-0.942,15.947,5.659,4.148,12.261,7.805,-6.337,5.367,5.274,0.989,7.008,3.824
Fri Nov 22 20:48:11 2024,485,-18.304,-18.304,-2.426,-2.426,-4.808,-0.928,16.003,5.684,4.187,12.281,7.841,-6.299,5.427,5.318,1.041,7.096,3.873
Fri Nov 22 20:48:11 2024,490,-18.301,-18.301,-2.390,-2.390,-4.838,-0.930,15.977,5.603,4.188,12.323,7.762,-6.308,5.466,5.249,1.027,7.106,3.825
Fri Nov 22 20:48:11 2024,495,-18.299,-18.299,-2.357,-2.357,-4.865,-0.933,15.950,5.530,4.186,12.359,7.691,-6.319,5.496,5.186,1.012,7.110,3.781
Fri Nov 22 20:48:11 2024,500,-18.297,-18.297,-2.328,-2.328,-4.890,-0.935,15.927,5.465,4.185,12.391,7.628,-6.329,5.523,5.130,0.999,7.112,3.742
Fri Nov 22 20:48:11 2024,505,-18.301,-18.301,-2.487,-2.487,-4.931,-0.993,15.916,5.581,4.173,12.394,7.748,-6.359,5.443,5.178,1.012,7.161,3.813
Fri Nov 22 20:48:11 2024,510,-18.303,-18.303,-2.574,-2.574,-4.961,-1.027,15.904,5.634,4.165,12.404,7.805,-6.378,5.402,5.194,1.016,7.191,3.845
Fri Nov 22 20:48:11 2024,515,-18.305,-18.305,-2.641,-2.641,-4.984,-1.054,15.895,5.675,4.159,12.412,7.848,-6.393,5.370,5.205,1.020,7.213,3.870
Fri Nov 22 20:48:11 2024,520,-18.366,-18.366,-2.517,-2.517,-4.969,-0.967,16.064,5.620,4.204,12.316,7.786,-6.286,5.517,5.228,1.081,6.964,3.785
Fri Nov 22 20:48:11 2024,525,-18.394,-18.394,-2.491,-2.491,-4.973,-0.940,16.135,5.614,4.222,12.276,7.777,-6.245,5.569,5.243,1.110,6.863,3.759
Fri Nov 22 20:48:11 2024,530,-18.359,-18.359,-2.630,-2.630,-5.014,-0.955,16.148,5.688,4.235,12.396,7.914,-6.269,5.623,5.351,1.129,7.026,3.838
Fri Nov 22 20:48:11 2024,535,-18.344,-18.344,-2.715,-2.715,-5.044,-0.956,16.179,5.736,4.250,12.464,8.004,-6.273,5.675,5.428,1.152,7.105,3.883
Fri Nov 22 20:48:11 2024,540,-18.355,-18.355,-2.673,-2.673,-5.028,-0.963,16.264,5.760,4.235,12.497,7.981,-6.311,5.680,5.373,1.101,7.115,3.863
Fri Nov 22 20:48:11 2024,545,-18.364,-18.364,-2.641,-2.641,-5.016,-0.970,16.344,5.787,4.223,12.533,7.967,-6.346,5.689,5.328,1.056,7.130,3.849
Fri Nov 22 20:48:11 2024,550,-18.354,-18.354,-2.632,-2.632,-5.014,-0.946,16.343,5.741,4.221,12.545,7.925,-6.353,5.667,5.249,1.031,7.090,3.799
Fri Nov 22 20:48:11 2024,555,-18.336,-18.336,-2.634,-2.634,-5.015,-0.912,16.311,5.668,4.222,12.547,7.872,-6.349,5.635,5.156,1.013,7.028,3.737
Fri Nov 22 20:48:11 2024,560,-18.321,-18.321,-2.634,-2.634,-5.017,-0.881,16.281,5.603,4.223,12.550,7.825,-6.346,5.605,5.074,0.997,6.973,3.681
Fri Nov 22 20:48:11 2024,565,-18.308,-18.308,-2.635,-2.635,-5.018,-0.856,16.258,5.552,4.224,12.551,7.788,-6.343,5.582,5.009,0.985,6.930,3.637
Fri Nov 22 20:48:11 2024,570,-18.422,-18.422,-2.589,-2.589,-4.945,-0.876,16.309,5.630,4.212,12.258,7.736,-6.353,5.605,5.070,0.971,7.131,3.765
Fri Nov 22 20:48:11 2024,575,-18.433,-18.433,-2.594,-2.594,-4.934,-0.853,16.312,5.648,4.224,12.170,7.733,-6.354,5.608,5.086,0.975,7.128,3.781
Fri Nov 22 20:48:11 2024,580,-18.425,-18.425,-2.616,-2.616,-4.935,-0.817,16.311,5.673,4.247,12.097,7.755,-6.355,5.612,5.117,0.990,7.078,3.787
Fri Nov 22 20:48:11 2024,585,-18.422,-18.422,-2.634,-2.634,-4.932,-0.784,16.310,5.696,4.268,12.023,7.770,-6.355,5.616,5.145,1.002,7.040,3.794
Fri Nov 22 20:48:11 2024,590,-18.468,-18.468,-2.647,-2.647,-4.956,-0.814,16.399,5.774,4.266,12.048,7.798,-6.393,5.592,5.163,0.982,7.050,3.816
Fri Nov 22 20:48:11 2024,595,-18.502,-18.502,-2.658,-2.658,-4.971,-0.830,16.459,5.828,4.267,12.058,7.818,-6.419,5.577,5.178,0.971,7.053,3.831
Fri Nov 22 20:48:11 2024,600,-18.509,-18.509,-2.687,-2.687,-5.029,-0.821,16.437,5.820,4.293,12.046,7.813,-6.431,5.566,5.155,0.960,6.923,3.775
Fri Nov 22 20:48:11 2024,605,-18.509,-18.509,-2.719,-2.719,-5.093,-0.807,16.396,5.798,4.324,12.029,7.802,-6.440,5.556,5.124,0.952,6.768,3.704
Fri Nov 22 20:48:11 2024,610,-18.510,-18.510,-2.746,-2.746,-5.146,-0.796,16.361,5.779,4.349,12.014,7.794,-6.446,5.548,5.099,0.945,6.639,3.645
Fri Nov 22 20:48:11 2024,615,-18.504,-18.504,-2.738,-2.738,-5.113,-0.762,16.538,5.842,4.386,12.040,7.770,-6.414,5.606,5.024,1.064,6.808,3.690
Fri Nov 22 20:48:11 2024,620,-18.502,-18.502,-2.739,-2.739,-5.102,-0.738,16.640,5.877,4.415,12.054,7.754,-6.395,5.640,4.974,1.137,6.887,3.706
Fri Nov 22 20:48:11 2024,625,-18.508,-18.508,-2.790,-2.790,-5.135,-0.705,16.706,5.884,4.417,12.027,7.731,-6.382,5.665,4.951,1.140,6.856,3.664
Fri Nov 22 20:48:11 2024,630,-18.520,-18.520,-2.872,-2.872,-5.193,-0.664,16.761,5.879,4.406,11.978,7.703,-6.368,5.690,4.942,1.110,6.766,3.588
Fri Nov 22 20:48:11 2024,635,-18.528,-18.528,-2.931,-2.931,-5.234,-0.633,16.810,5.878,4.400,11.943,7.681,-6.357,5.709,4.930,1.094,6.709,3.534
Fri Nov 22 20:48:11 2024,640,-18.462,-18.462,-2.865,-2.865,-5.169,-0.625,16.767,5.920,4.453,11.816,7.713,-6.338,5.733,5.003,1.144,6.732,3.607
Fri Nov 22 20:48:11 2024,645,-18.424,-18.424,-2.838,-2.838,-5.139,-0.612,16.752,5.946,4.484,11.730,7.728,-6.324,5.753,5.046,1.172,6.732,3.638
Fri Nov 22 20:48:11 2024,650,-18.447,-18.447,-2.897,-2.897,-5.223,-0.689,16.784,5.998,4.478,11.860,7.815,-6.389,5.736,5.043,1.157,6.736,3.635
Fri Nov 22 20:48:11 2024,655,-18.471,-18.471,-2.950,-2.950,-5.297,-0.754,16.810,6.040,4.471,11.978,7.887,-6.445,5.721,5.036,1.142,6.741,3.629
Fri Nov 22 20:48:11 2024,660,-18.492,-18.492,-2.995,-2.995,-5.361,-0.812,16.831,6.077,4.465,12.079,7.951,-6.494,5.706,5.030,1.129,6.744,3.624
Fri Nov 22 20:48:11 2024,665,-18.471,-18.471,-3.006,-3.006,-5.356,-0.709,16.955,5.994,4.558,12.080,7.875,-6.402,5.795,4.972,1.196,6.811,3.576
Fri Nov 22 20:48:11 2024,670,-18.464,-18.464,-3.025,-3.025,-5.371,-0.662,17.037,5.953,4.613,12.107,7.846,-6.359,5.845,4.935,1.234,6.853,3.546
Fri Nov 22 20:48:11 2024,675,-18.473,-18.473,-3.075,-3.075,-5.390,-0.623,17.099,6.048,4.655,12.129,7.944,-6.333,5.925,5.015,1.275,6.825,3.543
Fri Nov 22 20:48:11 2024,680,-18.480,-18.480,-3.113,-3.113,-5.403,-0.595,17.144,6.124,4.686,12.145,8.022,-6.315,5.986,5.078,1.306,6.802,3.542
Fri Nov 22 20:48:11 2024,685,-18.511,-18.511,-3.121,-3.121,-5.432,-0.596,17.259,6.151,4.691,12.233,8.049,-6.331,6.065,5.087,1.316,6.826,3.524
Fri Nov 22 20:48:11 2024,690,-18.546,-18.546,-3.103,-3.103,-5.459,-0.618,17.374,6.132,4.675,12.333,8.029,-6.364,6.123,5.051,1.304,6.875,3.503
Fri Nov 22 20:48:11 2024,695,-18.579,-18.579,-3.087,-3.087,-5.484,-0.638,17.483,6.115,4.660,12.429,8.009,-6.396,6.179,5.018,1.294,6.922,3.482
Fri Nov 22 20:48:11 2024,700,-18.569,-18.569,-3.120,-3.120,-5.476,-0.629,17.337,6.108,4.698,12.327,8.026,-6.414,5.934,4.950,1.295,6.714,3.430
Fri Nov 22 20:48:11 2024,705,-18.566,-18.566,-3.142,-3.142,-5.472,-0.624,17.243,6.101,4.724,12.262,8.036,-6.429,5.764,4.900,1.295,6.570,3.393
Fri Nov 22 20:48:11 2024,710,-18.562,-18.562,-3.162,-3.162,-5.469,-0.620,17.152,6.096,4.748,12.200,8.046,-6.444,5.602,4.852,1.295,6.434,3.356
Fri Nov 22 20:48:11 2024,715,-18.585,-18.585,-3.120,-3.120,-5.469,-0.517,17.469,6.205,4.861,12.196,8.090,-6.386,5.859,4.936,1.392,6.582,3.434
Fri Nov 22 20:48:11 2024,720,-18.596,-18.596,-3.104,-3.104,-5.469,-0.462,17.608,6.260,4.926,12.176,8.116,-6.360,5.945,4.966,1.444,6.618,3.464
Fri Nov 22 20:48:11 2024,725,-18.591,-18.591,-3.101,-3.101,-5.434,-0.466,17.533,6.221,4.891,12.136,8.109,-6.382,5.891,4.978,1.387,6.540,3.429
Fri Nov 22 20:48:11 2024,730,-18.588,-18.588,-3.097,-3.097,-5.406,-0.464,17.483,6.194,4.867,12.101,8.106,-6.398,5.853,4.990,1.346,6.478,3.404
Fri Nov 22 20:48:11 2024,735,-18.600,-18.600,-3.161,-3.161,-5.459,-0.431,17.510,6.258,4.918,12.074,8.128,-6.399,5.809,4.956,1.357,6.370,3.342
Fri Nov 22 20:48:11 2024,740,-18.617,-18.617,-3.241,-3.241,-5.534,-0.389,17.560,6.347,4.990,12.049,8.156,-6.395,5.767,4.909,1.384,6.255,3.274
Fri Nov 22 20:48:11 2024,745,-18.632,-18.632,-3.301,-3.301,-5.589,-0.358,17.596,6.412,5.042,12.031,8.176,-6.392,5.736,4.874,1.404,6.171,3.225
Fri Nov 22 20:48:11 2024,750,-18.621,-18.621,-3.281,-3.281,-5.585,-0.406,17.627,6.436,5.011,12.119,8.239,-6.379,5.773,4.930,1.394,6.261,3.331
Fri Nov 22 20:48:11 2024,755,-18.616,-18.616,-3.276,-3.276,-5.592,-0.442,17.658,6.470,4.994,12.191,8.297,-6.367,5.799,4.972,1.388,6.324,3.416
Fri Nov 22 20:48:11 2024,760,-18.608,-18.608,-3.290,-3.290,-5.573,-0.427,17.649,6.496,5.018,12.189,8.379,-6.366,5.777,5.024,1.411,6.312,3.453
Fri Nov 22 20:48:11 2024,765,-18.601,-18.601,-3.307,-3.307,-5.552,-0.404,17.632,6.520,5.046,12.176,8.458,-6.366,5.750,5.072,1.435,6.290,3.478
Fri Nov 22 20:48:11 2024,770,-18.595,-18.595,-3.322,-3.322,-5.532,-0.384,17.617,6.542,5.072,12.162,8.530,-6.367,5.725,5.117,1.458,6.269,3.501
Fri Nov 22 20:48:11 2024,775,-18.590,-18.590,-3.335,-3.335,-5.516,-0.367,17.604,6.560,5.092,12.152,8.588,-6.367,5.704,5.153,1.477,6.252,3.520
Fri Nov 22 20:48:11 2024,780,-18.590,-18.590,-3.340,-3.340,-5.511,-0.361,17.599,6.567,5.101,12.148,8.611,-6.367,5.696,5.167,1.484,6.246,3.526
Fri Nov 22 20:48:11 2024,785,-18.592,-18.592,-3.342,-3.342,-5.510,-0.359,17.598,6.569,5.103,12.147,8.616,-6.367,5.694,5.171,1.485,6.245,3.528
Fri Nov 22 20:48:11 2024,790,-18.557,-18.557,-3.733,-3.733,-5.889,-0.365,17.894,6.727,5.151,12.327,8.858,-6.575,5.629,5.175,1.407,6.181,3.439
Fri Nov 22 20:48:11 2024,795,-18.552,-18.552,-3.810,-3.810,-5.953,-0.360,17.944,6.762,5.167,12.356,8.921,-6.613,5.610,5.188,1.399,6.164,3.428
Fri Nov 22 20:48:11 2024,800,-18.538,-18.538,-3.720,-3.720,-5.893,-0.331,17.977,6.751,5.212,12.311,8.797,-6.450,5.725,5.185,1.451,6.268,3.510
Fri Nov 22 20:48:11 2024,805,-18.529,-18.529,-3.675,-3.675,-5.864,-0.312,18.007,6.749,5.245,12.286,8.725,-6.348,5.798,5.185,1.484,6.333,3.564
Fri Nov 22 20:48:11 2024,810,-18.522,-18.522,-3.658,-3.658,-5.833,-0.357,17.937,6.707,5.194,12.381,8.731,-6.386,5.847,5.184,1.513,6.428,3.575
Fri Nov 22 20:48:11 2024,815,-18.518,-18.518,-3.647,-3.647,-5.811,-0.392,17.884,6.676,5.154,12.453,8.737,-6.418,5.882,5.184,1.535,6.497,3.583
Fri Nov 22 20:48:11 2024,820,-18.514,-18.514,-3.633,-3.633,-5.786,-0.431,17.823,6.640,5.109,12.536,8.744,-6.454,5.921,5.183,1.559,6.576,3.591
Fri Nov 22 20:48:11 2024,825,-18.501,-18.501,-3.598,-3.598,-5.804,-0.394,17.856,6.628,5.178,12.417,8.746,-6.432,5.852,5.174,1.518,6.274,3.490
Fri Nov 22 20:48:11 2024,830,-18.493,-18.493,-3.574,-3.574,-5.810,-0.381,17.860,6.612,5.206,12.366,8.748,-6.429,5.821,5.168,1.499,6.113,3.432
Fri Nov 22 20:48:11 2024,835,-18.492,-18.492,-3.575,-3.575,-5.810,-0.360,17.884,6.623,5.215,12.335,8.746,-6.428,5.767,5.153,1.493,6.114,3.444
Fri Nov 22 20:48:11 2024,840,-18.501,-18.501,-3.606,-3.606,-5.804,-0.325,17.939,6.666,5.203,12.317,8.738,-6.431,5.673,5.122,1.498,6.300,3.541
Fri Nov 22 20:48:11 2024,845,-18.489,-18.489,-3.659,-3.659,-5.818,-0.342,17.934,6.701,5.205,12.340,8.753,-6.444,5.693,5.141,1.493,6.357,3.579
Fri Nov 22 20:48:11 2024,850,-18.470,-18.470,-3.730,-3.730,-5.840,-0.382,17.905,6.737,5.208,12.388,8.777,-6.463,5.761,5.180,1.488,6.394,3.607
Fri Nov 22 20:48:11 2024,855,-18.454,-18.454,-3.792,-3.792,-5.860,-0.416,17.879,6.769,5.210,12.430,8.798,-6.480,5.820,5.214,1.483,6.426,3.632
Fri Nov 22 20:48:11 2024,860,-18.463,-18.463,-3.786,-3.786,-5.856,-0.419,17.872,6.741,5.204,12.456,8.776,-6.478,5.829,5.200,1.485,6.405,3.622
Fri Nov 22 20:48:11 2024,865,-18.498,-18.498,-3.710,-3.710,-5.828,-0.387,17.885,6.648,5.186,12.470,8.706,-6.458,5.787,5.132,1.492,6.324,3.577
Fri Nov 22 20:48:11 2024,870,-18.499,-18.499,-3.669,-3.669,-5.799,-0.403,17.862,6.638,5.180,12.428,8.693,-6.465,5.774,5.139,1.474,6.272,3.569
Fri Nov 22 20:48:11 2024,875,-18.494,-18.494,-3.630,-3.630,-5.767,-0.428,17.832,6.646,5.176,12.367,8.692,-6.478,5.763,5.162,1.449,6.223,3.569
Fri Nov 22 20:48:11 2024,880,-18.489,-18.489,-3.589,-3.589,-5.734,-0.454,17.799,6.654,5.171,12.300,8.690,-6.492,5.750,5.187,1.422,6.171,3.569
Fri Nov 22 20:48:11 2024,885,-18.490,-18.490,-3.612,-3.612,-5.778,-0.424,17.808,6.698,5.172,12.258,8.660,-6.502,5.705,5.138,1.389,6.164,3.560
Fri Nov 22 20:48:11 2024,890,-18.491,-18.491,-3.626,-3.626,-5.810,-0.402,17.811,6.735,5.171,12.210,8.634,-6.512,5.664,5.100,1.358,6.151,3.552
Fri Nov 22 20:48:11 2024,895,-18.488,-18.488,-3.643,-3.643,-5.811,-0.414,17.771,6.745,5.161,12.201,8.643,-6.484,5.622,5.113,1.363,6.197,3.597
Fri Nov 22 20:48:11 2024,900,-18.483,-18.483,-3.667,-3.667,-5.803,-0.438,17.710,6.749,5.147,12.200,8.664,-6.438,5.569,5.144,1.380,6.270,3.668
Fri Nov 22 20:48:11 2024,905,-18.480,-18.480,-3.687,-3.687,-5.796,-0.459,17.658,6.752,5.134,12.198,8.683,-6.400,5.523,5.170,1.395,6.331,3.730
Fri Nov 22 20:48:11 2024,910,-18.478,-18.478,-3.718,-3.718,-5.820,-0.480,17.659,6.761,5.117,12.198,8.684,-6.398,5.540,5.188,1.381,6.316,3.738
Fri Nov 22 20:48:11 2024,915,-18.478,-18.478,-3.778,-3.778,-5.894,-0.511,17.730,6.783,5.083,12.197,8.667,-6.445,5.647,5.205,1.324,6.190,3.681
Fri Nov 22 20:48:11 2024,920,-18.477,-18.477,-3.810,-3.810,-5.926,-0.530,17.748,6.793,5.066,12.196,8.664,-6.456,5.683,5.218,1.302,6.150,3.672
Fri Nov 22 20:48:11 2024,925,-18.440,-18.440,-3.833,-3.833,-5.892,-0.518,17.652,6.763,5.118,12.194,8.634,-6.419,5.680,5.173,1.383,6.409,3.742
Fri Nov 22 20:48:11 2024,930,-18.421,-18.421,-3.857,-3.857,-5.886,-0.520,17.613,6.752,5.138,12.192,8.618,-6.406,5.691,5.156,1.414,6.520,3.773
Fri Nov 22 20:48:11 2024,935,-18.430,-18.430,-3.862,-3.862,-5.891,-0.529,17.624,6.748,5.127,12.205,8.615,-6.414,5.711,5.162,1.398,6.517,3.778
Fri Nov 22 20:48:11 2024,940,-18.459,-18.459,-3.856,-3.856,-5.904,-0.546,17.675,6.745,5.092,12.233,8.620,-6.440,5.742,5.188,1.342,6.430,3.765
Fri Nov 22 20:48:11 2024,945,-18.470,-18.470,-3.858,-3.858,-5.909,-0.555,17.691,6.742,5.079,12.247,8.619,-6.450,5.760,5.198,1.322,6.411,3.766
Fri Nov 22 20:48:11 2024,950,-18.490,-18.490,-3.809,-3.809,-5.920,-0.616,17.610,6.764,5.066,12.272,8.661,-6.443,5.757,5.242,1.379,6.525,3.847
Fri Nov 22 20:48:11 2024,955,-18.504,-18.504,-3.779,-3.779,-5.914,-0.637,17.575,6.774,5.061,12.274,8.664,-6.434,5.764,5.250,1.408,6.592,3.878
Fri Nov 22 20:48:11 2024,960,-18.507,-18.507,-3.778,-3.778,-5.891,-0.607,17.602,6.764,5.065,12.250,8.622,-6.422,5.782,5.216,1.400,6.592,3.844
Fri Nov 22 20:48:11 2024,965,-18.510,-18.510,-3.777,-3.777,-5.866,-0.577,17.631,6.756,5.068,12.224,8.578,-6.410,5.800,5.180,1.390,6.594,3.809
Fri Nov 22 20:48:11 2024,970,-18.478,-18.478,-3.809,-3.809,-5.897,-0.568,17.549,6.718,5.074,12.209,8.599,-6.411,5.740,5.177,1.378,6.527,3.792
Fri Nov 22 20:48:11 2024,975,-18.446,-18.446,-3.841,-3.841,-5.927,-0.560,17.466,6.681,5.081,12.194,8.622,-6.412,5.680,5.174,1.366,6.462,3.777
Fri Nov 22 20:48:11 2024,980,-18.417,-18.417,-3.871,-3.871,-5.955,-0.552,17.390,6.647,5.086,12.181,8.642,-6.412,5.623,5.173,1.355,6.400,3.763
Fri Nov 22 20:48:11 2024,985,-18.421,-18.421,-3.856,-3.856,-5.969,-0.582,17.399,6.607,5.053,12.212,8.581,-6.454,5.700,5.158,1.318,6.441,3.756
Fri Nov 22 20:48:11 2024,990,-18.414,-18.414,-3.856,-3.856,-5.986,-0.598,17.382,6.571,5.033,12.228,8.550,-6.481,5.730,5.148,1.292,6.448,3.748
Fri Nov 22 20:48:11 2024,995,-18.423,-18.423,-3.814,-3.814,-5.956,-0.609,17.362,6.600,5.022,12.200,8.550,-6.426,5.735,5.177,1.310,6.516,3.806
Fri Nov 22 20:48:12 2024,0,-18.430,-18.430,-3.780,-3.780,-5.930,-0.618,17.346,6.624,5.013,12.179,8.548,-6.382,5.740,5.200,1.324,6.572,3.855
Fri Nov 22 20:48:12 2024,5,-18.440,-18.440,-3.743,-3.743,-5.911,-0.618,17.380,6.648,5.008,12.177,8.538,-6.389,5.725,5.181,1.307,6.554,3.845
Fri Nov 22 20:48:12 2024,10,-18.450,-18.450,-3.708,-3.708,-5.896,-0.612,17.435,6.671,5.006,12.186,8.524,-6.421,5.702,5.141,1.275,6.501,3.805
Fri Nov 22 20:48:12 2024,15,-18.462,-18.462,-3.672,-3.672,-5.879,-0.606,17.495,6.696,5.004,12.196,8.509,-6.454,5.677,5.098,1.242,6.444,3.764
Fri Nov 22 20:48:12 2024,20,-18.507,-18.507,-3.613,-3.613,-5.832,-0.680,17.330,6.648,4.948,12.189,8.494,-6.432,5.733,5.184,1.232,6.495,3.818
Fri Nov 22 20:48:12 2024,25,-18.541,-18.541,-3.567,-3.567,-5.796,-0.732,17.219,6.617,4.908,12.186,8.481,-6.420,5.770,5.240,1.222,6.526,3.852
Fri Nov 22 20:48:12 2024,30,-18.523,-18.523,-3.540,-3.540,-5.758,-0.732,17.152,6.555,4.909,12.149,8.413,-6.416,5.786,5.215,1.212,6.624,3.877
Fri Nov 22 20:48:12 2024,35,-18.477,-18.477,-3.524,-3.524,-5.719,-0.705,17.111,6.479,4.931,12.096,8.319,-6.417,5.791,5.148,1.203,6.752,3.897
Fri Nov 22 20:48:12 2024,40,-18.452,-18.452,-3.505,-3.505,-5.682,-0.696,17.077,6.414,4.928,12.070,8.238,-6.417,5.807,5.096,1.192,6.878,3.920
Fri Nov 22 20:48:12 2024,45,-18.504,-18.504,-3.480,-3.480,-5.656,-0.748,17.068,6.403,4.844,12.140,8.216,-6.412,5.858,5.107,1.182,6.971,3.952
Fri Nov 22 20:48:12 2024,50,-18.550,-18.550,-3.457,-3.457,-5.628,-0.797,17.059,6.389,4.765,12.205,8.193,-6.409,5.907,5.114,1.171,7.064,3.982
Fri Nov 22 20:48:12 2024,55,-18.584,-18.584,-3.439,-3.439,-5.609,-0.833,17.051,6.379,4.707,12.252,8.175,-6.406,5.943,5.119,1.163,7.132,4.005
Fri Nov 22 20:48:12 2024,60,-18.573,-18.573,-3.366,-3.366,-5.581,-0.797,16.988,6.346,4.769,12.138,8.127,-6.373,5.822,5.051,1.110,7.015,3.962
Fri Nov 22 20:48:12 2024,65,-18.570,-18.570,-3.334,-3.334,-5.566,-0.790,16.966,6.323,4.770,12.084,8.083,-6.354,5.801,5.034,1.090,6.998,3.958
Fri Nov 22 20:48:12 2024,70,-18.526,-18.526,-3.361,-3.361,-5.585,-0.767,17.003,6.303,4.753,11.984,8.010,-6.336,5.887,5.085,1.111,7.040,3.983
Fri Nov 22 20:48:12 2024,75,-18.493,-18.493,-3.380,-3.380,-5.598,-0.749,17.028,6.286,4.740,11.903,7.952,-6.321,5.951,5.122,1.125,7.070,4.001
Fri Nov 22 20:48:12 2024,80,-18.465,-18.465,-3.394,-3.394,-5.608,-0.734,17.049,6.272,4.729,11.837,7.905,-6.310,6.002,5.152,1.138,7.094,4.016
Fri Nov 22 20:48:12 2024,85,-18.507,-18.507,-3.266,-3.266,-5.432,-0.834,16.724,6.104,4.603,11.905,7.835,-6.363,5.960,5.105,1.047,7.177,4.056
Fri Nov 22 20:48:12 2024,90,-18.508,-18.508,-3.198,-3.198,-5.339,-0.849,16.561,6.023,4.556,11.853,7.779,-6.377,5.888,5.083,1.018,7.187,4.086
Fri Nov 22 20:48:12 2024,95,-18.498,-18.498,-3.145,-3.145,-5.275,-0.823,16.456,5.989,4.555,11.751,7.744,-6.374,5.754,5.057,1.016,7.140,4.107
Fri Nov 22 20:48:12 2024,100,-18.489,-18.489,-3.104,-3.104,-5.224,-0.802,16.373,5.962,4.555,11.671,7.718,-6.372,5.649,5.036,1.014,7.103,4.124
Fri Nov 22 20:48:12 2024,105,-18.481,-18.481,-3.061,-3.061,-5.172,-0.780,16.288,5.934,4.555,11.588,7.690,-6.370,5.542,5.015,1.012,7.066,4.141
Fri Nov 22 20:48:12 2024,110,-18.510,-18.510,-3.072,-3.072,-5.208,-0.776,16.395,5.918,4.487,11.712,7.676,-6.405,5.626,5.034,1.026,7.281,4.198
Fri Nov 22 20:48:12 2024,115,-18.519,-18.519,-3.062,-3.062,-5.204,-0.767,16.410,5.902,4.458,11.735,7.661,-6.419,5.623,5.035,1.031,7.357,4.228
Fri Nov 22 20:48:12 2024,120,-18.571,-18.571,-2.964,-2.964,-5.110,-0.752,16.255,5.795,4.430,11.685,7.548,-6.455,5.466,4.913,0.950,7.226,4.094
Fri Nov 22 20:48:12 2024,125,-18.603,-18.603,-2.904,-2.904,-5.053,-0.740,16.166,5.728,4.406,11.660,7.478,-6.481,5.373,4.841,0.904,7.166,4.023
Fri Nov 22 20:48:12 2024,130,-18.624,-18.624,-2.864,-2.864,-5.016,-0.733,16.108,5.684,4.391,11.644,7.432,-6.497,5.312,4.794,0.875,7.126,3.976
Fri Nov 22 20:48:12 2024,135,-18.619,-18.619,-2.824,-2.824,-5.032,-0.829,15.950,5.689,4.329,11.521,7.414,-6.554,5.175,4.863,0.827,6.998,4.102
Fri Nov 22 20:48:12 2024,140,-18.635,-18.635,-2.789,-2.789,-5.003,-0.829,15.910,5.654,4.300,11.466,7.369,-6.554,5.111,4.828,0.833,7.015,4.133
Fri Nov 22 20:48:12 2024,145,-18.655,-18.655,-2.755,-2.755,-4.963,-0.805,15.907,5.611,4.274,11.416,7.314,-6.534,5.064,4.766,0.867,7.091,4.164
Fri Nov 22 20:48:12 2024,150,-18.676,-18.676,-2.719,-2.719,-4.921,-0.780,15.903,5.564,4.246,11.361,7.255,-6.512,5.014,4.701,0.902,7.172,4.198
Fri Nov 22 20:48:12 2024,155,-18.694,-18.694,-2.734,-2.734,-4.934,-0.806,16.010,5.635,4.225,11.398,7.293,-6.475,5.063,4.765,0.934,7.059,4.153
Fri Nov 22 20:48:12 2024,160,-18.708,-18.708,-2.742,-2.742,-4.940,-0.824,16.089,5.685,4.208,11.422,7.317,-6.446,5.095,4.808,0.961,6.982,4.122
Fri Nov 22 20:48:12 2024,165,-18.724,-18.724,-2.702,-2.702,-4.908,-0.844,16.088,5.720,4.198,11.432,7.364,-6.432,5.076,4.868,1.000,6.991,4.152
Fri Nov 22 20:48:12 2024,170,-18.738,-18.738,-2.650,-2.650,-4.867,-0.864,16.059,5.744,4.193,11.434,7.411,-6.425,5.042,4.926,1.038,7.029,4.198
Fri Nov 22 20:48:12 2024,175,-18.752,-18.752,-2.599,-2.599,-4.827,-0.882,16.029,5.767,4.187,11.437,7.458,-6.419,5.007,4.983,1.077,7.067,4.246
Fri Nov 22 20:48:12 2024,180,-18.731,-18.731,-2.619,-2.619,-4.835,-0.899,15.886,5.679,4.182,11.413,7.413,-6.464,4.962,4.951,1.030,7.089,4.237
Fri Nov 22 20:48:12 2024,185,-18.714,-18.714,-2.633,-2.633,-4.838,-0.916,15.749,5.598,4.178,11.390,7.376,-6.505,4.917,4.927,0.991,7.114,4.234
Fri Nov 22 20:48:12 2024,190,-18.694,-18.694,-2.653,-2.653,-4.876,-0.897,15.851,5.647,4.162,11.352,7.344,-6.494,4.925,4.918,1.008,7.053,4.202
Fri Nov 22 20:48:12 2024,195,-18.677,-18.677,-2.672,-2.672,-4.917,-0.873,15.986,5.715,4.147,11.315,7.315,-6.473,4.942,4.912,1.034,6.981,4.168
Fri Nov 22 20:48:12 2024,200,-18.658,-18.658,-2.694,-2.694,-4.963,-0.845,16.138,5.791,4.129,11.272,7.284,-6.451,4.962,4.906,1.062,6.900,4.129
Fri Nov 22 20:48:12 2024,205,-18.658,-18.658,-2.668,-2.668,-4.918,-0.807,16.128,5.684,4.154,11.385,7.282,-6.447,4.940,4.828,1.053,6.927,4.086
Fri Nov 22 20:48:12 2024,210,-18.654,-18.654,-2.653,-2.653,-4.895,-0.773,16.148,5.622,4.168,11.455,7.276,-6.441,4.928,4.773,1.051,6.932,4.050
Fri Nov 22 20:48:12 2024,215,-18.686,-18.686,-2.626,-2.626,-4.888,-0.756,16.124,5.640,4.181,11.455,7.294,-6.430,4.867,4.760,1.101,6.891,4.043
Fri Nov 22 20:48:12 2024,220,-18.731,-18.731,-2.597,-2.597,-4.889,-0.747,16.082,5.691,4.195,11.425,7.321,-6.419,4.792,4.765,1.170,6.834,4.049
Fri Nov 22 20:48:12 2024,225,-18.772,-18.772,-2.568,-2.568,-4.888,-0.735,16.047,5.731,4.208,11.406,7.346,-6.408,4.721,4.764,1.233,6.782,4.051
Fri Nov 22 20:48:12 2024,230,-18.766,-18.766,-2.587,-2.587,-4.896,-0.744,16.034,5.731,4.223,11.405,7.362,-6.393,4.731,4.784,1.268,6.786,4.056
Fri Nov 22 20:48:12 2024,235,-18.700,-18.700,-2.678,-2.678,-4.923,-0.781,16.038,5.683,4.253,11.427,7.381,-6.362,4.845,4.843,1.294,6.862,4.069
Fri Nov 22 20:48:12 2024,240,-18.710,-18.710,-2.667,-2.667,-4.918,-0.790,16.019,5.674,4.260,11.419,7.369,-6.340,4.881,4.845,1.303,6.856,4.055
Fri Nov 22 20:48:12 2024,245,-18.736,-18.736,-2.630,-2.630,-4.903,-0.794,15.992,5.668,4.262,11.403,7.341,-6.314,4.919,4.832,1.300,6.837,4.031
Fri Nov 22 20:48:12 2024,250,-18.756,-18.756,-2.604,-2.604,-4.892,-0.800,15.971,5.661,4.265,11.391,7.320,-6.292,4.952,4.825,1.301,6.823,4.012
Fri Nov 22 20:48:12 2024,255,-18.770,-18.770,-2.585,-2.585,-4.884,-0.805,15.955,5.657,4.267,11.382,7.305,-6.276,4.978,4.819,1.301,6.813,3.998
Fri Nov 22 20:48:12 2024,260,-18.761,-18.761,-2.616,-2.616,-4.809,-0.746,16.040,5.870,4.315,11.231,7.490,-6.314,4.796,4.956,1.324,6.682,4.142
Fri Nov 22 20:48:12 2024,265,-18.732,-18.732,-2.680,-2.680,-4.884,-0.704,16.152,5.900,4.342,11.229,7.485,-6.319,4.802,4.928,1.305,6.605,4.055
Fri Nov 22 20:48:12 2024,270,-18.699,-18.699,-2.752,-2.752,-4.973,-0.661,16.276,5.922,4.370,11.234,7.470,-6.324,4.818,4.890,1.282,6.524,3.950
Fri Nov 22 20:48:12 2024,275,-18.671,-18.671,-2.814,-2.814,-5.050,-0.623,16.382,5.940,4.394,11.239,7.458,-6.327,4.831,4.857,1.263,6.456,3.860
Fri Nov 22 20:48:12 2024,280,-18.621,-18.621,-2.900,-2.900,-5.085,-0.659,16.196,5.847,4.376,11.245,7.421,-6.350,4.740,4.755,1.226,6.418,3.780
Fri Nov 22 20:48:12 2024,285,-18.580,-18.580,-2.975,-2.975,-5.131,-0.669,16.111,5.794,4.372,11.250,7.393,-6.367,4.686,4.679,1.197,6.372,3.703
Fri Nov 22 20:48:12 2024,290,-18.585,-18.585,-2.944,-2.944,-5.088,-0.666,16.206,5.837,4.386,11.206,7.406,-6.324,4.790,4.713,1.275,6.486,3.800
Fri Nov 22 20:48:12 2024,295,-18.589,-18.589,-2.918,-2.918,-5.048,-0.663,16.292,5.875,4.400,11.165,7.418,-6.285,4.885,4.742,1.349,6.592,3.889
Fri Nov 22 20:48:12 2024,300,-18.592,-18.592,-2.896,-2.896,-5.015,-0.661,16.362,5.906,4.412,11.131,7.426,-6.254,4.962,4.766,1.409,6.676,3.963
Fri Nov 22 20:48:12 2024,305,-18.531,-18.531,-3.050,-3.050,-5.102,-0.593,16.399,5.946,4.472,10.941,7.432,-6.302,4.744,4.728,1.370,6.567,3.923
Fri Nov 22 20:48:12 2024,310,-18.497,-18.497,-3.133,-3.133,-5.142,-0.554,16.440,5.978,4.509,10.820,7.437,-6.322,4.640,4.712,1.364,6.528,3.921
Fri Nov 22 20:48:12 2024,315,-18.512,-18.512,-3.178,-3.178,-5.189,-0.593,16.445,6.052,4.503,10.924,7.548,-6.325,4.707,4.803,1.379,6.511,3.933
Fri Nov 22 20:48:12 2024,320,-18.524,-18.524,-3.228,-3.228,-5.236,-0.628,16.453,6.125,4.499,11.014,7.653,-6.330,4.764,4.886,1.392,6.492,3.945
Fri Nov 22 20:48:12 2024,325,-18.544,-18.544,-3.257,-3.257,-5.276,-0.652,16.531,6.151,4.503,11.154,7.712,-6.306,4.860,4.916,1.426,6.574,3.961
Fri Nov 22 20:48:12 2024,330,-18.568,-18.568,-3.280,-3.280,-5.312,-0.671,16.630,6.163,4.509,11.310,7.758,-6.274,4.969,4.927,1.465,6.687,3.979
Fri Nov 22 20:48:12 2024,335,-18.590,-18.590,-3.301,-3.301,-5.344,-0.688,16.716,6.173,4.514,11.443,7.796,-6.247,5.062,4.937,1.499,6.784,3.994
Fri Nov 22 20:48:12 2024,340,-18.529,-18.529,-3.345,-3.345,-5.469,-0.668,16.815,6.166,4.575,11.520,7.819,-6.215,5.212,4.953,1.566,6.730,3.910
Fri Nov 22 20:48:12 2024,345,-18.485,-18.485,-3.380,-3.380,-5.566,-0.655,16.898,6.161,4.622,11.590,7.839,-6.188,5.333,4.966,1.619,6.698,3.848
Fri Nov 22 20:48:12 2024,350,-18.441,-18.441,-3.433,-3.433,-5.588,-0.633,16.936,6.164,4.643,11.571,7.826,-6.174,5.346,4.930,1.606,6.659,3.816
Fri Nov 22 20:48:12 2024,355,-18.401,-18.401,-3.486,-3.486,-5.589,-0.611,16.960,6.169,4.656,11.532,7.805,-6.163,5.330,4.884,1.576,6.622,3.796
Fri Nov 22 20:48:12 2024,360,-18.374,-18.374,-3.524,-3.524,-5.586,-0.614,16.953,6.186,4.662,11.505,7.818,-6.154,5.352,4.892,1.562,6.634,3.819
Fri Nov 22 20:48:12 2024,365,-18.383,-18.383,-3.518,-3.518,-5.571,-0.680,16.869,6.235,4.650,11.516,7.919,-6.149,5.469,5.037,1.590,6.776,3.951
Fri Nov 22 20:48:12 2024,370,-18.389,-18.389,-3.514,-3.514,-5.556,-0.740,16.790,6.282,4.639,11.523,8.014,-6.144,5.580,5.174,1.614,6.908,4.077
Fri Nov 22 20:48:12 2024,375,-18.369,-18.369,-3.553,-3.553,-5.656,-0.715,16.946,6.316,4.690,11.634,8.091,-6.143,5.598,5.183,1.640,6.955,4.092
Fri Nov 22 20:48:12 2024,380,-18.349,-18.349,-3.592,-3.592,-5.758,-0.682,17.112,6.344,4.742,11.741,8.157,-6.143,5.604,5.176,1.662,6.986,4.093
Fri Nov 22 20:48:12 2024,385,-18.319,-18.319,-3.648,-3.648,-5.833,-0.655,17.266,6.396,4.789,11.814,8.193,-6.124,5.663,5.156,1.679,6.974,4.054
Fri Nov 22 20:48:12 2024,390,-18.280,-18.280,-3.717,-3.717,-5.885,-0.633,17.405,6.466,4.829,11.857,8.201,-6.089,5.763,5.125,1.691,6.926,3.983
Fri Nov 22 20:48:12 2024,395,-18.244,-18.244,-3.782,-3.782,-5.928,-0.612,17.531,6.534,4.866,11.890,8.204,-6.054,5.862,5.095,1.700,6.876,3.912
Fri Nov 22 20:48:12 2024,400,-18.214,-18.214,-3.838,-3.838,-5.965,-0.596,17.637,6.590,4.896,11.919,8.207,-6.023,5.948,5.069,1.708,6.835,3.852
Fri Nov 22 20:48:12 2024,405,-18.177,-18.177,-3.838,-3.838,-5.941,-0.599,17.410,6.412,4.887,11.927,8.191,-6.069,5.876,5.093,1.599,6.975,3.939
Fri Nov 22 20:48:12 2024,410,-18.173,-18.173,-3.842,-3.842,-5.944,-0.616,17.407,6.416,4.893,11.945,8.223,-6.082,5.869,5.112,1.588,7.037,3.966
Fri Nov 22 20:48:12 2024,415,-18.190,-18.190,-3.830,-3.830,-5.945,-0.654,17.451,6.473,4.898,11.967,8.289,-6.101,5.852,5.149,1.606,7.119,4.007
Fri Nov 22 20:48:12 2024,420,-18.207,-18.207,-3.818,-3.818,-5.946,-0.691,17.492,6.528,4.902,11.988,8.352,-6.120,5.836,5.184,1.624,7.198,4.046
Fri Nov 22 20:48:12 2024,425,-18.195,-18.195,-3.854,-3.854,-5.973,-0.719,17.451,6.466,4.874,12.010,8.312,-6.149,5.824,5.130,1.565,7.132,4.000
Fri Nov 22 20:48:12 2024,430,-18.183,-18.183,-3.892,-3.892,-6.001,-0.748,17.406,6.401,4.844,12.033,8.269,-6.178,5.812,5.073,1.504,7.063,3.951
Fri Nov 22 20:48:12 2024,435,-18.172,-18.172,-3.924,-3.924,-6.025,-0.772,17.368,6.344,4.819,12.052,8.232,-6.203,5.802,5.024,1.452,7.002,3.910
Fri Nov 22 20:48:12 2024,440,-18.173,-18.173,-3.977,-3.977,-6.041,-0.700,17.446,6.381,4.857,12.081,8.228,-6.192,5.803,5.017,1.455,7.023,3.907
Fri Nov 22 20:48:12 2024,445,-18.170,-18.170,-4.020,-4.020,-6.058,-0.665,17.480,6.385,4.872,12.105,8.214,-6.194,5.802,4.996,1.441,7.017,3.893
Fri Nov 22 20:48:12 2024,450,-18.180,-18.180,-3.912,-3.912,-6.014,-0.706,17.415,6.366,4.836,12.072,8.156,-6.228,5.818,4.986,1.438,7.038,3.940
Fri Nov 22 20:48:12 2024,455,-18.190,-18.190,-3.820,-3.820,-5.978,-0.738,17.362,6.351,4.804,12.044,8.104,-6.259,5.833,4.975,1.434,7.055,3.980
Fri Nov 22 20:48:12 2024,460,-18.171,-18.171,-3.816,-3.816,-5.983,-0.771,17.344,6.354,4.785,12.044,8.097,-6.247,5.914,5.022,1.432,7.141,4.039
Fri Nov 22 20:48:12 2024,465,-18.137,-18.137,-3.856,-3.856,-6.010,-0.804,17.345,6.368,4.773,12.058,8.112,-6.212,6.027,5.098,1.432,7.261,4.107
Fri Nov 22 20:48:12 2024,470,-18.104,-18.104,-3.894,-3.894,-6.036,-0.836,17.345,6.381,4.760,12.073,8.128,-6.180,6.140,5.172,1.432,7.378,4.173
Fri Nov 22 20:48:12 2024,475,-18.093,-18.093,-3.872,-3.872,-5.999,-0.797,17.316,6.263,4.722,12.038,8.049,-6.241,6.045,5.094,1.337,7.373,4.092
Fri Nov 22 20:48:12 2024,480,-18.079,-18.079,-3.857,-3.857,-5.968,-0.766,17.290,6.160,4.686,12.009,7.980,-6.292,5.974,5.032,1.254,7.381,4.029
Fri Nov 22 20:48:12 2024,485,-18.065,-18.065,-3.823,-3.823,-5.919,-0.758,17.244,6.096,4.662,11.984,7.928,-6.313,5.928,5.004,1.210,7.392,4.015
Fri Nov 22 20:48:12 2024,490,-18.051,-18.051,-3.767,-3.767,-5.845,-0.777,17.172,6.073,4.650,11.963,7.888,-6.302,5.910,5.015,1.209,7.409,4.058
Fri Nov 22 20:48:12 2024,495,-18.036,-18.036,-3.713,-3.713,-5.773,-0.787,17.103,6.032,4.633,11.938,7.840,-6.301,5.879,5.012,1.190,7.426,4.083
Fri Nov 22 20:48:12 2024,500,-18.076,-18.076,-3.617,-3.617,-5.728,-0.846,16.943,6.002,4.604,11.928,7.851,-6.366,5.791,5.043,1.114,7.451,4.139
Fri Nov 22 20:48:12 2024,505,-18.101,-18.101,-3.542,-3.542,-5.685,-0.888,16.820,5.975,4.582,11.917,7.850,-6.410,5.725,5.064,1.058,7.470,4.182
Fri Nov 22 20:48:12 2024,510,-18.094,-18.094,-3.505,-3.505,-5.630,-0.884,16.794,5.944,4.556,11.851,7.802,-6.367,5.766,5.100,1.085,7.486,4.234
Fri Nov 22 20:48:12 2024,515,-18.082,-18.082,-3.481,-3.481,-5.580,-0.871,16.791,5.916,4.533,11.781,7.751,-6.313,5.824,5.134,1.124,7.499,4.281
Fri Nov 22 20:48:12 2024,520,-18.070,-18.070,-3.459,-3.459,-5.533,-0.859,16.788,5.891,4.512,11.716,7.704,-6.263,5.878,5.165,1.161,7.511,4.325
Fri Nov 22 20:48:12 2024,525,-18.062,-18.062,-3.438,-3.438,-5.560,-0.827,16.722,5.806,4.478,11.709,7.624,-6.251,5.895,5.106,1.152,7.548,4.282
Fri Nov 22 20:48:12 2024,530,-18.055,-18.055,-3.420,-3.420,-5.566,-0.804,16.682,5.748,4.453,11.689,7.566,-6.232,5.918,5.078,1.156,7.572,4.265
Fri Nov 22 20:48:12 2024,535,-18.063,-18.063,-3.381,-3.381,-5.544,-0.797,16.654,5.694,4.452,11.670,7.502,-6.224,5.863,5.020,1.157,7.574,4.252
Fri Nov 22 20:48:12 2024,540,-18.095,-18.095,-3.305,-3.305,-5.483,-0.807,16.638,5.631,4.487,11.645,7.418,-6.227,5.687,4.907,1.157,7.546,4.237
Fri Nov 22 20:48:12 2024,545,-18.112,-18.112,-3.257,-3.257,-5.449,-0.809,16.622,5.586,4.502,11.628,7.360,-6.226,5.589,4.837,1.158,7.533,4.226
Fri Nov 22 20:48:12 2024,550,-18.124,-18.124,-3.221,-3.221,-5.421,-0.811,16.609,5.550,4.514,11.614,7.313,-6.225,5.514,4.783,1.159,7.524,4.217
Fri Nov 22 20:48:12 2024,555,-18.162,-18.162,-3.245,-3.245,-5.429,-1.013,16.557,5.716,4.331,11.731,7.542,-6.338,5.593,5.041,1.168,7.674,4.391
Fri Nov 22 20:48:12 2024,560,-18.150,-18.150,-3.173,-3.173,-5.378,-0.970,16.523,5.626,4.308,11.658,7.432,-6.324,5.629,5.006,1.126,7.556,4.310
Fri Nov 22 20:48:12 2024,565,-18.136,-18.136,-3.110,-3.110,-5.334,-0.924,16.496,5.540,4.296,11.589,7.329,-6.306,5.663,4.968,1.088,7.445,4.230
Fri Nov 22 20:48:12 2024,570,-18.122,-18.122,-3.045,-3.045,-5.288,-0.876,16.467,5.451,4.283,11.516,7.221,-6.287,5.698,4.929,1.050,7.329,4.149
Fri Nov 22 20:48:12 2024,575,-18.155,-18.155,-3.096,-3.096,-5.282,-0.937,16.406,5.463,4.220,11.716,7.313,-6.302,5.517,4.910,1.152,7.663,4.296
Fri Nov 22 20:48:12 2024,580,-18.170,-18.170,-3.107,-3.107,-5.265,-0.960,16.361,5.444,4.178,11.814,7.336,-6.306,5.418,4.887,1.202,7.828,4.359
Fri Nov 22 20:48:12 2024,585,-18.199,-18.199,-3.068,-3.068,-5.204,-0.988,16.308,5.487,4.153,11.814,7.372,-6.345,5.419,4.965,1.069,7.736,4.353
Fri Nov 22 20:48:12 2024,590,-18.219,-18.219,-3.038,-3.038,-5.158,-1.008,16.268,5.518,4.134,11.812,7.398,-6.374,5.422,5.023,0.972,7.664,4.348
Fri Nov 22 20:48:12 2024,595,-18.238,-18.238,-3.011,-3.011,-5.115,-1.028,16.232,5.548,4.118,11.810,7.423,-6.402,5.424,5.079,0.882,7.595,4.343
Fri Nov 22 20:48:12 2024,600,-18.210,-18.210,-2.916,-2.916,-5.167,-0.947,16.458,5.539,4.184,11.897,7.424,-6.364,5.469,5.034,1.000,7.618,4.294
Fri Nov 22 20:48:12 2024,605,-18.198,-18.198,-2.844,-2.844,-5.186,-0.900,16.594,5.544,4.222,11.954,7.434,-6.348,5.499,5.023,1.048,7.610,4.261
Fri Nov 22 20:48:12 2024,610,-18.191,-18.191,-2.871,-2.871,-5.174,-0.920,16.547,5.514,4.181,12.006,7.405,-6.361,5.483,4.982,1.013,7.632,4.217
Fri Nov 22 20:48:12 2024,615,-18.186,-18.186,-2.928,-2.928,-5.151,-0.960,16.444,5.473,4.115,12.062,7.362,-6.383,5.454,4.928,0.950,7.665,4.166
Fri Nov 22 20:48:12 2024,620,-18.186,-18.186,-2.873,-2.873,-5.107,-0.952,16.414,5.506,4.137,12.097,7.394,-6.395,5.484,4.980,0.944,7.643,4.173
Fri Nov 22 20:48:12 2024,625,-18.189,-18.189,-2.791,-2.791,-5.060,-0.932,16.403,5.561,4.184,12.119,7.448,-6.402,5.528,5.063,0.954,7.605,4.200
Fri Nov 22 20:48:12 2024,630,-18.191,-18.191,-2.710,-2.710,-5.013,-0.912,16.391,5.616,4.230,12.139,7.500,-6.409,5.571,5.146,0.964,7.568,4.228
Fri Nov 22 20:48:12 2024,635,-18.207,-18.207,-2.768,-2.768,-5.049,-0.943,16.468,5.569,4.187,12.133,7.463,-6.411,5.537,5.059,0.941,7.555,4.145
Fri Nov 22 20:48:12 2024,640,-18.218,-18.218,-2.792,-2.792,-5.065,-0.961,16.517,5.546,4.165,12.132,7.446,-6.412,5.522,5.014,0.926,7.541,4.095
Fri Nov 22 20:48:12 2024,645,-18.227,-18.227,-2.813,-2.813,-5.077,-0.976,16.557,5.527,4.147,12.131,7.433,-6.414,5.509,4.977,0.915,7.529,4.054
Fri Nov 22 20:48:12 2024,650,-18.244,-18.244,-2.745,-2.745,-5.041,-1.035,16.456,5.461,4.129,12.328,7.421,-6.432,5.550,4.966,0.966,7.551,3.988
Fri Nov 22 20:48:12 2024,655,-18.255,-18.255,-2.719,-2.719,-5.027,-1.070,16.419,5.421,4.113,12.425,7.410,-6.441,5.566,4.948,0.988,7.558,3.941
Fri Nov 22 20:48:12 2024,660,-18.278,-18.278,-2.692,-2.692,-4.988,-1.103,16.364,5.409,4.068,12.450,7.409,-6.439,5.609,4.977,0.991,7.596,3.941
Fri Nov 22 20:48:12 2024,665,-18.335,-18.335,-2.654,-2.654,-4.884,-1.149,16.249,5.438,3.946,12.367,7.421,-6.416,5.718,5.102,0.962,7.710,4.022
Fri Nov 22 20:48:12 2024,670,-18.362,-18.362,-2.625,-2.625,-4.884,-1.127,16.251,5.470,3.981,12.320,7.455,-6.423,5.634,5.140,0.925,7.619,4.042
Fri Nov 22 20:48:12 2024,675,-18.389,-18.389,-2.593,-2.593,-4.892,-1.094,16.264,5.508,4.035,12.266,7.494,-6.432,5.523,5.175,0.882,7.501,4.062
Fri Nov 22 20:48:12 2024,680,-18.409,-18.409,-2.570,-2.570,-4.898,-1.070,16.273,5.537,4.075,12.225,7.524,-6.441,5.438,5.202,0.849,7.409,4.077
Fri Nov 22 20:48:12 2024,685,-18.347,-18.347,-2.627,-2.627,-4.919,-1.098,16.180,5.520,4.024,12.254,7.500,-6.447,5.473,5.171,0.898,7.448,4.099
Fri Nov 22 20:48:12 2024,690,-18.314,-18.314,-2.656,-2.656,-4.933,-1.110,16.127,5.515,4.002,12.262,7.492,-6.452,5.475,5.158,0.920,7.452,4.116
Fri Nov 22 20:48:12 2024,695,-18.346,-18.346,-2.596,-2.596,-4.920,-1.102,16.123,5.478,3.980,12.284,7.415,-6.500,5.390,5.040,0.872,7.387,4.024
Fri Nov 22 20:48:12 2024,700,-18.390,-18.390,-2.518,-2.518,-4.902,-1.090,16.126,5.434,3.958,12.308,7.325,-6.556,5.287,4.900,0.810,7.309,3.912
Fri Nov 22 20:48:12 2024,705,-18.420,-18.420,-2.465,-2.465,-4.890,-1.082,16.129,5.404,3.942,12.325,7.263,-6.594,5.218,4.806,0.770,7.255,3.836
Fri Nov 22 20:48:12 2024,710,-18.426,-18.426,-2.494,-2.494,-4.860,-1.124,16.080,5.450,3.940,12.322,7.402,-6.554,5.251,4.972,0.848,7.290,3.950
Fri Nov 22 20:48:12 2024,715,-18.439,-18.439,-2.498,-2.498,-4.836,-1.150,16.050,5.472,3.935,12.326,7.475,-6.540,5.252,5.053,0.889,7.298,4.002
Fri Nov 22 20:48:12 2024,720,-18.447,-18.447,-2.528,-2.528,-4.832,-1.130,16.121,5.556,3.970,12.257,7.502,-6.506,5.275,5.105,0.922,7.352,4.080
Fri Nov 22 20:48:12 2024,725,-18.454,-18.454,-2.555,-2.555,-4.828,-1.113,16.182,5.630,4.000,12.197,7.527,-6.476,5.295,5.152,0.951,7.397,4.150
Fri Nov 22 20:48:12 2024,730,-18.460,-18.460,-2.580,-2.580,-4.825,-1.097,16.239,5.697,4.028,12.142,7.550,-6.450,5.314,5.194,0.979,7.440,4.214
Fri Nov 22 20:48:12 2024,735,-18.478,-18.478,-2.546,-2.546,-4.905,-1.082,16.256,5.635,4.029,12.187,7.522,-6.458,5.295,5.162,0.985,7.353,4.110
Fri Nov 22 20:48:12 2024,740,-18.490,-18.490,-2.534,-2.534,-4.948,-1.068,16.282,5.619,4.038,12.196,7.513,-6.455,5.290,5.156,0.996,7.316,4.072
Fri Nov 22 20:48:12 2024,745,-18.507,-18.507,-2.490,-2.490,-4.912,-1.057,16.302,5.585,4.045,12.261,7.463,-6.470,5.314,5.067,0.949,7.342,4.021
Fri Nov 22 20:48:12 2024,750,-18.525,-18.525,-2.444,-2.444,-4.879,-1.044,16.324,5.549,4.053,12.327,7.412,-6.484,5.339,4.977,0.902,7.364,3.967
Fri Nov 22 20:48:12 2024,755,-18.539,-18.539,-2.408,-2.408,-4.853,-1.034,16.342,5.522,4.058,12.378,7.372,-6.495,5.358,4.906,0.867,7.381,3.925
Fri Nov 22 20:48:12 2024,760,-18.504,-18.504,-2.472,-2.472,-4.934,-1.066,16.282,5.571,4.064,12.379,7.443,-6.507,5.327,4.976,0.913,7.239,3.913
Fri Nov 22 20:48:12 2024,765,-18.489,-18.489,-2.496,-2.496,-4.971,-1.080,16.254,5.589,4.070,12.399,7.469,-6.517,5.317,4.989,0.926,7.163,3.891
Fri Nov 22 20:48:12 2024,770,-18.493,-18.493,-2.532,-2.532,-4.956,-1.037,16.212,5.559,4.041,12.320,7.473,-6.533,5.198,4.970,0.943,7.229,3.941
Fri Nov 22 20:48:12 2024,775,-18.493,-18.493,-2.559,-2.559,-4.950,-1.010,16.180,5.541,4.023,12.270,7.479,-6.545,5.117,4.959,0.957,7.262,3.972
Fri Nov 22 20:48:12 2024,780,-18.493,-18.493,-2.586,-2.586,-4.945,-0.983,16.148,5.523,4.005,12.219,7.485,-6.557,5.036,4.948,0.970,7.295,4.002
Fri Nov 22 20:48:12 2024,785,-18.475,-18.475,-2.520,-2.520,-4.964,-1.064,16.165,5.539,3.970,12.358,7.446,-6.574,5.211,4.949,0.945,7.404,4.025
Fri Nov 22 20:48:12 2024,790,-18.465,-18.465,-2.494,-2.494,-4.973,-1.098,16.163,5.541,3.945,12.416,7.426,-6.588,5.277,4.945,0.937,7.474,4.048
Fri Nov 22 20:48:12 2024,795,-18.480,-18.480,-2.491,-2.491,-4.947,-1.067,16.128,5.542,3.957,12.308,7.396,-6.574,5.175,4.888,0.907,7.255,3.925
Fri Nov 22 20:48:12 2024,800,-18.491,-18.491,-2.485,-2.485,-4.927,-1.047,16.100,5.544,3.963,12.229,7.370,-6.564,5.102,4.842,0.883,7.088,3.830
Fri Nov 22 20:48:12 2024,805,-18.462,-18.462,-2.506,-2.506,-4.934,-1.051,16.072,5.535,3.969,12.201,7.387,-6.566,5.096,4.868,0.877,7.106,3.851
Fri Nov 22 20:48:12 2024,810,-18.427,-18.427,-2.530,-2.530,-4.946,-1.058,16.042,5.524,3.976,12.179,7.411,-6.570,5.098,4.905,0.874,7.150,3.888
Fri Nov 22 20:48:12 2024,815,-18.394,-18.394,-2.554,-2.554,-4.956,-1.064,16.015,5.513,3.983,12.158,7.433,-6.572,5.101,4.940,0.871,7.191,3.922
Fri Nov 22 20:48:12 2024,820,-18.414,-18.414,-2.547,-2.547,-4.920,-1.067,16.037,5.552,3.981,12.094,7.423,-6.527,5.084,4.902,0.919,7.186,3.900
Fri Nov 22 20:48:12 2024,825,-18.420,-18.420,-2.547,-2.547,-4.898,-1.069,16.046,5.575,3.981,12.048,7.421,-6.497,5.074,4.885,0.950,7.192,3.893
Fri Nov 22 20:48:12 2024,830,-18.425,-18.425,-2.548,-2.548,-4.881,-1.071,16.053,5.594,3.981,12.010,7.419,-6.473,5.065,4.870,0.975,7.196,3.887
Fri Nov 22 20:48:12 2024,835,-18.414,-18.414,-2.572,-2.572,-4.970,-1.092,16.015,5.591,4.001,11.970,7.403,-6.564,5.024,4.875,0.950,7.177,3.889
Fri Nov 22 20:48:12 2024,840,-18.411,-18.411,-2.585,-2.585,-5.007,-1.103,15.999,5.597,4.011,11.936,7.395,-6.599,5.000,4.872,0.948,7.169,3.888
Fri Nov 22 20:48:12 2024,845,-18.418,-18.418,-2.638,-2.638,-5.009,-1.117,16.124,5.625,3.986,12.091,7.424,-6.610,5.076,4.874,0.898,7.246,3.903
Fri Nov 22 20:48:12 2024,850,-18.422,-18.422,-2.682,-2.682,-5.022,-1.131,16.213,5.649,3.970,12.198,7.444,-6.629,5.127,4.874,0.860,7.303,3.915
Fri Nov 22 20:48:12 2024,855,-18.425,-18.425,-2.711,-2.711,-5.031,-1.139,16.269,5.664,3.961,12.266,7.457,-6.640,5.158,4.874,0.836,7.338,3.922
Fri Nov 22 20:48:12 2024,860,-18.434,-18.434,-2.663,-2.663,-5.019,-1.077,16.263,5.672,4.036,12.096,7.406,-6.593,5.098,4.800,0.873,7.342,3.912
Fri Nov 22 20:48:12 2024,865,-18.444,-18.444,-2.637,-2.637,-5.001,-1.070,16.245,5.669,4.048,12.058,7.383,-6.592,5.066,4.767,0.868,7.345,3.911
Fri Nov 22 20:48:12 2024,870,-18.465,-18.465,-2.578,-2.578,-4.949,-1.091,16.155,5.641,4.029,12.027,7.346,-6.615,4.993,4.729,0.845,7.325,3.909
Fri Nov 22 20:48:12 2024,875,-18.483,-18.483,-2.525,-2.525,-4.903,-1.108,16.079,5.618,4.016,11.994,7.312,-6.634,4.928,4.691,0.825,7.310,3.907
Fri Nov 22 20:48:12 2024,880,-18.494,-18.494,-2.529,-2.529,-4.901,-1.107,16.099,5.618,4.009,12.004,7.324,-6.650,4.921,4.704,0.824,7.329,3.927
Fri Nov 22 20:48:12 2024,885,-18.497,-18.497,-2.646,-2.646,-4.982,-1.071,16.311,5.665,4.011,12.100,7.429,-6.663,5.024,4.816,0.857,7.423,3.995
Fri Nov 22 20:48:12 2024,890,-18.502,-18.502,-2.692,-2.692,-5.011,-1.058,16.396,5.682,4.009,12.139,7.472,-6.674,5.059,4.861,0.869,7.464,4.028
Fri Nov 22 20:48:12 2024,895,-18.462,-18.462,-2.641,-2.641,-4.992,-1.066,16.346,5.632,4.042,12.066,7.395,-6.620,5.171,4.866,0.852,7.546,4.063
Fri Nov 22 20:48:12 2024,900,-18.441,-18.441,-2.624,-2.624,-4.989,-1.068,16.340,5.608,4.062,12.032,7.361,-6.592,5.246,4.880,0.845,7.605,4.093
Fri Nov 22 20:48:12 2024,905,-18.441,-18.441,-2.631,-2.631,-5.006,-1.048,16.355,5.612,4.076,12.013,7.375,-6.583,5.236,4.880,0.874,7.602,4.100
Fri Nov 22 20:48:12 2024,910,-18.463,-18.463,-2.663,-2.663,-5.046,-1.007,16.390,5.645,4.089,12.005,7.435,-6.592,5.144,4.869,0.937,7.538,4.084
Fri Nov 22 20:48:12 2024,915,-18.473,-18.473,-2.680,-2.680,-5.071,-0.979,16.412,5.662,4.102,11.991,7.466,-6.592,5.101,4.863,0.978,7.509,4.081
Fri Nov 22 20:48:12 2024,920,-18.470,-18.470,-2.657,-2.657,-5.018,-0.981,16.434,5.701,4.101,11.952,7.448,-6.603,5.151,4.924,0.894,7.518,4.154
Fri Nov 22 20:48:12 2024,925,-18.472,-18.472,-2.647,-2.647,-4.996,-0.977,16.448,5.714,4.098,11.930,7.444,-6.614,5.162,4.950,0.858,7.507,4.181
Fri Nov 22 20:48:12 2024,930,-18.476,-18.476,-2.626,-2.626,-4.985,-0.995,16.426,5.648,4.070,11.944,7.421,-6.638,5.152,4.928,0.833,7.476,4.123
Fri Nov 22 20:48:12 2024,935,-18.479,-18.479,-2.610,-2.610,-4.976,-1.010,16.409,5.597,4.048,11.955,7.404,-6.657,5.145,4.912,0.815,7.451,4.080
Fri Nov 22 20:48:12 2024,940,-18.483,-18.483,-2.596,-2.596,-4.969,-1.022,16.394,5.552,4.029,11.963,7.388,-6.673,5.139,4.898,0.798,7.430,4.042
Fri Nov 22 20:48:12 2024,945,-18.523,-18.523,-2.578,-2.578,-4.967,-0.979,16.438,5.590,4.088,11.987,7.355,-6.645,5.152,4.853,0.758,7.452,4.050
Fri Nov 22 20:48:12 2024,950,-18.545,-18.545,-2.564,-2.564,-4.964,-0.961,16.457,5.595,4.113,12.002,7.333,-6.636,5.157,4.824,0.732,7.456,4.042
Fri Nov 22 20:48:12 2024,955,-18.544,-18.544,-2.555,-2.555,-4.942,-0.992,16.459,5.613,4.089,12.027,7.379,-6.645,5.175,4.870,0.742,7.437,4.062
Fri Nov 22 20:48:12 2024,960,-18.539,-18.539,-2.548,-2.548,-4.917,-1.030,16.458,5.632,4.056,12.054,7.435,-6.656,5.194,4.927,0.758,7.414,4.086
Fri Nov 22 20:48:12 2024,965,-18.540,-18.540,-2.541,-2.541,-4.900,-1.053,16.458,5.646,4.039,12.074,7.470,-6.663,5.207,4.960,0.766,7.400,4.102
Fri Nov 22 20:48:12 2024,970,-18.536,-18.536,-2.554,-2.554,-5.004,-1.049,16.472,5.574,4.015,12.232,7.448,-6.644,5.316,4.954,0.801,7.527,4.062
Fri Nov 22 20:48:12 2024,975,-18.534,-18.534,-2.558,-2.558,-5.049,-1.055,16.478,5.543,3.998,12.318,7.448,-6.637,5.374,4.964,0.821,7.584,4.048
Fri Nov 22 20:48:12 2024,980,-18.547,-18.547,-2.555,-2.555,-4.967,-1.078,16.435,5.497,3.984,12.332,7.425,-6.653,5.333,4.914,0.786,7.654,4.053
Fri Nov 22 20:48:12 2024,985,-18.554,-18.554,-2.553,-2.553,-4.929,-1.093,16.412,5.466,3.973,12.356,7.412,-6.660,5.320,4.888,0.771,7.704,4.054
Fri Nov 22 20:48:12 2024,990,-18.560,-18.560,-2.551,-2.551,-4.891,-1.107,16.390,5.435,3.963,12.379,7.399,-6.668,5.307,4.862,0.755,7.752,4.055
Fri Nov 22 20:48:12 2024,995,-18.579,-18.579,-2.459,-2.459,-4.847,-1.064,16.244,5.381,3.978,12.259,7.305,-6.632,5.211,4.796,0.764,7.575,3.960
Fri Nov 22 20:48:13 2024,0,-18.589,-18.589,-2.419,-2.419,-4.815,-1.051,16.173,5.347,3.981,12.214,7.260,-6.619,5.165,4.760,0.762,7.515,3.920
Fri Nov 22 20:48:13 2024,5,-18.598,-18.598,-2.458,-2.458,-4.892,-1.079,16.208,5.373,3.931,12.340,7.326,-6.664,5.203,4.826,0.801,7.566,3.948
Fri Nov 22 20:48:13 2024,10,-18.605,-18.605,-2.475,-2.475,-4.934,-1.094,16.216,5.382,3.901,12.412,7.360,-6.690,5.218,4.860,0.826,7.586,3.958
Fri Nov 22 20:48:13 2024,15,-18.640,-18.640,-2.445,-2.445,-4.865,-1.110,16.105,5.449,3.895,12.276,7.393,-6.698,5.100,4.922,0.758,7.407,3.957
Fri Nov 22 20:48:13 2024,20,-18.669,-18.669,-2.419,-2.419,-4.806,-1.122,16.014,5.502,3.893,12.159,7.416,-6.701,5.003,4.970,0.703,7.261,3.955
Fri Nov 22 20:48:13 2024,25,-18.693,-18.693,-2.397,-2.397,-4.755,-1.132,15.935,5.548,3.891,12.058,7.437,-6.704,4.919,5.011,0.658,7.134,3.954
Fri Nov 22 20:48:13 2024,30,-18.680,-18.680,-2.406,-2.406,-4.830,-1.131,16.096,5.574,3.932,12.186,7.442,-6.639,5.024,5.017,0.763,7.307,4.004
Fri Nov 22 20:48:13 2024,35,-18.678,-18.678,-2.405,-2.405,-4.866,-1.133,16.183,5.604,3.959,12.244,7.452,-6.596,5.071,5.033,0.825,7.389,4.038
Fri Nov 22 20:48:13 2024,40,-18.672,-18.672,-2.396,-2.396,-4.855,-1.138,16.196,5.608,3.976,12.289,7.460,-6.588,5.064,5.028,0.826,7.411,4.034
Fri Nov 22 20:48:13 2024,45,-18.664,-18.664,-2.376,-2.376,-4.804,-1.146,16.158,5.591,3.992,12.340,7.468,-6.602,5.015,5.003,0.782,7.396,3.998
Fri Nov 22 20:48:13 2024,50,-18.658,-18.658,-2.364,-2.364,-4.780,-1.151,16.151,5.586,4.006,12.380,7.476,-6.604,4.994,4.991,0.766,7.400,3.982
Fri Nov 22 20:48:13 2024,55,-18.654,-18.654,-2.383,-2.383,-4.747,-1.184,16.036,5.614,3.920,12.224,7.446,-6.642,5.002,5.052,0.782,7.314,3.993
Fri Nov 22 20:48:13 2024,60,-18.650,-18.650,-2.390,-2.390,-4.722,-1.204,15.972,5.627,3.877,12.149,7.433,-6.664,5.001,5.081,0.787,7.268,3.994
Fri Nov 22 20:48:13 2024,65,-18.703,-18.703,-2.324,-2.324,-4.702,-1.219,15.943,5.611,3.883,12.073,7.335,-6.712,4.857,4.976,0.695,7.162,3.910
Fri Nov 22 20:48:13 2024,70,-18.742,-18.742,-2.276,-2.276,-4.684,-1.232,15.918,5.601,3.883,12.010,7.260,-6.749,4.748,4.900,0.630,7.078,3.847
Fri Nov 22 20:48:13 2024,75,-18.775,-18.775,-2.236,-2.236,-4.671,-1.243,15.896,5.593,3.885,11.958,7.198,-6.781,4.656,4.835,0.579,7.007,3.795
Fri Nov 22 20:48:13 2024,80,-18.787,-18.787,-2.218,-2.218,-4.684,-1.228,15.905,5.595,3.939,12.000,7.207,-6.749,4.666,4.814,0.606,6.987,3.766
Fri Nov 22 20:48:13 2024,85,-18.782,-18.782,-2.222,-2.222,-4.742,-1.172,15.958,5.611,4.092,12.187,7.315,-6.616,4.815,4.838,0.748,7.024,3.754
Fri Nov 22 20:48:13 2024,90,-18.790,-18.790,-2.164,-2.164,-4.707,-1.197,15.914,5.617,4.090,12.204,7.318,-6.646,4.774,4.822,0.733,7.018,3.752
Fri Nov 22 20:48:13 2024,95,-18.801,-18.801,-2.017,-2.017,-4.576,-1.302,15.761,5.625,3.990,12.169,7.288,-6.800,4.612,4.794,0.625,7.014,3.783
Fri Nov 22 20:48:13 2024,100,-18.810,-18.810,-1.938,-1.938,-4.515,-1.350,15.686,5.631,3.958,12.167,7.280,-6.866,4.537,4.776,0.586,7.008,3.792
Fri Nov 22 20:48:13 2024,105,-18.897,-18.897,-1.865,-1.865,-4.435,-1.361,15.577,5.699,3.924,12.165,7.345,-6.841,4.636,4.867,0.584,6.858,3.752
Fri Nov 22 20:48:13 2024,110,-18.944,-18.944,-1.801,-1.801,-4.374,-1.382,15.497,5.735,3.896,12.164,7.376,-6.851,4.660,4.907,0.571,6.781,3.735
Fri Nov 22 20:48:13 2024,115,-18.923,-18.923,-1.840,-1.840,-4.430,-1.387,15.549,5.757,3.969,12.136,7.348,-6.850,4.500,4.787,0.588,6.828,3.713
Fri Nov 22 20:48:13 2024,120,-18.917,-18.917,-1.856,-1.856,-4.459,-1.394,15.572,5.780,4.016,12.114,7.334,-6.851,4.388,4.709,0.597,6.847,3.694
Fri Nov 22 20:48:13 2024,125,-18.912,-18.912,-1.867,-1.867,-4.481,-1.400,15.589,5.798,4.053,12.098,7.323,-6.852,4.300,4.648,0.605,6.861,3.679
Fri Nov 22 20:48:13 2024,130,-18.945,-18.945,-1.813,-1.813,-4.437,-1.386,15.512,5.689,3.985,12.167,7.267,-6.880,4.393,4.667,0.533,6.745,3.616
Fri Nov 22 20:48:13 2024,135,-18.956,-18.956,-1.796,-1.796,-4.426,-1.383,15.487,5.652,3.970,12.189,7.242,-6.892,4.402,4.656,0.511,6.704,3.586
Fri Nov 22 20:48:13 2024,140,-18.965,-18.965,-1.781,-1.781,-4.417,-1.380,15.468,5.622,3.958,12.207,7.222,-6.901,4.410,4.647,0.494,6.670,3.563
Fri Nov 22 20:48:13 2024,145,-19.042,-19.042,-1.672,-1.672,-4.360,-1.509,15.409,5.731,3.897,12.280,7.291,-6.922,4.407,4.660,0.517,6.653,3.590
Fri Nov 22 20:48:13 2024,150,-19.070,-19.070,-1.630,-1.630,-4.338,-1.548,15.382,5.752,3.872,12.311,7.304,-6.932,4.409,4.661,0.516,6.634,3.588
Fri Nov 22 20:48:13 2024,155,-19.083,-19.083,-1.611,-1.611,-4.327,-1.567,15.369,5.761,3.860,12.327,7.310,-6.937,4.411,4.661,0.516,6.624,3.588
Fri Nov 22 20:48:13 2024,160,-19.086,-19.086,-1.603,-1.603,-4.322,-1.574,15.364,5.765,3.854,12.332,7.312,-6.939,4.412,4.661,0.516,6.620,3.587
Fri Nov 22 20:48:13 2024,165,-19.090,-19.090,-1.550,-1.550,-4.277,-1.535,15.288,5.733,3.937,12.217,7.269,-6.960,4.255,4.547,0.524,6.609,3.564
Fri Nov 22 20:48:13 2024,170,-19.101,-19.101,-1.519,-1.519,-4.256,-1.541,15.256,5.733,3.948,12.200,7.263,-6.970,4.216,4.518,0.525,6.597,3.558
Fri Nov 22 20:48:13 2024,175,-19.110,-19.110,-1.496,-1.496,-4.240,-1.545,15.233,5.733,3.956,12.187,7.259,-6.978,4.187,4.496,0.526,6.589,3.553
Fri Nov 22 20:48:13 2024,180,-19.184,-19.184,-1.440,-1.440,-4.147,-1.547,15.336,5.764,3.925,12.274,7.323,-6.943,4.386,4.650,0.528,6.908,3.718
Fri Nov 22 20:48:13 2024,185,-19.204,-19.204,-1.428,-1.428,-4.140,-1.546,15.382,5.783,3.925,12.294,7.344,-6.924,4.430,4.678,0.528,6.980,3.743
Fri Nov 22 20:48:13 2024,190,-19.188,-19.188,-1.458,-1.458,-4.210,-1.535,15.432,5.806,3.942,12.284,7.349,-6.899,4.402,4.645,0.528,6.910,3.680
Fri Nov 22 20:48:13 2024,195,-19.179,-19.179,-1.479,-1.479,-4.262,-1.527,15.480,5.826,3.956,12.280,7.356,-6.876,4.389,4.624,0.529,6.869,3.636
Fri Nov 22 20:48:13 2024,200,-19.208,-19.208,-1.444,-1.444,-4.217,-1.576,15.396,5.822,3.907,12.322,7.360,-6.925,4.391,4.654,0.502,6.829,3.636
Fri Nov 22 20:48:13 2024,205,-19.254,-19.254,-1.387,-1.387,-4.132,-1.649,15.258,5.807,3.831,12.382,7.363,-7.003,4.398,4.703,0.468,6.784,3.652
Fri Nov 22 20:48:13 2024,210,-19.279,-19.279,-1.356,-1.356,-4.088,-1.691,15.181,5.801,3.788,12.417,7.365,-7.047,4.401,4.731,0.452,6.754,3.657
Fri Nov 22 20:48:13 2024,215,-19.263,-19.263,-1.332,-1.332,-4.091,-1.578,15.266,5.754,3.883,12.416,7.312,-6.982,4.426,4.619,0.487,6.772,3.584
Fri Nov 22 20:48:13 2024,220,-19.264,-19.264,-1.310,-1.310,-4.076,-1.538,15.281,5.728,3.914,12.426,7.286,-6.965,4.440,4.575,0.499,6.770,3.550
Fri Nov 22 20:48:13 2024,225,-19.300,-19.300,-1.207,-1.207,-3.981,-1.518,15.137,5.600,3.883,12.272,7.152,-7.041,4.188,4.440,0.490,6.696,3.544
Fri Nov 22 20:48:13 2024,230,-19.326,-19.326,-1.132,-1.132,-3.913,-1.498,15.040,5.507,3.867,12.167,7.056,-7.091,4.017,4.339,0.485,6.645,3.533
Fri Nov 22 20:48:13 2024,235,-19.348,-19.348,-1.139,-1.139,-3.873,-1.557,14.997,5.511,3.836,12.177,7.061,-7.126,4.016,4.328,0.472,6.612,3.491
Fri Nov 22 20:48:13 2024,240,-19.364,-19.364,-1.156,-1.156,-3.845,-1.616,14.971,5.528,3.808,12.204,7.082,-7.152,4.041,4.332,0.462,6.588,3.454
Fri Nov 22 20:48:13 2024,245,-19.380,-19.380,-1.174,-1.174,-3.818,-1.673,14.945,5.545,3.782,12.230,7.102,-7.176,4.066,4.337,0.453,6.566,3.417
Fri Nov 22 20:48:13 2024,250,-19.384,-19.384,-1.147,-1.147,-3.832,-1.655,15.052,5.641,3.742,12.180,7.118,-7.161,4.135,4.424,0.468,6.568,3.508
Fri Nov 22 20:48:13 2024,255,-19.390,-19.390,-1.136,-1.136,-3.834,-1.661,15.110,5.706,3.710,12.157,7.133,-7.159,4.184,4.479,0.476,6.562,3.556
Fri Nov 22 20:48:13 2024,260,-19.450,-19.450,-1.036,-1.036,-3.804,-1.656,15.158,5.780,3.684,12.218,7.129,-7.205,4.138,4.411,0.465,6.540,3.500
Fri Nov 22 20:48:13 2024,265,-19.499,-19.499,-0.955,-0.955,-3.781,-1.651,15.198,5.840,3.662,12.266,7.126,-7.242,4.103,4.357,0.458,6.523,3.457
Fri Nov 22 20:48:13 2024,270,-19.540,-19.540,-0.885,-0.885,-3.760,-1.648,15.232,5.892,3.644,12.307,7.123,-7.273,4.072,4.311,0.452,6.508,3.421
Fri Nov 22 20:48:13 2024,275,-19.501,-19.501,-0.844,-0.844,-3.729,-1.748,15.057,5.769,3.586,12.304,7.030,-7.301,4.069,4.244,0.436,6.381,3.339
Fri Nov 22 20:48:13 2024,280,-19.494,-19.494,-0.794,-0.794,-3.704,-1.804,14.972,5.719,3.547,12.319,6.977,-7.328,4.055,4.188,-0.444,6.304,3.280
Fri Nov 22 20:48:13 2024,285,-19.486,-19.486,-0.749,-0.749,-3.666,-1.691,15.095,5.757,3.604,12.290,7.016,-7.251,4.144,4.228,0.438,6.439,3.300
Fri Nov 22 20:48:13 2024,290,-19.478,-19.478,-0.712,-0.712,-3.636,-1.629,15.159,5.772,3.634,12.273,7.032,-7.206,4.198,4.243,0.451,6.512,3.303
Fri Nov 22 20:48:13 2024,295,-19.483,-19.483,-0.644,-0.644,-3.584,-1.621,15.168,5.758,3.614,12.272,7.007,-7.220,4.211,4.225,0.450,6.499,3.286
Fri Nov 22 20:48:13 2024,300,-19.495,-19.495,-0.577,-0.577,-3.530,-1.651,15.139,5.726,3.566,12.281,6.961,-7.269,4.191,4.190,0.438,6.430,3.260
Fri Nov 22 20:48:13 2024,305,-19.502,-19.502,-0.522,-0.522,-3.486,-1.667,15.123,5.704,3.533,12.286,6.928,-7.302,4.182,4.165,0.435,6.387,3.241
Fri Nov 22 20:48:13 2024,310,-19.492,-19.492,-0.547,-0.547,-3.507,-1.681,15.132,5.840,3.558,12.281,7.091,-7.307,4.163,4.307,0.453,6.492,3.374
Fri Nov 22 20:48:13 2024,315,-19.488,-19.488,-0.549,-0.549,-3.508,-1.692,15.134,5.916,3.564,12.280,7.180,-7.318,4.150,4.385,0.472,6.543,3.450
Fri Nov 22 20:48:13 2024,320,-19.506,-19.506,-0.494,-0.494,-3.441,-1.735,15.055,5.966,3.521,12.326,7.238,-7.340,4.165,4.459,0.479,6.592,3.532
Fri Nov 22 20:48:13 2024,325,-19.529,-19.529,-0.425,-0.425,-3.357,-1.782,14.957,5.998,3.465,12.383,7.276,-7.364,4.189,4.522,0.479,6.632,3.606
Fri Nov 22 20:48:13 2024,330,-19.532,-19.532,-0.382,-0.382,-3.294,-1.796,14.950,6.026,3.440,12.409,7.272,-7.377,4.222,4.520,0.482,6.716,3.620
Fri Nov 22 20:48:13 2024,335,-19.513,-19.513,-0.358,-0.358,-3.243,-1.774,15.034,6.040,3.444,12.405,7.206,-7.379,4.270,4.436,0.484,6.846,3.561
Fri Nov 22 20:48:13 2024,340,-19.499,-19.499,-0.330,-0.330,-3.184,-1.763,15.095,6.059,3.440,12.410,7.156,-7.385,4.317,4.373,0.489,6.971,3.523
Fri Nov 22 20:48:13 2024,345,-19.484,-19.484,-0.328,-0.328,-3.225,-1.702,15.189,6.091,3.454,12.404,7.134,-7.378,4.403,4.376,0.486,6.916,3.478
Fri Nov 22 20:48:13 2024,350,-19.471,-19.471,-0.323,-0.323,-3.241,-1.661,15.259,6.115,3.462,12.401,7.112,-7.376,4.465,4.366,0.484,6.903,3.443
Fri Nov 22 20:48:13 2024,355,-19.461,-19.461,-0.326,-0.326,-3.242,-1.641,15.250,6.123,3.463,12.450,7.167,-7.398,4.428,4.369,0.484,6.842,3.426
Fri Nov 22 20:48:13 2024,360,-19.456,-19.456,-0.328,-0.328,-3.241,-1.631,15.234,6.126,3.463,12.489,7.214,-7.416,4.389,4.372,0.485,6.795,3.417
Fri Nov 22 20:48:13 2024,365,-19.449,-19.449,-0.332,-0.332,-3.239,-1.620,15.214,6.129,3.462,12.536,7.268,-7.438,4.343,4.376,0.485,6.740,3.407
Fri Nov 22 20:48:13 2024,370,-19.439,-19.439,-0.300,-0.300,-3.247,-1.560,15.560,6.182,3.498,12.700,7.235,-7.363,4.503,4.341,0.552,6.942,3.400
Fri Nov 22 20:48:13 2024,375,-19.423,-19.423,-0.292,-0.292,-3.254,-1.521,15.711,6.203,3.525,12.780,7.230,-7.328,4.566,4.325,0.590,7.019,3.391
Fri Nov 22 20:48:13 2024,380,-19.382,-19.382,-0.321,-0.321,-3.275,-1.486,15.635,6.174,3.570,12.726,7.230,-7.316,4.532,4.324,0.584,6.959,3.371
Fri Nov 22 20:48:13 2024,385,-19.340,-19.340,-0.355,-0.355,-3.295,-1.452,15.545,6.143,3.615,12.664,7.231,-7.306,4.493,4.324,0.575,6.894,3.351
Fri Nov 22 20:48:13 2024,390,-19.316,-19.316,-0.364,-0.364,-3.288,-1.434,15.518,6.140,3.633,12.654,7.254,-7.302,4.503,4.348,0.567,6.868,3.354
Fri Nov 22 20:48:13 2024,395,-19.322,-19.322,-0.330,-0.330,-3.238,-1.441,15.590,6.180,3.609,12.723,7.310,-7.308,4.588,4.408,0.562,6.906,3.390
Fri Nov 22 20:48:13 2024,400,-19.319,-19.319,-0.310,-0.310,-3.203,-1.442,15.632,6.206,3.597,12.766,7.354,-7.310,4.648,4.456,0.557,6.926,3.415
Fri Nov 22 20:48:13 2024,405,-19.315,-19.315,-0.245,-0.245,-3.178,-1.395,15.687,6.171,3.622,12.752,7.321,-7.256,4.688,4.412,0.560,6.905,3.365
Fri Nov 22 20:48:13 2024,410,-19.311,-19.311,-0.209,-0.209,-3.156,-1.365,15.730,6.153,3.636,12.751,7.307,-7.221,4.725,4.393,0.560,6.896,3.338
Fri Nov 22 20:48:13 2024,415,-19.310,-19.310,-0.201,-0.072,-3.127,-1.349,15.696,6.171,3.629,12.681,7.339,-7.235,4.660,4.417,0.558,6.798,3.352
Fri Nov 22 20:48:13 2024,420,-19.312,-19.312,-0.203,0.203,-3.093,-1.340,15.605,6.213,3.607,12.560,7.404,-7.286,4.520,4.474,0.554,6.635,3.397
Fri Nov 22 20:48:13 2024,425,-19.312,-19.312,-0.202,0.202,-3.072,-1.332,15.558,6.236,3.596,12.490,7.440,-7.310,4.446,4.504,0.554,6.542,3.419
Fri Nov 22 20:48:13 2024,430,-19.307,-19.307,-0.180,0.180,-3.031,-1.375,15.642,6.132,3.554,12.580,7.348,-7.282,4.559,4.444,0.525,6.826,3.445
Fri Nov 22 20:48:13 2024,435,-19.304,-19.304,-0.171,0.171,-3.001,-1.400,15.680,6.074,3.526,12.615,7.302,-7.272,4.608,4.416,0.508,6.974,3.468
Fri Nov 22 20:48:13 2024,440,-19.302,-19.302,-0.198,0.198,-2.902,-1.324,15.550,5.956,3.567,12.460,7.204,-7.234,4.522,4.335,0.487,6.784,3.391
Fri Nov 22 20:48:13 2024,445,-19.301,-19.301,-0.251,0.251,-2.806,-1.252,15.423,5.842,3.606,12.312,7.109,-7.196,4.440,4.257,0.473,6.606,3.318
Fri Nov 22 20:48:13 2024,450,-19.294,-19.294,-0.250,0.250,-2.809,-1.211,15.457,5.777,3.629,12.342,7.096,-7.159,4.400,4.230,0.497,6.593,3.312
Fri Nov 22 20:48:13 2024,455,-19.287,-19.287,-0.234,0.234,-2.839,-1.182,15.533,5.735,3.646,12.416,7.108,-7.125,4.377,4.219,0.535,6.628,3.323
Fri Nov 22 20:48:13 2024,460,-19.280,-19.280,-0.217,0.217,-2.873,-1.150,15.617,5.688,3.665,12.499,7.122,-7.087,4.351,4.207,0.585,6.666,3.337
Fri Nov 22 20:48:13 2024,465,-19.244,-19.244,-0.182,0.182,-2.871,-1.135,15.514,5.664,3.680,12.384,7.096,-6.986,4.454,4.267,0.571,6.687,3.357
Fri Nov 22 20:48:13 2024,470,-19.217,-19.217,-0.153,0.153,-2.878,-1.117,15.455,5.637,3.694,12.314,7.079,-6.904,4.525,4.308,0.572,6.710,3.374
Fri Nov 22 20:48:13 2024,475,-19.190,-19.190,-0.152,0.152,-2.870,-1.114,15.503,5.619,3.714,12.278,7.050,-6.888,4.522,4.328,0.537,6.772,3.435
Fri Nov 22 20:48:13 2024,480,-19.165,-19.165,-0.154,0.154,-2.861,-1.112,15.558,5.604,3.735,12.245,7.020,-6.878,4.512,4.343,0.502,6.834,3.497
Fri Nov 22 20:48:13 2024,485,-19.142,-19.142,-0.158,0.158,-2.854,-1.110,15.606,5.589,3.753,12.216,6.994,-6.870,4.504,4.358,0.474,6.890,3.552
Fri Nov 22 20:48:13 2024,490,-19.012,-19.012,-0.169,-0.169,-3.047,-1.054,15.557,5.516,3.814,12.329,6.980,-6.799,4.570,4.312,0.556,7.043,3.547
Fri Nov 22 20:48:13 2024,495,-18.934,-18.934,-0.278,-0.278,-3.155,-1.022,15.539,5.471,3.852,12.386,6.967,-6.758,4.604,4.290,0.603,7.140,3.556
Fri Nov 22 20:48:13 2024,500,-18.856,-18.856,-0.339,-0.339,-3.199,-0.967,15.596,5.423,3.883,12.336,6.976,-6.679,4.641,4.339,0.607,7.202,3.591
Fri Nov 22 20:48:13 2024,505,-18.788,-18.788,-0.394,-0.394,-3.238,-0.920,15.646,5.381,3.910,12.292,6.985,-6.610,4.673,4.381,0.611,7.255,3.621
Fri Nov 22 20:48:13 2024,510,-18.732,-18.732,-0.481,-0.481,-3.290,-0.892,15.707,5.361,3.914,12.270,7.000,-6.579,4.684,4.402,0.617,7.278,3.628
Fri Nov 22 20:48:13 2024,515,-18.692,-18.692,-0.600,-0.600,-3.357,-0.887,15.780,5.368,3.892,12.275,7.021,-6.595,4.667,4.399,0.628,7.262,3.606
Fri Nov 22 20:48:13 2024,520,-18.648,-18.648,-0.709,-0.709,-3.418,-0.874,15.849,5.367,3.878,12.271,7.040,-6.596,4.659,4.404,0.637,7.258,3.594
Fri Nov 22 20:48:13 2024,525,-18.595,-18.595,-0.742,-0.742,-3.515,-0.772,15.962,5.329,3.918,12.407,7.018,-6.520,4.818,4.400,0.672,7.398,3.606
Fri Nov 22 20:48:13 2024,530,-18.558,-18.558,-0.775,-0.775,-3.581,-0.707,16.038,5.306,3.940,12.487,7.007,-6.474,4.912,4.397,0.694,7.482,3.613
Fri Nov 22 20:48:13 2024,535,-18.573,-18.573,-0.717,-0.717,-3.544,-0.717,16.042,5.316,3.934,12.462,6.990,-6.470,4.882,4.393,0.685,7.537,3.644
Fri Nov 22 20:48:13 2024,540,-18.598,-18.598,-0.642,-0.642,-3.488,-0.740,16.035,5.333,3.923,12.417,6.971,-6.472,4.829,4.388,0.671,7.587,3.681
Fri Nov 22 20:48:13 2024,545,-18.614,-18.614,-0.613,-0.613,-3.457,-0.768,16.018,5.355,3.910,12.368,6.969,-6.486,4.800,4.407,0.662,7.602,3.715
Fri Nov 22 20:48:13 2024,550,-18.609,-18.609,-0.708,-0.708,-3.484,-0.818,15.972,5.398,3.886,12.287,7.018,-6.534,4.827,4.501,0.670,7.526,3.753
Fri Nov 22 20:48:13 2024,555,-18.609,-18.609,-0.776,-0.776,-3.498,-0.864,15.932,5.436,3.864,12.212,7.055,-6.575,4.842,4.579,0.674,7.470,3.790
Fri Nov 22 20:48:13 2024,560,-18.578,-18.578,-0.789,-0.789,-3.585,-0.808,16.033,5.433,3.877,12.314,7.058,-6.533,4.861,4.564,0.692,7.477,3.766
Fri Nov 22 20:48:13 2024,565,-18.554,-18.554,-0.806,-0.806,-3.652,-0.770,16.107,5.434,3.885,12.384,7.063,-6.504,4.876,4.559,0.706,7.477,3.750
Fri Nov 22 20:48:13 2024,570,-18.538,-18.538,-0.808,-0.808,-3.688,-0.751,16.144,5.421,3.893,12.435,7.050,-6.481,4.888,4.534,0.735,7.485,3.726
Fri Nov 22 20:48:13 2024,575,-18.526,-18.526,-0.792,-0.792,-3.684,-0.757,16.133,5.381,3.904,12.469,7.003,-6.461,4.898,4.468,0.795,7.506,3.679
Fri Nov 22 20:48:13 2024,580,-18.516,-18.516,-0.783,-0.783,-3.692,-0.756,16.137,5.355,3.913,12.502,6.974,-6.443,4.907,4.424,0.836,7.520,3.646
Fri Nov 22 20:48:13 2024,585,-18.514,-18.514,-0.834,-0.834,-3.720,-0.730,16.136,5.350,3.900,12.410,6.954,-6.498,4.800,4.384,0.742,7.451,3.633
Fri Nov 22 20:48:13 2024,590,-18.513,-18.513,-0.869,-0.869,-3.740,-0.712,16.136,5.343,3.891,12.350,6.934,-6.534,4.726,4.350,0.685,7.405,3.618
Fri Nov 22 20:48:13 2024,595,-18.555,-18.555,-0.849,-0.849,-3.715,-0.744,16.138,5.372,3.908,12.374,6.947,-6.516,4.676,4.346,0.699,7.445,3.674
Fri Nov 22 20:48:13 2024,600,-18.590,-18.590,-0.831,-0.831,-3.695,-0.771,16.138,5.395,3.922,12.396,6.958,-6.500,4.640,4.345,0.714,7.481,3.720
Fri Nov 22 20:48:13 2024,605,-18.630,-18.630,-0.810,-0.810,-3.671,-0.802,16.139,5.422,3.938,12.422,6.972,-6.481,4.599,4.345,0.731,7.522,3.773
Fri Nov 22 20:48:13 2024,610,-18.621,-18.621,-0.776,-0.776,-3.622,-0.756,16.093,5.429,3.933,12.238,6.952,-6.468,4.617,4.395,0.674,7.273,3.728
Fri Nov 22 20:48:13 2024,615,-18.626,-18.626,-0.751,-0.751,-3.586,-0.736,16.066,5.440,3.933,12.130,6.944,-6.455,4.618,4.425,0.644,7.130,3.714
Fri Nov 22 20:48:13 2024,620,-18.640,-18.640,-0.734,-0.734,-3.589,-0.767,16.051,5.424,3.932,12.178,6.910,-6.466,4.586,4.369,0.671,7.205,3.721
Fri Nov 22 20:48:13 2024,625,-18.653,-18.653,-0.728,-0.728,-3.583,-0.773,16.047,5.428,3.928,12.181,6.914,-6.470,4.581,4.370,0.672,7.196,3.717
Fri Nov 22 20:48:13 2024,630,-18.665,-18.665,-0.722,-0.722,-3.577,-0.779,16.044,5.432,3.925,12.183,6.919,-6.474,4.577,4.372,0.672,7.187,3.713
Fri Nov 22 20:48:13 2024,635,-18.677,-18.677,-0.716,-0.716,-3.571,-0.786,16.040,5.436,3.921,12.185,6.924,-6.479,4.573,4.373,0.672,7.178,3.709
Fri Nov 22 20:48:13 2024,640,-18.690,-18.690,-0.710,-0.710,-3.565,-0.792,16.037,5.440,3.918,12.188,6.928,-6.483,4.569,4.375,0.673,7.169,3.705
Fri Nov 22 20:48:13 2024,645,-18.702,-18.702,-0.704,-0.704,-3.559,-0.798,16.033,5.444,3.914,12.190,6.933,-6.487,4.565,4.376,0.673,7.161,3.701
Fri Nov 22 20:48:13 2024,650,-18.714,-18.714,-0.697,-0.697,-3.553,-0.805,16.029,5.447,3.911,12.192,6.938,-6.492,4.561,4.377,0.674,7.152,3.698
Fri Nov 22 20:48:13 2024,655,-18.727,-18.727,-0.691,-0.691,-3.547,-0.811,16.026,5.451,3.907,12.195,6.942,-6.496,4.557,4.379,0.674,7.143,3.694
Fri Nov 22 20:48:13 2024,660,-18.739,-18.739,-0.685,-0.685,-3.541,-0.817,16.022,5.455,3.904,12.197,6.947,-6.500,4.553,4.380,0.675,7.134,3.690
Fri Nov 22 20:48:13 2024,665,-18.751,-18.751,-0.679,-0.679,-3.535,-0.824,16.019,5.459,3.900,12.199,6.952,-6.505,4.548,4.382,0.675,7.125,3.686
Fri Nov 22 20:48:13 2024,670,-18.764,-18.764,-0.673,-0.673,-3.529,-0.830,16.015,5.463,3.897,12.202,6.956,-6.509,4.544,4.383,0.675,7.117,3.682
Fri Nov 22 20:48:13 2024,675,-18.776,-18.776,-0.667,-0.667,-3.523,-0.836,16.012,5.467,3.893,12.204,6.961,-6.513,4.540,4.385,0.676,7.108,3.678
Fri Nov 22 20:48:13 2024,680,-18.788,-18.788,-0.660,-0.660,-3.517,-0.843,16.008,5.471,3.890,12.206,6.966,-6.518,4.536,4.386,0.676,7.099,3.674
Fri Nov 22 20:48:13 2024,685,-18.801,-18.801,-0.654,-0.654,-3.511,-0.849,16.005,5.475,3.886,12.208,6.970,-6.522,4.532,4.388,0.677,7.090,3.670
Fri Nov 22 20:48:13 2024,690,-18.813,-18.813,-0.648,-0.648,-3.505,-0.855,16.001,5.478,3.883,12.211,6.975,-6.526,4.528,4.389,0.677,7.081,3.667
Fri Nov 22 20:48:13 2024,695,-18.825,-18.825,-0.642,-0.642,-3.499,-0.862,15.997,5.482,3.879,12.213,6.980,-6.531,4.524,4.390,0.677,7.073,3.663
Fri Nov 22 20:48:13 2024,700,-18.838,-18.838,-0.636,-0.636,-3.493,-0.868,15.994,5.486,3.876,12.215,6.984,-6.535,4.520,4.392,0.678,7.064,3.659
Fri Nov 22 20:48:13 2024,705,-18.850,-18.850,-0.630,-0.630,-3.487,-0.874,15.990,5.490,3.872,12.218,6.989,-6.539,4.515,4.393,0.678,7.055,3.655
Fri Nov 22 20:48:13 2024,710,-18.862,-18.862,-0.624,-0.624,-3.481,-0.881,15.987,5.494,3.869,12.220,6.994,-6.544,4.511,4.395,0.679,7.046,3.651
Fri Nov 22 20:48:13 2024,715,-18.875,-18.875,-0.617,-0.617,-3.475,-0.887,15.983,5.498,3.865,12.222,6.998,-6.548,4.507,4.396,0.679,7.037,3.647
Fri Nov 22 20:48:13 2024,720,-18.887,-18.887,-0.611,-0.611,-3.469,-0.893,15.980,5.502,3.862,12.225,7.003,-6.552,4.503,4.398,0.679,7.028,3.643
Fri Nov 22 20:48:13 2024,725,-18.899,-18.899,-0.605,-0.605,-3.464,-0.899,15.976,5.505,3.858,12.227,7.008,-6.557,4.499,4.399,0.680,7.020,3.640
Fri Nov 22 20:48:13 2024,730,-18.912,-18.912,-0.599,-0.599,-3.458,-0.906,15.973,5.509,3.855,12.229,7.012,-6.561,4.495,4.401,0.680,7.011,3.636
Fri Nov 22 20:48:13 2024,735,-18.924,-18.924,-0.593,-0.593,-3.452,-0.912,15.969,5.513,3.851,12.232,7.017,-6.565,4.491,4.402,0.681,7.002,3.632
Fri Nov 22 20:48:13 2024,740,-18.936,-18.936,-0.587,-0.587,-3.446,-0.918,15.965,5.517,3.848,12.234,7.022,-6.570,4.487,4.403,0.681,6.993,3.628
Fri Nov 22 20:48:13 2024,745,-18.949,-18.949,-0.581,-0.581,-3.440,-0.925,15.962,5.521,3.844,12.236,7.026,-6.574,4.482,4.405,0.681,6.984,3.624
Fri Nov 22 20:48:13 2024,750,-18.961,-18.961,-0.574,-0.574,-3.434,-0.931,15.958,5.525,3.841,12.239,7.031,-6.578,4.478,4.406,0.682,6.976,3.620
Fri Nov 22 20:48:13 2024,755,-18.973,-18.973,-0.568,-0.568,-3.428,-0.937,15.955,5.529,3.837,12.241,7.036,-6.583,4.474,4.408,0.682,6.967,3.616
Fri Nov 22 20:48:13 2024,760,-18.986,-18.986,-0.562,-0.562,-3.422,-0.944,15.951,5.532,3.834,12.243,7.040,-6.587,4.470,4.409,0.683,6.958,3.613
Fri Nov 22 20:48:13 2024,765,-18.998,-18.998,-0.556,-0.556,-3.416,-0.950,15.948,5.536,3.830,12.245,7.045,-6.591,4.466,4.411,0.683,6.949,3.609
Fri Nov 22 20:48:13 2024,770,-19.010,-19.010,-0.550,-0.550,-3.410,-0.956,15.944,5.540,3.827,12.248,7.050,-6.596,4.462,4.412,0.683,6.940,3.605
Fri Nov 22 20:48:13 2024,775,-19.023,-19.023,-0.544,-0.544,-3.404,-0.963,15.940,5.544,3.823,12.250,7.054,-6.600,4.458,4.413,0.684,6.932,3.601
Fri Nov 22 20:48:13 2024,780,-19.035,-19.035,-0.537,-0.537,-3.398,-0.969,15.937,5.548,3.820,12.252,7.059,-6.605,4.454,4.415,0.684,6.923,3.597
Fri Nov 22 20:48:13 2024,785,-19.047,-19.047,-0.531,-0.531,-3.392,-0.975,15.933,5.552,3.816,12.255,7.064,-6.609,4.449,4.416,0.685,6.914,3.593
Fri Nov 22 20:48:13 2024,790,-19.059,-19.059,-0.525,-0.525,-3.386,-0.982,15.930,5.556,3.813,12.257,7.068,-6.613,4.445,4.418,0.685,6.905,3.589
Fri Nov 22 20:48:13 2024,795,-19.072,-19.072,-0.519,-0.519,-3.380,-0.988,15.926,5.559,3.809,12.259,7.073,-6.618,4.441,4.419,0.686,6.896,3.586
Fri Nov 22 20:48:13 2024,800,-19.084,-19.084,-0.513,-0.513,-3.374,-0.994,15.923,5.563,3.806,12.262,7.078,-6.622,4.437,4.421,0.686,6.887,3.582
Fri Nov 22 20:48:13 2024,805,-19.096,-19.096,-0.507,-0.507,-3.368,-1.001,15.919,5.567,3.802,12.264,7.082,-6.626,4.433,4.422,0.686,6.879,3.578
Fri Nov 22 20:48:13 2024,810,-19.109,-19.109,-0.501,-0.501,-3.362,-1.007,15.916,5.571,3.799,12.266,7.087,-6.631,4.429,4.424,0.687,6.870,3.574
Fri Nov 22 20:48:13 2024,815,-19.121,-19.121,-0.494,-0.494,-3.356,-1.013,15.912,5.575,3.795,12.269,7.092,-6.635,4.425,4.425,0.687,6.861,3.570
Fri Nov 22 20:48:13 2024,820,-19.133,-19.133,-0.488,-0.488,-3.350,-1.020,15.908,5.579,3.792,12.271,7.096,-6.639,4.421,4.426,0.688,6.852,3.566
Fri Nov 22 20:48:13 2024,825,-19.146,-19.146,-0.482,-0.482,-3.344,-1.026,15.905,5.583,3.788,12.273,7.101,-6.644,4.416,4.428,0.688,6.843,3.562
Fri Nov 22 20:48:13 2024,830,-19.158,-19.158,-0.476,-0.476,-3.338,-1.032,15.901,5.586,3.785,12.276,7.106,-6.648,4.412,4.429,0.688,6.835,3.559
Fri Nov 22 20:48:13 2024,835,-19.170,-19.170,-0.470,-0.470,-3.332,-1.039,15.898,5.590,3.781,12.278,7.110,-6.652,4.408,4.431,0.689,6.826,3.555
Fri Nov 22 20:48:13 2024,840,-19.183,-19.183,-0.464,-0.464,-3.326,-1.045,15.894,5.594,3.778,12.280,7.115,-6.657,4.404,4.432,0.689,6.817,3.551
Fri Nov 22 20:48:13 2024,845,-19.195,-19.195,-0.458,-0.458,-3.320,-1.051,15.891,5.598,3.774,12.283,7.120,-6.661,4.400,4.434,0.690,6.808,3.547
Fri Nov 22 20:48:13 2024,850,-19.207,-19.207,-0.451,-0.451,-3.314,-1.057,15.887,5.602,3.771,12.285,7.124,-6.665,4.396,4.435,0.690,6.799,3.543
Fri Nov 22 20:48:13 2024,855,-19.220,-19.220,-0.445,-0.445,-3.308,-1.064,15.883,5.606,3.767,12.287,7.129,-6.670,4.392,4.436,0.690,6.791,3.539
Fri Nov 22 20:48:13 2024,860,-19.232,-19.232,-0.439,-0.439,-3.302,-1.070,15.880,5.610,3.764,12.289,7.134,-6.674,4.388,4.438,0.691,6.782,3.535
Fri Nov 22 20:48:13 2024,865,-19.244,-19.244,-0.433,-0.433,-3.296,-1.076,15.876,5.614,3.760,12.292,7.138,-6.678,4.383,4.439,0.691,6.773,3.531
Fri Nov 22 20:48:13 2024,870,-19.257,-19.257,-0.427,-0.427,-3.290,-1.083,15.873,5.617,3.757,12.294,7.143,-6.683,4.379,4.441,0.692,6.764,3.528
Fri Nov 22 20:48:13 2024,875,-19.269,-19.269,-0.421,-0.421,-3.284,-1.089,15.869,5.621,3.753,12.296,7.148,-6.687,4.375,4.442,0.692,6.755,3.524
Fri Nov 22 20:48:13 2024,880,-19.281,-19.281,-0.414,-0.414,-3.278,-1.095,15.866,5.625,3.750,12.299,7.152,-6.691,4.371,4.444,0.692,6.746,3.520
Fri Nov 22 20:48:13 2024,885,-19.294,-19.294,-0.408,-0.408,-3.272,-1.102,15.862,5.629,3.746,12.301,7.157,-6.696,4.367,4.445,0.693,6.738,3.516
Fri Nov 22 20:48:13 2024,890,-19.306,-19.306,-0.402,-0.402,-3.266,-1.108,15.859,5.633,3.743,12.303,7.162,-6.700,4.363,4.447,0.693,6.729,3.512
Fri Nov 22 20:48:13 2024,895,-19.318,-19.318,-0.396,-0.396,-3.260,-1.114,15.855,5.637,3.739,12.306,7.166,-6.704,4.359,4.448,0.694,6.720,3.508
Fri Nov 22 20:48:13 2024,900,-19.331,-19.331,-0.390,-0.390,-3.254,-1.121,15.851,5.641,3.736,12.308,7.171,-6.709,4.355,4.449,0.694,6.711,3.504
Fri Nov 22 20:48:13 2024,905,-19.343,-19.343,-0.384,-0.384,-3.248,-1.127,15.848,5.644,3.732,12.310,7.176,-6.713,4.350,4.451,0.694,6.702,3.501
Fri Nov 22 20:48:13 2024,910,-19.355,-19.355,-0.378,-0.378,-3.242,-1.133,15.844,5.648,3.729,12.313,7.180,-6.717,4.346,4.452,0.695,6.694,3.497
Fri Nov 22 20:48:13 2024,915,-19.368,-19.368,-0.371,-0.371,-3.236,-1.140,15.841,5.652,3.725,12.315,7.185,-6.722,4.342,4.454,0.695,6.685,3.493
Fri Nov 22 20:48:13 2024,920,-19.380,-19.380,-0.365,-0.365,-3.230,-1.146,15.837,5.656,3.722,12.317,7.190,-6.726,4.338,4.455,0.696,6.676,3.489
Fri Nov 22 20:48:13 2024,925,-19.392,-19.392,-0.359,-0.359,-3.224,-1.152,15.834,5.660,3.718,12.320,7.194,-6.730,4.334,4.457,0.696,6.667,3.485
Fri Nov 22 20:48:13 2024,930,-19.405,-19.405,-0.353,-0.353,-3.218,-1.159,15.830,5.664,3.715,12.322,7.199,-6.735,4.330,4.458,0.697,6.658,3.481
Fri Nov 22 20:48:13 2024,935,-19.417,-19.417,-0.347,-0.347,-3.212,-1.165,15.827,5.668,3.711,12.324,7.204,-6.739,4.326,4.460,0.697,6.649,3.477
Fri Nov 22 20:48:13 2024,940,-19.429,-19.429,-0.341,-0.341,-3.206,-1.171,15.823,5.671,3.708,12.326,7.208,-6.743,4.322,4.461,0.697,6.641,3.474
Fri Nov 22 20:48:13 2024,945,-19.442,-19.442,-0.334,-0.334,-3.200,-1.178,15.819,5.675,3.704,12.329,7.213,-6.748,4.317,4.462,0.698,6.632,3.470
Fri Nov 22 20:48:13 2024,950,-19.454,-19.454,-0.328,-0.328,-3.194,-1.184,15.816,5.679,3.701,12.331,7.218,-6.752,4.313,4.464,0.698,6.623,3.466
Fri Nov 22 20:48:13 2024,955,-19.466,-19.466,-0.322,-0.322,-3.188,-1.190,15.812,5.683,3.697,12.333,7.222,-6.756,4.309,4.465,0.699,6.614,3.462
Fri Nov 22 20:48:13 2024,960,-19.479,-19.479,-0.316,-0.316,-3.182,-1.196,15.809,5.687,3.694,12.336,7.227,-6.761,4.305,4.467,0.699,6.605,3.458
Fri Nov 22 20:48:13 2024,965,-19.491,-19.491,-0.310,-0.310,-3.176,-1.203,15.805,5.691,3.690,12.338,7.232,-6.765,4.301,4.468,0.699,6.597,3.454
Fri Nov 22 20:48:13 2024,970,-19.503,-19.503,-0.304,-0.304,-3.170,-1.209,15.802,5.695,3.687,12.340,7.236,-6.769,4.297,4.470,0.700,6.588,3.450
Fri Nov 22 20:48:13 2024,975,-19.516,-19.516,-0.298,-0.298,-3.164,-1.215,15.798,5.698,3.683,12.343,7.241,-6.774,4.293,4.471,0.700,6.579,3.447
Fri Nov 22 20:48:13 2024,980,-19.528,-19.528,-0.291,-0.291,-3.158,-1.222,15.794,5.702,3.680,12.345,7.246,-6.778,4.289,4.472,0.701,6.570,3.443
Fri Nov 22 20:48:13 2024,985,-19.540,-19.540,-0.285,-0.285,-3.152,-1.228,15.791,5.706,3.676,12.347,7.250,-6.782,4.284,4.474,0.701,6.561,3.439
Fri Nov 22 20:48:13 2024,990,-19.553,-19.553,-0.279,-0.279,-3.146,-1.234,15.787,5.710,3.673,12.350,7.255,-6.787,4.280,4.475,0.701,6.553,3.435
Fri Nov 22 20:48:13 2024,995,-19.565,-19.565,-0.273,-0.273,-3.140,-1.241,15.784,5.714,3.669,12.352,7.260,-6.791,4.276,4.477,0.702,6.544,3.431
Fri Nov 22 20:48:14 2024,0,-19.577,-19.577,-0.267,-0.267,-3.134,-1.247,15.780,5.718,3.666,12.354,7.264,-6.795,4.272,4.478,0.702,6.535,3.427
Fri Nov 22 20:48:14 2024,5,-19.590,-19.590,-0.261,-0.261,-3.128,-1.253,15.777,5.722,3.662,12.357,7.269,-6.800,4.268,4.480,0.703,6.526,3.423
Fri Nov 22 20:48:14 2024,10,-19.602,-19.602,-0.255,-0.255,-3.122,-1.260,15.773,5.725,3.659,12.359,7.274,-6.804,4.264,4.481,0.703,6.517,3.420
Fri Nov 22 20:48:14 2024,15,-19.614,-19.614,-0.248,-0.248,-3.116,-1.266,15.770,5.729,3.655,12.361,7.278,-6.809,4.260,4.483,0.703,6.508,3.416
Fri Nov 22 20:48:14 2024,20,-19.626,-19.626,-0.242,-0.242,-3.110,-1.272,15.766,5.733,3.652,12.364,7.283,-6.813,4.256,4.484,0.704,6.500,3.412
Fri Nov 22 20:48:14 2024,25,-19.639,-19.639,-0.236,-0.236,-3.104,-1.279,15.762,5.737,3.648,12.366,7.288,-6.817,4.251,4.485,0.704,6.491,3.408
Fri Nov 22 20:48:14 2024,30,-19.651,-19.651,-0.230,-0.230,-3.098,-1.285,15.759,5.741,3.645,12.368,7.292,-6.822,4.247,4.487,0.705,6.482,3.404
Fri Nov 22 20:48:14 2024,35,-19.657,-19.657,-0.236,-0.236,-3.105,-1.293,15.752,5.741,3.637,12.372,7.294,-6.819,4.260,4.498,0.709,6.486,3.403
Fri Nov 22 20:48:14 2024,40,-19.653,-19.653,-0.214,-0.214,-3.129,-1.256,15.782,5.687,3.666,12.406,7.260,-6.778,4.282,4.461,0.764,6.454,3.396
Fri Nov 22 20:48:14 2024,45,-19.649,-19.649,-0.202,-0.202,-3.149,-1.231,15.802,5.647,3.686,12.430,7.235,-6.747,4.301,4.436,0.806,6.433,3.391
Fri Nov 22 20:48:14 2024,50,-19.646,-19.646,-0.191,-0.191,-3.166,-1.207,15.820,5.612,3.704,12.451,7.212,-6.720,4.317,4.413,0.844,6.413,3.387
Fri Nov 22 20:48:14 2024,55,-19.593,-19.593,-0.331,-0.331,-3.292,-1.250,15.815,5.601,3.642,12.470,7.248,-6.703,4.317,4.457,0.928,6.339,3.319
Fri Nov 22 20:48:14 2024,60,-19.568,-19.568,-0.399,-0.399,-3.355,-1.263,15.818,5.585,3.620,12.485,7.257,-6.687,4.321,4.470,0.980,6.299,3.287
Fri Nov 22 20:48:14 2024,65,-19.551,-19.551,-0.448,-0.448,-3.400,-1.272,15.820,5.574,3.604,12.496,7.264,-6.676,4.324,4.479,1.017,6.270,3.265
Fri Nov 22 20:48:14 2024,70,-19.539,-19.539,-0.485,-0.485,-3.434,-1.279,15.821,5.567,3.592,12.503,7.270,-6.667,4.325,4.486,1.045,6.248,3.249
Fri Nov 22 20:48:14 2024,75,-19.539,-19.539,-0.492,-0.492,-3.440,-1.280,15.821,5.566,3.590,12.504,7.271,-6.666,4.324,4.488,1.050,6.243,3.246
Fri Nov 22 20:48:14 2024,80,-19.541,-19.541,-0.493,-0.493,-3.442,-1.280,15.821,5.566,3.590,12.504,7.272,-6.665,4.322,4.489,1.051,6.241,3.246
Fri Nov 22 20:48:14 2024,85,-19.543,-19.543,-0.494,-0.494,-3.442,-1.280,15.820,5.566,3.590,12.504,7.273,-6.665,4.320,4.489,1.051,6.240,3.246
Fri Nov 22 20:48:14 2024,90,-19.546,-19.546,-0.494,-0.494,-3.443,-1.280,15.820,5.567,3.590,12.503,7.274,-6.665,4.318,4.490,1.052,6.239,3.246
Fri Nov 22 20:48:14 2024,95,-19.548,-19.548,-0.494,-0.494,-3.443,-1.280,15.819,5.568,3.590,12.502,7.274,-6.665,4.316,4.490,1.052,6.238,3.246
Fri Nov 22 20:48:14 2024,100,-19.550,-19.550,-0.494,-0.494,-3.444,-1.280,15.819,5.568,3.591,12.502,7.275,-6.665,4.314,4.491,1.052,6.237,3.247
Fri Nov 22 20:48:14 2024,105,-19.553,-19.553,-0.494,-0.494,-3.444,-1.280,15.818,5.569,3.591,12.501,7.276,-6.665,4.312,4.492,1.052,6.236,3.247
Fri Nov 22 20:48:14 2024,110,-19.554,-19.554,-0.494,-0.494,-3.444,-1.280,15.817,5.570,3.591,12.501,7.276,-6.665,4.311,4.492,1.052,6.235,3.247
Fri Nov 22 20:48:14 2024,115,-19.557,-19.557,-0.494,-0.494,-3.445,-1.281,15.817,5.570,3.591,12.500,7.277,-6.665,4.309,4.493,1.052,6.233,3.248
Fri Nov 22 20:48:14 2024,120,-19.559,-19.559,-0.494,-0.494,-3.445,-1.281,15.817,5.571,3.592,12.500,7.278,-6.665,4.308,4.493,1.052,6.232,3.248
Fri Nov 22 20:48:14 2024,125,-19.562,-19.562,-0.494,-0.494,-3.445,-1.281,15.816,5.572,3.592,12.499,7.278,-6.665,4.306,4.494,1.053,6.232,3.248
Fri Nov 22 20:48:14 2024,130,-19.564,-19.564,-0.494,-0.494,-3.446,-1.281,15.815,5.572,3.592,12.499,7.279,-6.665,4.304,4.494,1.053,6.231,3.249
Fri Nov 22 20:48:14 2024,135,-19.621,-19.621,-0.323,-0.323,-3.373,-1.112,15.955,5.694,3.836,12.445,7.317,-6.319,4.421,4.459,1.270,5.966,3.153
Fri Nov 22 20:48:14 2024,140,-19.508,-19.508,-0.543,-0.543,-3.535,-1.156,16.066,5.645,3.829,12.622,7.449,-6.298,4.578,4.584,1.386,6.249,3.246
Fri Nov 22 20:48:14 2024,145,-19.500,-19.500,-0.559,-0.559,-3.549,-1.155,16.079,5.644,3.834,12.636,7.461,-6.287,4.593,4.594,1.404,6.263,3.250
Fri Nov 22 20:48:14 2024,150,-19.493,-19.493,-0.574,-0.574,-3.562,-1.155,16.090,5.644,3.838,12.647,7.473,-6.276,4.607,4.604,1.420,6.275,3.254
Fri Nov 22 20:48:14 2024,155,-19.486,-19.486,-0.590,-0.590,-3.576,-1.155,16.102,5.643,3.843,12.660,7.485,-6.265,4.621,4.613,1.437,6.288,3.258
Fri Nov 22 20:48:14 2024,160,-19.480,-19.480,-0.605,-0.605,-3.589,-1.154,16.114,5.642,3.848,12.672,7.496,-6.254,4.635,4.622,1.454,6.300,3.261
Fri Nov 22 20:48:14 2024,165,-19.473,-19.473,-0.618,-0.618,-3.601,-1.154,16.124,5.641,3.852,12.683,7.506,-6.245,4.648,4.630,1.469,6.312,3.264
Fri Nov 22 20:48:14 2024,170,-19.468,-19.468,-0.630,-0.630,-3.610,-1.154,16.133,5.641,3.856,12.692,7.515,-6.236,4.659,4.638,1.482,6.321,3.268
Fri Nov 22 20:48:14 2024,175,-20.093,-20.093,-0.412,-0.412,-3.109,-1.141,16.501,5.663,3.873,13.669,8.180,-6.192,5.358,5.128,1.546,6.174,3.142
Fri Nov 22 20:48:14 2024,180,-20.188,-20.188,-0.400,-0.400,-3.040,-1.138,16.566,5.666,3.879,13.822,8.292,-6.179,5.477,5.212,1.568,6.158,3.126
Fri Nov 22 20:48:14 2024,185,-20.150,-20.150,-0.341,-0.341,-3.031,-1.060,16.356,5.776,3.875,13.433,8.142,-6.173,5.250,5.112,1.514,6.114,3.199
Fri Nov 22 20:48:14 2024,190,-20.125,-20.125,-0.302,-0.302,-3.023,-1.002,16.199,5.857,3.873,13.139,8.035,-6.168,5.085,5.043,1.476,6.079,3.256
Fri Nov 22 20:48:14 2024,195,-20.128,-20.128,-0.283,-0.283,-3.019,-0.964,16.175,5.937,3.858,13.021,8.006,-6.197,4.936,5.002,1.418,6.049,3.305
Fri Nov 22 20:48:14 2024,200,-20.144,-20.144,-0.276,0.276,-3.016,-0.942,16.210,6.001,3.839,12.998,8.014,-6.234,4.822,4.982,1.363,6.026,3.342
Fri Nov 22 20:48:14 2024,205,-20.164,-20.164,-0.272,0.272,-3.011,-0.932,16.213,6.070,3.819,12.990,8.030,-6.272,4.724,4.964,1.323,6.008,3.373
Fri Nov 22 20:48:14 2024,210,-20.189,-20.189,-0.268,0.268,-3.003,-0.965,16.102,6.121,3.801,13.031,8.061,-6.293,4.732,4.960,1.353,6.020,3.368
Fri Nov 22 20:48:14 2024,215,-20.210,-20.210,-0.267,0.267,-2.996,-0.990,16.020,6.165,3.786,13.062,8.086,-6.312,4.730,4.955,1.372,6.026,3.367
Fri Nov 22 20:48:14 2024,220,-20.302,-20.302,-0.287,0.287,-2.893,-1.045,15.948,6.186,3.727,13.094,8.083,-6.372,4.653,4.926,1.305,5.953,3.340
Fri Nov 22 20:48:14 2024,225,-20.376,-20.376,-0.342,0.342,-2.808,-1.088,15.898,6.198,3.680,13.117,8.078,-6.420,4.588,4.902,1.247,5.890,3.317
Fri Nov 22 20:48:14 2024,230,-20.441,-20.441,-0.388,0.388,-2.760,-1.108,15.839,6.222,3.642,13.086,8.076,-6.472,4.516,4.890,1.196,5.780,3.280
Fri Nov 22 20:48:14 2024,235,-20.478,-20.478,-0.365,0.365,-2.794,-1.075,15.765,6.268,3.626,12.939,8.085,-6.528,4.434,4.907,1.163,5.574,3.214
Fri Nov 22 20:48:14 2024,240,-20.514,-20.514,-0.360,0.360,-2.808,-1.058,15.708,6.301,3.609,12.838,8.091,-6.573,4.368,4.916,1.134,5.421,3.165
Fri Nov 22 20:48:14 2024,245,-20.572,-20.572,-0.413,0.413,-2.773,-1.095,15.726,6.286,3.620,12.956,8.097,-6.548,4.506,4.936,1.160,5.529,3.187
Fri Nov 22 20:48:14 2024,250,-20.631,-20.631,-0.467,0.467,-2.740,-1.129,15.738,6.274,3.628,13.059,8.102,-6.528,4.631,4.956,1.184,5.619,3.204
Fri Nov 22 20:48:14 2024,255,-20.670,-20.670,-0.501,0.501,-2.718,-1.163,15.710,6.323,3.627,13.111,8.159,-6.533,4.653,4.982,1.219,5.593,3.193
Fri Nov 22 20:48:14 2024,260,-20.701,-20.701,-0.528,0.528,-2.700,-1.194,15.676,6.380,3.624,13.147,8.222,-6.543,4.650,5.006,1.252,5.544,3.178
Fri Nov 22 20:48:14 2024,265,-20.729,-20.729,-0.552,0.552,-2.684,-1.222,15.644,6.433,3.621,13.179,8.279,-6.552,4.647,5.029,1.282,5.499,3.163
Fri Nov 22 20:48:14 2024,270,-20.776,-20.776,-0.569,0.569,-2.632,-1.263,15.598,6.468,3.584,13.144,8.258,-6.609,4.554,4.982,1.179,5.411,3.124
Fri Nov 22 20:48:14 2024,275,-20.808,-20.808,-0.582,0.582,-2.599,-1.293,15.565,6.499,3.561,13.130,8.257,-6.645,4.499,4.958,1.125,5.350,3.100
Fri Nov 22 20:48:14 2024,280,-20.817,-20.817,-0.556,0.556,-2.609,-1.304,15.567,6.520,3.548,13.083,8.262,-6.605,4.608,5.044,1.192,5.500,3.181
Fri Nov 22 20:48:14 2024,285,-20.824,-20.824,-0.531,0.531,-2.618,-1.312,15.570,6.536,3.538,13.043,8.266,-6.570,4.700,5.116,1.249,5.628,3.250
Fri Nov 22 20:48:14 2024,290,-20.849,-20.849,-0.540,0.540,-2.633,-1.347,15.555,6.511,3.504,13.067,8.250,-6.590,4.679,5.091,1.244,5.687,3.253
Fri Nov 22 20:48:14 2024,295,-20.881,-20.881,-0.569,0.569,-2.649,-1.391,15.530,6.463,3.463,13.130,8.222,-6.642,4.584,5.004,1.196,5.681,3.207
Fri Nov 22 20:48:14 2024,300,-20.914,-20.914,-0.600,0.600,-2.666,-1.436,15.505,6.414,3.422,13.196,8.193,-6.696,4.487,4.915,1.146,5.675,3.160
Fri Nov 22 20:48:14 2024,305,-20.952,-20.952,-0.621,0.621,-2.607,-1.452,15.328,6.446,3.441,13.129,8.207,-6.656,4.500,4.953,1.236,5.625,3.190
Fri Nov 22 20:48:14 2024,310,-20.979,-20.979,-0.638,0.638,-2.568,-1.464,15.209,6.465,3.453,13.087,8.215,-6.631,4.505,4.974,1.295,5.591,3.208
Fri Nov 22 20:48:14 2024,315,-20.980,-20.980,-0.631,0.631,-2.546,-1.458,15.150,6.462,3.462,13.040,8.238,-6.646,4.388,4.978,1.289,5.497,3.206
Fri Nov 22 20:48:14 2024,320,-20.972,-20.972,-0.620,0.620,-2.533,-1.448,15.122,6.452,3.467,13.001,8.261,-6.671,4.255,4.974,1.264,5.402,3.197
Fri Nov 22 20:48:14 2024,325,-20.964,-20.964,-0.608,0.608,-2.521,-1.438,15.095,6.443,3.472,12.964,8.282,-6.695,4.129,4.971,1.241,5.312,3.188
Fri Nov 22 20:48:14 2024,330,-21.022,-21.022,-0.611,0.611,-2.509,-1.404,15.133,6.512,3.483,12.888,8.336,-6.690,4.124,4.996,1.298,5.320,3.206
Fri Nov 22 20:48:14 2024,335,-21.062,-21.062,-0.612,0.612,-2.499,-1.378,15.154,6.559,3.490,12.827,8.377,-6.690,4.096,5.014,1.334,5.308,3.217
Fri Nov 22 20:48:14 2024,340,-21.098,-21.098,-0.760,0.760,-2.436,-1.419,15.196,6.540,3.484,12.937,8.315,-6.646,4.216,4.994,1.411,5.405,3.210
Fri Nov 22 20:48:14 2024,345,-21.133,-21.133,-0.911,0.911,-2.377,-1.460,15.235,6.520,3.476,13.047,8.253,-6.603,4.334,4.973,1.487,5.499,3.203
Fri Nov 22 20:48:14 2024,350,-21.134,-21.134,1.244,1.244,-2.160,-1.502,15.156,6.514,3.471,13.113,8.254,-6.588,4.305,4.965,1.524,5.500,3.218
Fri Nov 22 20:48:14 2024,355,-21.113,-21.113,1.675,1.675,-1.866,-1.539,15.004,6.519,3.467,13.140,8.301,-6.594,4.175,4.966,1.530,5.435,3.249
Fri Nov 22 20:48:14 2024,360,-21.093,-21.093,2.073,2.073,-1.614,-1.574,14.864,6.524,3.464,13.165,8.344,-6.600,4.056,4.967,1.535,5.376,3.278
Fri Nov 22 20:48:14 2024,365,-21.012,-21.012,2.820,2.820,-1.298,-1.552,14.884,6.494,3.500,13.182,8.302,-6.574,4.223,5.015,1.639,5.486,3.354
Fri Nov 22 20:48:14 2024,370,-20.954,-20.954,3.388,3.388,1.153,-1.538,14.893,6.472,3.527,13.195,8.274,-6.556,4.340,5.051,1.716,5.564,3.412
Fri Nov 22 20:48:14 2024,375,-20.950,-20.950,4.226,4.226,1.189,-1.530,14.943,6.584,3.539,13.204,8.236,-6.534,4.373,5.028,1.786,5.629,3.469
Fri Nov 22 20:48:14 2024,380,-20.960,-20.960,5.319,5.319,1.708,-1.522,15.015,6.755,3.551,13.212,8.189,-6.507,4.391,4.985,1.872,5.705,3.540
Fri Nov 22 20:48:14 2024,385,-20.984,-20.984,6.152,6.152,2.270,-1.520,14.968,6.848,3.565,13.203,8.177,-6.488,4.377,4.986,1.934,5.712,3.609
Fri Nov 22 20:48:14 2024,390,-21.061,-21.061,7.302,7.302,3.064,-1.527,14.586,6.862,3.600,13.142,8.234,-6.461,4.272,5.085,2.005,5.572,3.754
Fri Nov 22 20:48:14 2024,395,-21.115,-21.115,8.129,8.129,3.673,-1.530,14.329,6.878,3.624,13.102,8.271,-6.441,4.202,5.151,2.058,5.479,3.857
Fri Nov 22 20:48:14 2024,400,-21.260,-21.260,9.270,9.270,4.481,-1.449,14.299,7.038,3.633,13.040,8.251,-6.316,4.326,5.206,2.129,5.284,3.859
Fri Nov 22 20:48:14 2024,405,-21.389,-21.389,10.217,10.217,5.173,-1.380,14.286,7.174,3.639,12.989,8.233,-6.209,4.435,5.250,2.189,5.121,3.856
Fri Nov 22 20:48:14 2024,410,-21.536,-21.536,11.443,11.443,6.067,-1.286,14.386,7.383,3.669,12.971,8.260,-6.138,4.482,5.316,2.295,5.130,3.980
Fri Nov 22 20:48:14 2024,415,-21.705,-21.705,12.838,12.838,7.107,-1.179,14.544,7.630,3.710,12.969,8.310,-6.084,4.496,5.393,2.427,5.223,4.174
Fri Nov 22 20:48:14 2024,420,-21.878,-21.878,14.166,14.166,8.124,-1.078,14.691,7.863,3.749,12.967,8.358,-6.034,4.510,5.466,2.551,5.310,4.362
Fri Nov 22 20:48:14 2024,425,-21.874,-21.874,15.493,15.493,9.056,-1.034,14.365,7.964,3.847,12.909,8.332,-5.986,4.352,5.414,2.556,5.050,4.387
Fri Nov 22 20:48:14 2024,430,-21.903,-21.903,16.580,16.580,9.853,-0.994,14.148,8.057,3.920,12.868,8.319,-5.948,4.241,5.385,2.572,4.874,4.423
Fri Nov 22 20:48:14 2024,435,-21.879,-21.879,17.747,17.747,10.678,-1.003,13.982,8.198,3.932,12.824,8.283,-5.862,4.290,5.412,2.685,4.890,4.545
Fri Nov 22 20:48:14 2024,440,-21.855,-21.855,18.663,18.663,11.323,-1.029,13.876,8.322,3.918,12.790,8.248,-5.780,4.386,5.454,2.806,4.974,4.671
Fri Nov 22 20:48:14 2024,445,-21.850,-21.850,19.528,19.528,11.940,-1.053,13.778,8.436,3.905,12.758,8.215,-5.703,4.475,5.493,2.919,5.051,4.792
Fri Nov 22 20:48:14 2024,450,-22.149,-22.149,20.839,20.839,12.782,-0.916,13.945,8.627,4.120,12.789,8.269,-5.570,4.523,5.481,2.999,4.988,4.726
Fri Nov 22 20:48:14 2024,455,-22.406,-22.406,21.910,21.910,13.502,-0.828,14.038,8.777,4.262,12.798,8.298,-5.466,4.571,5.481,3.074,4.960,4.705
Fri Nov 22 20:48:14 2024,460,-22.659,-22.659,23.970,23.970,15.102,-1.033,13.749,8.840,4.286,12.820,8.342,-5.399,4.635,5.548,3.265,5.098,4.878
Fri Nov 22 20:48:14 2024,465,-22.932,-22.932,26.035,26.035,16.740,-1.227,13.466,8.906,4.311,12.841,8.386,-5.331,4.697,5.613,3.452,5.230,5.047
Fri Nov 22 20:48:14 2024,470,-22.891,-22.891,27.642,27.642,17.974,-1.389,13.045,8.808,4.288,12.647,8.361,-5.362,4.512,5.619,3.630,5.316,5.191
Fri Nov 22 20:48:14 2024,475,-22.669,-22.669,28.864,28.864,18.898,-1.515,12.569,8.614,4.242,12.321,8.295,-5.449,4.184,5.587,3.787,5.368,5.309
Fri Nov 22 20:48:14 2024,480,-22.489,22.489,30.047,30.047,19.819,-1.627,12.123,8.434,4.206,12.003,8.235,-5.525,3.877,5.558,3.934,5.415,5.419
Fri Nov 22 20:48:14 2024,485,-23.337,23.337,31.539,31.539,20.612,-1.554,12.313,8.471,4.463,12.383,8.377,-5.168,4.200,5.481,4.220,5.407,5.313
Fri Nov 22 20:48:14 2024,490,-24.078,24.078,32.832,32.832,21.360,-1.513,12.398,8.477,4.650,12.598,8.473,-4.915,4.397,5.421,4.449,5.401,5.248
Fri Nov 22 20:48:14 2024,495,-24.646,24.646,34.052,34.052,22.105,-1.736,12.352,8.494,4.636,12.797,8.549,-4.898,4.434,5.407,4.513,5.372,5.182
Fri Nov 22 20:48:14 2024,500,-25.291,25.291,35.453,35.453,22.983,-2.039,12.265,8.515,4.582,13.021,8.631,-4.923,4.447,5.399,4.555,5.334,5.108
Fri Nov 22 20:48:14 2024,505,-25.916,25.916,36.304,36.304,23.486,-2.218,12.152,8.478,4.554,13.171,8.710,-4.924,4.442,5.403,4.579,5.346,5.057
Fri Nov 22 20:48:14 2024,510,-26.603,26.603,35.944,35.944,23.130,-2.141,11.972,8.293,4.583,13.179,8.804,-4.864,4.395,5.442,4.571,5.480,5.044
Fri Nov 22 20:48:14 2024,515,-27.484,27.484,35.728,35.728,22.875,-2.087,11.780,8.107,4.607,13.207,8.906,-4.804,4.348,5.480,4.566,5.612,5.026
Fri Nov 22 20:48:14 2024,520,-28.092,28.092,35.786,35.786,22.773,-1.947,12.193,8.210,4.791,13.353,8.920,-4.612,4.548,5.486,4.972,5.761,4.948
Fri Nov 22 20:48:14 2024,525,-28.840,28.840,35.865,35.865,22.703,-1.803,12.614,8.317,4.980,13.476,8.935,-4.416,4.751,5.492,5.387,5.895,4.868
Fri Nov 22 20:48:14 2024,530,-29.393,29.393,36.028,36.028,22.760,-1.781,12.738,8.209,5.154,13.446,9.004,-4.236,4.937,5.592,5.796,6.084,4.909
Fri Nov 22 20:48:14 2024,535,-29.938,29.938,36.212,36.212,22.856,-1.819,12.723,7.992,5.327,13.347,9.103,-4.060,5.121,5.742,6.213,6.298,5.013
Fri Nov 22 20:48:14 2024,540,-30.488,30.488,36.344,36.344,22.947,-1.892,12.599,7.796,5.402,13.245,9.160,-3.969,5.190,5.854,6.514,6.462,5.116
Fri Nov 22 20:48:14 2024,545,-30.923,30.923,36.411,36.411,23.108,-2.108,12.084,7.599,5.189,13.079,9.102,-4.124,4.908,5.874,6.548,6.571,5.239
Fri Nov 22 20:48:14 2024,550,-31.468,31.468,36.466,36.466,23.252,-2.329,11.550,7.390,4.979,12.857,9.041,-4.278,4.619,5.897,6.587,6.687,5.368
Fri Nov 22 20:48:14 2024,555,-31.730,31.730,36.158,36.158,23.284,-2.354,11.192,7.398,4.860,12.546,9.158,-4.315,4.289,6.038,6.616,6.507,5.496
Fri Nov 22 20:48:14 2024,560,-31.952,31.952,35.828,35.828,23.301,-2.350,10.888,7.435,4.764,12.232,9.292,-4.332,3.981,6.182,6.642,6.300,5.614
Fri Nov 22 20:48:14 2024,565,-32.168,32.168,35.539,35.539,23.318,-2.345,10.622,7.468,4.680,11.942,9.407,-4.346,3.712,6.309,6.666,6.119,5.716
Fri Nov 22 20:48:14 2024,570,-32.254,32.254,35.236,35.236,23.267,-2.351,10.690,7.436,4.613,12.004,9.320,-4.395,3.890,6.286,6.623,5.994,5.623
Fri Nov 22 20:48:14 2024,575,-32.386,32.386,34.944,34.944,23.234,-2.355,10.680,7.420,4.542,11.983,9.281,-4.434,3.963,6.298,6.596,5.859,5.577
Fri Nov 22 20:48:14 2024,580,-32.292,32.292,34.710,34.710,23.149,-2.319,11.023,7.375,4.488,12.112,9.194,-4.486,4.049,6.157,6.599,6.006,5.491
Fri Nov 22 20:48:14 2024,585,-32.208,32.208,34.437,34.437,23.052,-2.277,11.401,7.324,4.427,12.253,9.098,-4.545,4.148,6.003,6.602,6.161,5.395
Fri Nov 22 20:48:14 2024,590,-32.148,32.148,34.206,34.206,22.969,-2.240,11.719,7.282,4.376,12.372,9.017,-4.593,4.232,5.873,6.606,6.290,5.315
Fri Nov 22 20:48:14 2024,595,-32.269,32.269,33.623,33.623,22.665,-2.209,11.832,7.289,4.407,12.457,9.142,-4.683,4.301,5.859,6.437,6.240,5.162
Fri Nov 22 20:48:14 2024,600,-32.329,32.329,33.278,33.278,22.494,-2.184,11.975,7.280,4.409,12.530,9.180,-4.738,4.357,5.816,6.358,6.252,5.068
Fri Nov 22 20:48:14 2024,605,-32.489,32.489,32.433,32.433,21.979,-2.145,12.441,7.407,4.474,12.723,9.278,-4.682,4.677,5.855,6.501,6.488,5.019
Fri Nov 22 20:48:14 2024,610,-32.615,32.615,31.862,31.862,21.622,-2.118,12.752,7.490,4.518,12.847,9.346,-4.647,4.888,5.879,6.592,6.637,4.984
Fri Nov 22 20:48:14 2024,615,-32.594,32.594,31.148,31.148,21.149,-2.172,13.023,7.470,4.493,13.071,9.391,-4.678,5.080,5.849,6.593,6.888,4.950
Fri Nov 22 20:48:14 2024,620,-32.552,32.552,30.508,30.508,20.708,-2.244,13.230,7.418,4.448,13.285,9.422,-4.726,5.230,5.806,6.564,7.127,4.924
Fri Nov 22 20:48:14 2024,625,-32.534,32.534,29.914,29.914,20.291,-2.311,13.418,7.371,4.409,13.482,9.451,-4.770,5.367,5.767,6.538,7.346,4.900
Fri Nov 22 20:48:14 2024,630,-32.484,32.484,29.609,29.609,20.091,-2.295,13.654,7.334,4.421,13.576,9.453,-4.685,5.386,5.690,6.550,7.484,4.897
Fri Nov 22 20:48:14 2024,635,-32.462,32.462,29.249,29.249,19.843,-2.301,13.861,7.296,4.420,13.686,9.462,-4.637,5.432,5.628,6.554,7.632,4.890
Fri Nov 22 20:48:14 2024,640,-32.263,32.263,28.773,28.773,19.536,-2.302,14.099,7.357,4.352,13.757,9.512,-4.581,5.531,5.685,6.579,7.781,4.938
Fri Nov 22 20:48:14 2024,645,-32.120,32.120,28.391,28.391,19.282,-2.304,14.288,7.405,4.298,13.813,9.551,-4.537,5.610,5.728,6.599,7.899,4.976
Fri Nov 22 20:48:14 2024,650,-31.914,31.914,27.853,27.853,18.957,-2.266,14.506,7.446,4.279,13.873,9.645,-4.511,5.615,5.759,6.601,7.988,4.998
Fri Nov 22 20:48:14 2024,655,-31.735,31.735,27.369,27.369,18.674,-2.217,14.684,7.473,4.284,13.918,9.745,-4.502,5.577,5.774,6.592,8.037,5.004
Fri Nov 22 20:48:14 2024,660,-31.576,31.576,26.903,26.903,18.394,-2.170,14.854,7.499,4.289,13.960,9.842,-4.494,5.540,5.789,6.583,8.084,5.010
Fri Nov 22 20:48:14 2024,665,-31.386,31.386,26.370,26.370,18.028,-2.100,15.062,7.563,4.297,13.924,9.876,-4.437,5.611,5.839,6.548,8.263,5.062
Fri Nov 22 20:48:14 2024,670,-31.230,31.230,25.880,25.880,17.690,-2.037,15.250,7.618,4.305,13.900,9.916,-4.390,5.664,5.882,6.520,8.414,5.105
Fri Nov 22 20:48:14 2024,675,-31.086,31.086,25.438,25.438,17.376,-2.003,15.510,7.679,4.305,13.900,9.913,-4.294,5.757,5.876,6.509,8.547,5.090
Fri Nov 22 20:48:14 2024,680,-30.953,30.953,25.017,25.017,17.068,-1.977,15.783,7.741,4.303,13.908,9.897,-4.186,5.859,5.857,6.504,8.673,5.059
Fri Nov 22 20:48:14 2024,685,-30.854,30.854,24.677,24.677,16.815,-1.956,15.999,7.790,4.302,13.914,9.885,-4.099,5.940,5.841,6.501,8.773,5.034
Fri Nov 22 20:48:14 2024,690,-30.576,30.576,24.295,24.295,16.527,-1.877,16.309,7.931,4.321,13.949,9.930,-3.970,6.121,5.946,6.473,9.031,5.198
Fri Nov 22 20:48:14 2024,695,-30.382,30.382,23.951,23.951,16.265,-1.820,16.568,8.038,4.333,13.974,9.956,-3.862,6.261,6.011,6.454,9.225,5.301
Fri Nov 22 20:48:14 2024,700,-30.120,30.120,23.585,23.585,15.970,-1.802,16.799,8.143,4.318,14.016,9.979,-3.754,6.349,6.022,6.399,9.359,5.289
Fri Nov 22 20:48:14 2024,705,29.912,29.912,23.287,23.287,15.725,-1.792,16.976,8.226,4.303,14.052,9.997,-3.668,6.413,6.024,6.352,9.459,5.266
Fri Nov 22 20:48:14 2024,710,29.758,29.758,23.056,23.056,15.532,-1.784,17.109,8.291,4.291,14.079,10.010,-3.601,6.462,6.026,6.316,9.535,5.248
Fri Nov 22 20:48:14 2024,715,29.692,29.692,22.660,22.660,15.215,-1.586,17.418,8.337,4.352,14.008,9.945,-3.356,6.508,5.970,6.392,9.540,5.255
Fri Nov 22 20:48:14 2024,720,29.616,29.616,22.386,22.386,14.991,-1.482,17.616,8.380,4.379,13.980,9.916,-3.211,6.544,5.942,6.420,9.565,5.254
Fri Nov 22 20:48:14 2024,725,29.412,29.412,22.129,22.129,14.822,-1.455,17.708,8.480,4.334,13.967,9.916,-3.098,6.696,6.055,6.365,9.570,5.265
Fri Nov 22 20:48:14 2024,730,29.259,29.259,21.904,21.904,14.666,-1.419,17.803,8.557,4.307,13.953,9.912,-2.995,6.810,6.130,6.330,9.578,5.274
Fri Nov 22 20:48:14 2024,735,29.173,29.173,21.697,21.697,14.492,-1.372,17.872,8.637,4.308,13.896,9.916,-2.910,6.873,6.205,6.303,9.535,5.285
Fri Nov 22 20:48:14 2024,740,29.100,29.100,21.479,21.479,14.298,-1.317,17.940,8.724,4.317,13.821,9.924,-2.823,6.925,6.285,6.276,9.472,5.298
Fri Nov 22 20:48:14 2024,745,29.037,29.037,21.284,21.284,14.125,-1.269,18.001,8.801,4.326,13.753,9.931,-2.746,6.972,6.357,6.252,9.416,5.309
Fri Nov 22 20:48:14 2024,750,28.892,28.892,21.278,21.278,14.156,-1.213,18.151,8.922,4.280,13.686,9.940,-2.682,6.925,6.389,6.171,9.380,5.260
Fri Nov 22 20:48:14 2024,755,28.779,28.779,21.220,21.220,14.128,-1.162,18.268,9.025,4.251,13.620,9.948,-2.619,6.906,6.431,6.111,9.340,5.230
Fri Nov 22 20:48:14 2024,760,28.691,28.691,21.197,21.197,14.127,-1.101,18.407,9.155,4.279,13.622,10.027,-2.560,6.969,6.528,6.144,9.361,5.318
Fri Nov 22 20:48:14 2024,765,28.601,28.601,21.172,21.172,14.124,-1.039,18.547,9.287,4.305,13.621,10.105,-2.500,7.029,6.624,6.175,9.379,5.403
Fri Nov 22 20:48:14 2024,770,28.463,28.463,21.136,21.136,14.059,-0.973,18.648,9.357,4.356,13.542,10.087,-2.430,7.082,6.670,6.229,9.329,5.414
Fri Nov 22 20:48:14 2024,775,28.317,28.317,21.099,21.099,13.969,-0.913,18.716,9.384,4.414,13.430,10.019,-2.363,7.124,6.683,6.291,9.248,5.381
Fri Nov 22 20:48:14 2024,780,28.187,28.187,21.066,21.066,13.887,-0.859,18.776,9.408,4.466,13.330,9.957,-2.303,7.161,6.694,6.345,9.175,5.351
Fri Nov 22 20:48:14 2024,785,27.988,27.988,21.562,21.562,14.326,-0.813,18.759,9.477,4.525,13.244,10.003,-2.270,7.110,6.753,6.338,8.990,5.318
Fri Nov 22 20:48:14 2024,790,27.825,27.825,21.928,21.928,14.644,-0.772,18.751,9.531,4.575,13.166,10.029,-2.238,7.077,6.799,6.340,8.841,5.289
Fri Nov 22 20:48:14 2024,795,27.671,27.671,22.560,22.560,15.150,-0.698,18.796,9.646,4.626,13.063,10.014,-2.223,7.018,6.780,6.399,8.633,5.211
Fri Nov 22 20:48:14 2024,800,27.556,27.556,23.165,23.165,15.625,-0.627,18.846,9.759,4.668,12.969,9.991,-2.215,6.962,6.748,6.463,8.440,5.131
Fri Nov 22 20:48:14 2024,805,-27.461,27.461,23.734,23.734,16.069,-0.560,18.890,9.865,4.708,12.881,9.969,-2.208,6.910,6.717,6.523,8.260,5.056
Fri Nov 22 20:48:14 2024,810,-27.750,27.750,24.839,24.839,16.873,-0.597,18.779,9.977,4.721,12.834,9.934,-2.212,6.780,6.643,6.565,7.964,4.938
Fri Nov 22 20:48:14 2024,815,-27.977,27.977,25.654,25.654,17.447,-0.609,18.713,10.069,4.737,12.786,9.907,-2.214,6.686,6.589,6.601,7.738,4.848
Fri Nov 22 20:48:14 2024,820,-28.077,28.077,26.758,26.758,18.256,-0.635,18.503,10.163,4.785,12.646,9.822,-2.299,6.392,6.452,6.726,7.281,4.642
Fri Nov 22 20:48:14 2024,825,-28.223,28.223,27.630,27.630,18.875,-0.657,18.334,10.239,4.822,12.535,9.755,-2.367,6.160,6.344,6.823,6.918,4.479
Fri Nov 22 20:48:14 2024,830,-28.432,28.432,28.511,28.511,19.483,-0.681,18.160,10.316,4.860,12.421,9.687,-2.438,5.923,6.234,6.921,6.547,4.314
Fri Nov 22 20:48:14 2024,835,-28.561,28.561,28.955,28.955,19.782,-0.693,18.071,10.355,4.879,12.363,9.652,-2.475,5.803,6.178,6.970,6.359,4.231
Fri Nov 22 20:48:14 2024,840,-28.611,28.611,29.117,29.117,19.890,-0.697,18.038,10.369,4.886,12.342,9.639,-2.489,5.760,6.158,6.988,6.290,4.200
Fri Nov 22 20:48:14 2024,845,-28.624,28.624,29.163,29.163,19.921,-0.699,18.029,10.373,4.888,12.336,9.635,-2.492,5.748,6.152,6.992,6.272,4.192
Fri Nov 22 20:48:14 2024,850,-28.407,28.407,34.002,34.002,23.150,-1.107,16.946,10.861,4.716,12.191,9.932,-2.768,5.325,6.613,7.385,4.730,4.427
Fri Nov 22 20:48:14 2024,855,-28.470,28.470,35.176,35.176,23.749,-1.131,16.652,10.998,4.754,12.047,10.019,-2.912,5.006,6.634,7.528,4.304,4.430
Fri Nov 22 20:48:14 2024,860,-28.510,28.510,35.976,35.976,24.100,-1.116,16.434,11.100,4.811,11.910,10.100,-3.042,4.705,6.628,7.644,4.005,4.430
Fri Nov 22 20:48:14 2024,865,-28.600,28.600,36.641,36.641,24.381,-1.103,16.252,11.185,4.857,11.796,10.168,-3.151,4.455,6.622,7.742,3.757,4.430
Fri Nov 22 20:48:14 2024,870,-27.783,27.783,37.629,37.629,24.856,-1.147,16.546,11.111,5.088,12.301,10.150,-3.138,4.723,6.510,7.965,3.587,4.380
Fri Nov 22 20:48:14 2024,875,-27.486,27.486,38.275,38.275,25.161,-1.168,16.673,11.086,5.222,12.530,10.150,-3.149,4.825,6.448,8.104,3.450,4.352
Fri Nov 22 20:48:14 2024,880,-27.160,27.160,37.680,37.680,24.606,-1.108,16.992,11.166,5.214,12.857,9.966,-3.213,5.078,6.187,8.052,3.330,4.068
Fri Nov 22 20:48:14 2024,885,-27.010,27.010,37.072,37.072,24.018,-1.051,17.284,11.242,5.206,13.138,9.792,-3.270,5.310,5.948,7.999,3.223,3.806
Fri Nov 22 20:48:14 2024,890,-26.996,26.996,36.463,36.463,23.407,-0.994,17.560,11.313,5.203,13.391,9.627,-3.322,5.529,5.719,7.947,3.121,3.557
Fri Nov 22 20:48:14 2024,895,-26.458,26.458,36.218,36.218,23.379,-1.276,16.763,11.017,4.972,12.782,9.668,-3.686,4.623,5.779,7.560,2.978,3.840
Fri Nov 22 20:48:14 2024,900,-26.282,26.282,35.916,35.916,23.214,-1.414,16.403,10.876,4.845,12.475,9.638,-3.904,4.183,5.743,7.328,2.855,3.918
Fri Nov 22 20:48:14 2024,905,-25.630,25.630,37.106,37.106,24.164,-1.522,16.052,10.988,4.820,12.302,9.674,-4.001,3.845,5.654,7.408,2.477,3.914
Fri Nov 22 20:48:14 2024,910,-25.171,25.171,37.969,37.969,24.822,-1.626,15.726,11.053,4.780,12.112,9.696,-4.110,3.516,5.581,7.434,2.166,3.923
Fri Nov 22 20:48:14 2024,915,-25.008,25.008,37.559,37.559,24.507,-1.512,15.854,11.067,4.829,12.141,9.638,-4.063,3.574,5.537,7.667,2.078,3.949
Fri Nov 22 20:48:14 2024,920,-24.932,24.932,36.698,36.698,23.957,-1.318,15.931,11.134,4.913,12.026,9.666,-4.035,3.540,5.575,7.788,2.038,4.036
Fri Nov 22 20:48:14 2024,925,-24.860,24.860,35.857,35.857,23.447,-1.133,15.946,11.219,4.994,11.855,9.728,-4.029,3.445,5.634,7.844,1.999,4.134
Fri Nov 22 20:48:14 2024,930,-24.788,24.788,35.016,35.016,22.936,-0.948,15.962,11.303,5.076,11.684,9.790,-4.023,3.351,5.693,7.901,1.959,4.232
Fri Nov 22 20:48:14 2024,935,-24.717,24.717,34.174,34.174,22.425,-0.763,15.977,11.388,5.158,11.512,9.851,-4.017,3.256,5.752,7.958,1.920,4.331
Fri Nov 22 20:48:14 2024,940,-24.762,22.807,33.228,33.228,21.765,-0.688,16.068,11.351,5.178,11.523,9.836,-4.034,3.305,5.746,7.960,1.997,4.330
Fri Nov 22 20:48:14 2024,945,-24.886,19.673,32.212,32.212,21.004,-0.685,16.211,11.232,5.156,11.655,9.770,-4.064,3.450,5.697,7.924,2.151,4.263
Fri Nov 22 20:48:14 2024,950,-25.010,16.538,31.195,31.195,20.243,-0.682,16.353,11.113,5.134,11.786,9.704,-4.095,3.595,5.647,7.888,2.306,4.196
Fri Nov 22 20:48:14 2024,955,-25.134,13.403,30.179,30.179,19.483,-0.680,16.495,10.995,5.112,11.918,9.637,-4.126,3.740,5.598,7.853,2.461,4.129
Fri Nov 22 20:48:14 2024,960,-25.258,10.269,29.162,29.162,18.722,-0.678,16.638,10.876,5.089,12.050,9.571,-4.157,3.885,5.548,7.817,2.615,4.062
Fri Nov 22 20:48:14 2024,965,-25.382,7.134,28.146,28.146,17.961,-0.675,16.780,10.758,5.067,12.181,9.504,-4.188,4.030,5.499,7.781,2.770,3.995
Fri Nov 22 20:48:14 2024,970,-25.506,3.999,27.129,27.129,17.201,-0.672,16.922,10.639,5.045,12.313,9.438,-4.219,4.175,5.449,7.746,2.925,3.929
Fri Nov 22 20:48:14 2024,975,-25.630,0.865,26.113,26.113,16.440,-0.670,17.065,10.520,5.023,12.445,9.372,-4.249,4.320,5.400,7.710,3.079,3.862
Fri Nov 22 20:48:14 2024,980,-25.754,-2.270,25.096,25.096,15.679,-0.668,17.207,10.402,5.001,12.576,9.305,-4.280,4.465,5.350,7.674,3.234,3.795
Fri Nov 22 20:48:14 2024,985,-25.877,-5.404,24.080,24.080,14.919,-0.665,17.349,10.283,4.979,12.708,9.239,-4.311,4.610,5.301,7.639,3.388,3.728
Fri Nov 22 20:48:14 2024,990,-26.001,-8.539,23.063,23.063,14.158,-0.662,17.492,10.164,4.957,12.839,9.173,-4.342,4.755,5.251,7.603,3.543,3.661
Fri Nov 22 20:48:14 2024,995,-26.125,-11.674,22.047,22.047,13.397,-0.660,17.634,10.046,4.935,12.971,9.106,-4.373,4.900,5.202,7.567,3.698,3.594
Fri Nov 22 20:48:15 2024,0,-26.249,-14.808,21.031,21.031,12.637,-0.658,17.776,9.927,4.913,13.103,9.040,-4.404,5.045,5.152,7.532,3.852,3.527
Fri Nov 22 20:48:15 2024,5,-26.373,-17.943,20.014,20.014,11.876,-0.655,17.919,9.808,4.891,13.234,8.974,-4.435,5.190,5.103,7.496,4.007,3.460
Fri Nov 22 20:48:15 2024,10,-26.497,-21.078,18.998,18.998,11.115,-0.652,18.061,9.690,4.869,13.366,8.907,-4.465,5.335,5.053,7.460,4.162,3.393
Fri Nov 22 20:48:15 2024,15,-26.621,-24.212,17.981,17.981,10.355,-0.650,18.203,9.571,4.847,13.498,8.841,-4.496,5.480,5.004,7.425,4.316,3.327
Fri Nov 22 20:48:15 2024,20,-26.700,-26.700,16.982,16.982,9.621,-0.653,18.311,9.447,4.834,13.602,8.783,-4.528,5.597,4.953,7.389,4.453,3.254
Fri Nov 22 20:48:15 2024,25,-26.614,-26.614,15.890,15.890,8.850,-0.680,18.202,9.259,4.873,13.657,8.750,-4.562,5.592,4.865,7.361,4.532,3.211
Fri Nov 22 20:48:15 2024,30,-26.548,-26.548,15.043,15.043,8.268,-0.700,18.120,9.112,4.904,13.696,8.724,-4.588,5.588,4.797,7.338,4.594,3.174
Fri Nov 22 20:48:15 2024,35,-26.491,-26.491,14.288,14.288,7.782,-0.697,18.065,8.991,4.908,13.684,8.710,-4.604,5.581,4.735,7.269,4.676,3.110
Fri Nov 22 20:48:15 2024,40,-26.440,-26.440,13.556,13.556,7.324,-0.687,18.016,8.874,4.906,13.661,8.698,-4.618,5.572,4.675,7.188,4.764,3.041
Fri Nov 22 20:48:15 2024,45,-26.396,-26.396,12.882,12.882,6.909,-0.677,17.970,8.766,4.903,13.639,8.687,-4.630,5.566,4.619,7.113,4.845,2.979
Fri Nov 22 20:48:15 2024,50,-26.362,-26.362,12.151,12.151,6.414,-0.707,17.901,8.699,4.914,13.682,8.712,-4.721,5.482,4.533,7.058,4.965,2.959
Fri Nov 22 20:48:15 2024,55,-26.330,-26.330,11.485,11.485,5.982,-0.726,17.842,8.627,4.921,13.708,8.728,-4.789,5.421,4.459,7.002,5.069,2.932
Fri Nov 22 20:48:15 2024,60,-26.275,-26.275,10.783,10.783,5.524,-0.769,17.870,8.593,4.930,13.733,8.792,-4.794,5.425,4.476,7.037,5.117,2.947
