Timestamp,Millis,thumb_tm_aa,thumb_tm_flex,thumb_mcp_aa,thumb_mcp_flex,thumb_ip,index_mcp_aa,index_mcp_flex,index_pip,middle_mcp_aa,middle_mcp_flex,middle_pip,ring_mcp_aa,ring_mcp_flex,ring_pip,little_mcp_aa,little_mcp_flex,little_pip
Fri Nov 22 20:57:15 2024,500,-9.105,9.105,-8.052,-8.052,-9.941,1.204,18.212,6.233,7.241,12.562,10.059,-2.547,9.236,6.164,11.330,7.929,5.072
Fri Nov 22 20:57:15 2024,505,-9.102,9.102,-8.024,-8.024,-9.922,1.245,18.200,6.170,7.231,12.573,10.010,-2.513,9.270,6.142,11.229,8.012,5.035
Fri Nov 22 20:57:15 2024,510,-9.098,9.098,-8.003,-8.003,-9.906,1.270,18.183,6.127,7.221,12.583,9.974,-2.496,9.280,6.125,11.155,8.071,5.016
Fri Nov 22 20:57:15 2024,515,-9.098,9.098,-8.015,-8.015,-9.937,1.267,18.232,6.125,7.260,12.567,10.002,-2.471,9.364,6.109,11.275,7.980,4.950
Fri Nov 22 20:57:15 2024,520,-9.098,9.098,-8.022,-8.022,-9.960,1.268,18.266,6.119,7.289,12.555,10.020,-2.449,9.431,6.095,11.360,7.916,4.896
Fri Nov 22 20:57:15 2024,525,-9.012,9.012,-7.969,-7.969,-9.931,1.269,18.242,6.112,7.291,12.548,10.016,-2.489,9.406,6.097,11.330,7.947,4.958
Fri Nov 22 20:57:15 2024,530,-8.930,8.930,-7.917,-7.917,-9.901,1.269,18.213,6.107,7.288,12.544,10.010,-2.532,9.372,6.100,11.289,7.985,5.026
Fri Nov 22 20:57:15 2024,535,-8.922,8.922,-7.892,-7.892,-9.895,1.254,18.232,6.130,7.276,12.550,10.001,-2.551,9.378,6.108,11.273,8.002,5.043
Fri Nov 22 20:57:15 2024,540,-9.051,9.051,-7.910,-7.910,-9.933,1.209,18.347,6.213,7.240,12.579,9.986,-2.537,9.461,6.125,11.298,7.982,4.972
Fri Nov 22 20:57:15 2024,545,-9.161,9.161,-7.923,-7.923,-9.964,1.170,18.445,6.285,7.208,12.604,9.972,-2.526,9.531,6.140,11.317,7.966,4.913
Fri Nov 22 20:57:15 2024,550,-9.095,9.095,-7.903,-7.903,-9.948,1.139,18.397,6.210,7.200,12.619,9.980,-2.558,9.491,6.145,11.294,7.986,4.965
Fri Nov 22 20:57:15 2024,555,-9.038,9.038,-7.886,-7.886,-9.933,1.116,18.350,6.146,7.194,12.630,9.988,-2.584,9.456,6.148,11.275,8.002,5.010
Fri Nov 22 20:57:15 2024,560,-9.025,9.025,-7.920,-7.920,-9.931,1.148,18.321,6.113,7.212,12.613,9.970,-2.569,9.440,6.106,11.275,8.009,4.990
Fri Nov 22 20:57:15 2024,565,-9.037,9.037,-7.965,-7.965,-9.936,1.196,18.310,6.107,7.233,12.591,9.947,-2.542,9.440,6.058,11.284,8.009,4.948
Fri Nov 22 20:57:15 2024,570,-9.050,9.050,-8.017,-8.017,-9.942,1.250,18.295,6.100,7.258,12.565,9.921,-2.510,9.439,6.004,11.294,8.009,4.899
Fri Nov 22 20:57:15 2024,575,-8.981,8.981,-7.937,-7.937,-9.928,1.162,18.284,6.147,7.180,12.613,9.914,-2.608,9.326,6.012,11.207,8.022,4.840
Fri Nov 22 20:57:15 2024,580,-8.929,8.929,-7.882,-7.882,-9.917,1.100,18.268,6.183,7.121,12.645,9.904,-2.681,9.235,6.010,11.139,8.031,4.785
Fri Nov 22 20:57:15 2024,585,-8.956,8.956,-7.832,-7.832,-9.877,1.078,18.260,6.210,7.116,12.645,9.918,-2.690,9.183,6.036,11.128,8.028,4.832
Fri Nov 22 20:57:15 2024,590,-9.060,9.060,-7.791,-7.791,-9.811,1.097,18.263,6.229,7.162,12.614,9.955,-2.634,9.173,6.084,11.170,8.018,4.974
Fri Nov 22 20:57:15 2024,595,-9.120,9.120,-7.758,-7.758,-9.766,1.101,18.263,6.245,7.185,12.597,9.978,-2.608,9.155,6.115,11.190,8.012,5.061
Fri Nov 22 20:57:15 2024,600,-8.975,8.975,-7.849,-7.849,-9.855,1.146,18.264,6.257,7.173,12.606,9.986,-2.570,9.313,6.146,11.204,7.989,4.967
Fri Nov 22 20:57:15 2024,605,-8.898,8.898,-7.899,-7.899,-9.899,1.177,18.263,6.269,7.172,12.606,9.998,-2.537,9.411,6.176,11.219,7.972,4.932
Fri Nov 22 20:57:15 2024,610,-8.950,8.950,-7.848,-7.848,-9.901,1.194,18.273,6.327,7.180,12.587,10.010,-2.588,9.340,6.150,11.184,7.957,4.873
Fri Nov 22 20:57:15 2024,615,-8.996,8.996,-7.804,-7.804,-9.901,1.204,18.280,6.372,7.187,12.573,10.019,-2.631,9.279,6.127,11.156,7.945,4.829
Fri Nov 22 20:57:15 2024,620,-9.042,9.042,-7.780,-7.780,-9.875,1.226,18.245,6.372,7.178,12.570,9.989,-2.608,9.268,6.102,11.145,7.940,4.778
Fri Nov 22 20:57:15 2024,625,-9.070,9.070,-7.776,-7.776,-9.845,1.244,18.198,6.347,7.166,12.576,9.947,-2.552,9.292,6.086,11.149,7.942,4.744
Fri Nov 22 20:57:15 2024,630,-9.100,9.100,-7.772,-7.772,-9.812,1.264,18.148,6.319,7.151,12.581,9.903,-2.495,9.317,6.068,11.154,7.943,4.709
Fri Nov 22 20:57:15 2024,635,-9.112,9.112,-7.754,-7.754,-9.867,1.176,18.282,6.402,7.151,12.630,10.042,-2.493,9.492,6.180,11.228,7.937,4.811
Fri Nov 22 20:57:15 2024,640,-9.125,9.125,-7.741,-7.741,-9.902,1.113,18.373,6.458,7.149,12.662,10.137,-2.486,9.621,6.258,11.284,7.930,4.880
Fri Nov 22 20:57:15 2024,645,-9.084,9.084,-7.790,-7.790,-9.883,1.144,18.329,6.374,7.140,12.656,10.057,-2.488,9.521,6.190,11.237,7.959,4.837
Fri Nov 22 20:57:15 2024,650,-9.035,9.035,-7.847,-7.847,-9.854,1.190,18.262,6.268,7.130,12.640,9.949,-2.491,9.382,6.098,11.174,7.992,4.774
Fri Nov 22 20:57:15 2024,655,-8.998,8.998,-7.892,-7.892,-9.832,1.226,18.209,6.186,7.123,12.628,9.864,-2.494,9.273,6.026,11.124,8.017,4.726
Fri Nov 22 20:57:15 2024,660,-9.033,9.033,-7.829,-7.829,-9.837,1.199,18.238,6.276,7.155,12.585,9.937,-2.510,9.322,6.079,11.108,8.022,4.779
Fri Nov 22 20:57:15 2024,665,-9.045,9.045,-7.800,-7.800,-9.835,1.191,18.244,6.314,7.174,12.554,9.961,-2.522,9.325,6.095,11.085,8.032,4.800
Fri Nov 22 20:57:15 2024,670,-8.996,8.996,-7.804,-7.804,-9.822,1.201,18.224,6.342,7.164,12.572,10.029,-2.526,9.230,6.120,11.102,8.015,4.848
Fri Nov 22 20:57:15 2024,675,-8.949,8.949,-7.809,-7.809,-9.809,1.210,18.204,6.367,7.154,12.589,10.091,-2.530,9.139,6.143,11.118,7.999,4.892
Fri Nov 22 20:57:15 2024,680,-8.944,8.944,-7.826,-7.826,-9.810,1.222,18.185,6.386,7.150,12.595,10.125,-2.523,9.112,6.165,11.133,7.982,4.910
Fri Nov 22 20:57:15 2024,685,-9.060,9.060,-7.887,-7.887,-9.851,1.247,18.167,6.390,7.162,12.573,10.091,-2.479,9.267,6.189,11.148,7.953,4.854
Fri Nov 22 20:57:15 2024,690,-9.094,9.094,-7.907,-7.907,-9.863,1.257,18.149,6.388,7.160,12.565,10.070,-2.466,9.309,6.194,11.139,7.947,4.823
Fri Nov 22 20:57:15 2024,695,-9.000,9.000,-7.842,-7.842,-9.826,1.240,18.124,6.344,7.128,12.576,10.004,-2.512,9.187,6.137,11.039,8.004,4.776
Fri Nov 22 20:57:15 2024,700,-8.932,8.932,-7.794,-7.794,-9.798,1.228,18.103,6.311,7.104,12.583,9.954,-2.546,9.096,6.094,10.964,8.046,4.738
Fri Nov 22 20:57:15 2024,705,-8.942,8.942,-7.798,-7.798,-9.801,1.212,18.185,6.365,7.081,12.611,9.979,-2.532,9.178,6.135,10.970,8.052,4.738
Fri Nov 22 20:57:15 2024,710,-9.012,9.012,-7.841,-7.841,-9.829,1.196,18.337,6.482,7.061,12.654,10.059,-2.482,9.388,6.237,11.040,8.031,4.769
Fri Nov 22 20:57:15 2024,715,-9.036,9.036,-7.845,-7.845,-9.836,1.186,18.403,6.538,7.054,12.676,10.104,-2.454,9.503,6.296,11.080,8.024,4.807
Fri Nov 22 20:57:15 2024,720,-8.996,8.996,-7.768,-7.768,-9.816,1.178,18.367,6.532,7.078,12.669,10.137,-2.430,9.573,6.336,11.126,8.033,4.931
Fri Nov 22 20:57:15 2024,725,-8.973,8.973,-7.718,-7.718,-9.803,1.172,18.350,6.534,7.092,12.667,10.163,-2.412,9.629,6.368,11.159,8.037,5.014
Fri Nov 22 20:57:15 2024,730,-8.977,8.977,-7.711,-7.711,-9.788,1.243,18.289,6.512,7.152,12.598,10.147,-2.400,9.545,6.322,11.185,7.973,4.944
Fri Nov 22 20:57:15 2024,735,-8.993,8.993,-7.722,-7.722,-9.772,1.343,18.212,6.481,7.228,12.506,10.114,-2.392,9.405,6.246,11.207,7.885,4.816
Fri Nov 22 20:57:15 2024,740,-8.985,8.985,-7.709,-7.709,-9.738,1.340,18.231,6.456,7.202,12.543,10.106,-2.420,9.404,6.218,11.166,7.948,4.838
Fri Nov 22 20:57:15 2024,745,-8.970,8.970,-7.693,-7.693,-9.700,1.297,18.288,6.434,7.135,12.629,10.107,-2.462,9.451,6.210,11.101,8.066,4.909
Fri Nov 22 20:57:15 2024,750,-8.956,8.956,-7.678,-7.678,-9.664,1.258,18.339,6.414,7.073,12.708,10.108,-2.501,9.493,6.200,11.040,8.173,4.975
Fri Nov 22 20:57:15 2024,755,-8.932,8.932,-7.749,-7.749,-9.747,1.301,18.320,6.462,7.120,12.641,10.127,-2.420,9.565,6.260,11.207,7.983,4.921
Fri Nov 22 20:57:15 2024,760,-8.913,8.913,-7.800,-7.800,-9.804,1.328,18.310,6.494,7.148,12.600,10.141,-2.364,9.623,6.303,11.325,7.852,4.888
Fri Nov 22 20:57:15 2024,765,-8.929,8.929,-7.807,-7.807,-9.817,1.257,18.405,6.465,7.138,12.652,10.157,-2.386,9.692,6.308,11.314,7.929,4.958
Fri Nov 22 20:57:15 2024,770,-8.947,8.947,-7.807,-7.807,-9.823,1.187,18.494,6.433,7.126,12.703,10.170,-2.412,9.750,6.307,11.290,8.015,5.027
Fri Nov 22 20:57:15 2024,775,-8.966,8.966,-7.808,-7.808,-9.829,1.110,18.592,6.397,7.111,12.755,10.184,-2.442,9.813,6.307,11.263,8.107,5.103
Fri Nov 22 20:57:15 2024,780,-8.889,8.889,-7.858,-7.858,-9.802,1.189,18.501,6.468,7.116,12.728,10.261,-2.440,9.762,6.377,11.295,8.071,5.150
Fri Nov 22 20:57:15 2024,785,-8.844,8.844,-7.891,-7.891,-9.786,1.221,18.467,6.504,7.115,12.724,10.315,-2.447,9.745,6.422,11.310,8.070,5.199
Fri Nov 22 20:57:15 2024,790,-8.820,8.820,-7.889,-7.889,-9.785,1.242,18.444,6.492,7.110,12.726,10.319,-2.460,9.738,6.427,11.309,8.082,5.225
Fri Nov 22 20:57:15 2024,795,-8.805,8.805,-7.864,-7.864,-9.795,1.260,18.419,6.447,7.103,12.732,10.294,-2.480,9.737,6.409,11.298,8.105,5.241
Fri Nov 22 20:57:15 2024,800,-8.798,8.798,-7.829,-7.829,-9.781,1.274,18.406,6.424,7.097,12.737,10.283,-2.489,9.735,6.405,11.292,8.111,5.246
Fri Nov 22 20:57:15 2024,805,-8.822,8.822,-7.726,-7.726,-9.718,1.277,18.416,6.404,7.088,12.744,10.264,-2.487,9.740,6.402,11.284,8.093,5.215
Fri Nov 22 20:57:15 2024,810,-8.836,8.836,-7.650,-7.650,-9.675,1.283,18.417,6.385,7.080,12.750,10.248,-2.488,9.744,6.398,11.278,8.083,5.196
Fri Nov 22 20:57:15 2024,815,-8.990,8.990,-7.762,-7.762,-9.745,1.266,18.458,6.434,7.103,12.743,10.248,-2.455,9.875,6.407,11.375,8.048,5.242
Fri Nov 22 20:57:15 2024,820,-9.090,9.090,-7.820,-7.820,-9.782,1.256,18.485,6.462,7.117,12.739,10.246,-2.434,9.958,6.412,11.436,8.022,5.269
Fri Nov 22 20:57:15 2024,825,-8.992,8.992,-7.762,-7.762,-9.743,1.235,18.468,6.431,7.105,12.740,10.219,-2.473,9.894,6.365,11.364,8.053,5.166
Fri Nov 22 20:57:15 2024,830,-8.862,8.862,-7.684,-7.684,-9.693,1.212,18.440,6.390,7.090,12.742,10.189,-2.521,9.803,6.311,11.271,8.090,5.046
Fri Nov 22 20:57:15 2024,835,-8.779,8.779,-7.632,-7.632,-9.655,1.202,18.429,6.373,7.082,12.744,10.181,-2.543,9.767,6.295,11.230,8.104,4.994
Fri Nov 22 20:57:15 2024,840,-8.785,8.785,-7.625,-7.625,-9.631,1.226,18.473,6.427,7.089,12.743,10.241,-2.493,9.891,6.397,11.337,8.059,5.130
Fri Nov 22 20:57:15 2024,845,-8.774,8.774,-7.610,-7.610,-9.607,1.240,18.498,6.461,7.093,12.742,10.282,-2.462,9.969,6.464,11.402,8.029,5.214
Fri Nov 22 20:57:15 2024,850,-8.795,8.795,-7.611,-7.611,-9.599,1.200,18.462,6.426,7.073,12.759,10.252,-2.516,9.853,6.400,11.329,8.066,5.138
Fri Nov 22 20:57:15 2024,855,-8.814,8.814,-7.610,-7.610,-9.589,1.164,18.424,6.398,7.055,12.775,10.229,-2.561,9.753,6.347,11.268,8.095,5.077
Fri Nov 22 20:57:15 2024,860,-8.828,8.828,-7.609,-7.609,-9.582,1.136,18.391,6.377,7.042,12.786,10.212,-2.596,9.679,6.308,11.221,8.117,5.031
Fri Nov 22 20:57:15 2024,865,-8.855,8.855,-7.646,-7.646,-9.634,1.180,18.519,6.437,7.072,12.773,10.285,-2.496,9.923,6.393,11.324,8.082,5.085
Fri Nov 22 20:57:15 2024,870,-8.871,8.871,-7.663,-7.663,-9.656,1.193,18.560,6.459,7.082,12.770,10.313,-2.460,10.014,6.421,11.358,8.072,5.097
Fri Nov 22 20:57:15 2024,875,-8.896,8.896,-7.645,-7.645,-9.674,1.227,18.526,6.361,7.122,12.740,10.260,-2.498,9.800,6.306,11.311,8.071,5.005
Fri Nov 22 20:57:15 2024,880,-8.915,8.915,-7.635,-7.635,-9.691,1.252,18.507,6.297,7.150,12.719,10.229,-2.517,9.669,6.232,11.285,8.068,4.945
Fri Nov 22 20:57:15 2024,885,-8.954,8.954,-7.585,-7.585,-9.661,1.225,18.521,6.356,7.107,12.747,10.232,-2.534,9.678,6.260,11.264,8.067,4.940
Fri Nov 22 20:57:15 2024,890,-8.988,8.988,-7.536,-7.536,-9.629,1.193,18.538,6.425,7.058,12.777,10.241,-2.546,9.714,6.301,11.248,8.066,4.947
Fri Nov 22 20:57:15 2024,895,-9.020,9.020,-7.489,-7.489,-9.598,1.162,18.552,6.493,7.012,12.805,10.250,-2.557,9.749,6.342,11.233,8.065,4.954
Fri Nov 22 20:57:15 2024,900,-8.951,8.951,-7.584,-7.584,-9.701,1.170,18.514,6.342,7.076,12.740,10.169,-2.570,9.517,6.198,11.178,8.015,4.737
Fri Nov 22 20:57:15 2024,905,-8.917,8.917,-7.630,-7.630,-9.758,1.167,18.494,6.266,7.103,12.707,10.120,-2.582,9.381,6.119,11.139,7.980,4.604
Fri Nov 22 20:57:15 2024,910,-9.008,9.008,-7.539,-7.539,-9.657,1.237,18.415,6.349,7.151,12.638,10.096,-2.573,9.368,6.112,11.103,7.986,4.634
Fri Nov 22 20:57:15 2024,915,-9.083,9.083,-7.464,-7.464,-9.574,1.294,18.352,6.418,7.190,12.582,10.078,-2.566,9.358,6.108,11.074,7.992,4.661
Fri Nov 22 20:57:15 2024,920,-9.081,9.081,-7.486,-7.486,-9.605,1.288,18.353,6.396,7.175,12.590,10.027,-2.559,9.395,6.075,11.079,7.993,4.614
Fri Nov 22 20:57:15 2024,925,-9.040,9.040,-7.556,-7.556,-9.696,1.251,18.386,6.328,7.132,12.631,9.956,-2.550,9.457,6.026,11.099,7.992,4.528
Fri Nov 22 20:57:15 2024,930,-9.005,9.005,-7.618,-7.618,-9.773,1.218,18.415,6.271,7.095,12.667,9.898,-2.544,9.509,5.985,11.116,7.990,4.455
Fri Nov 22 20:57:15 2024,935,-9.068,9.068,-7.607,-7.607,-9.756,1.269,18.449,6.369,7.146,12.633,9.973,-2.532,9.556,6.037,11.161,8.002,4.585
Fri Nov 22 20:57:15 2024,940,-9.110,9.110,-7.610,-7.610,-9.758,1.302,18.473,6.433,7.177,12.614,10.019,-2.521,9.602,6.069,11.198,8.010,4.671
Fri Nov 22 20:57:15 2024,945,-9.071,9.071,-7.554,-7.554,-9.734,1.303,18.439,6.409,7.191,12.591,10.002,-2.508,9.562,6.068,11.232,7.965,4.660
Fri Nov 22 20:57:15 2024,950,-9.021,9.021,-7.492,-7.492,-9.707,1.298,18.395,6.373,7.200,12.569,9.974,-2.496,9.510,6.062,11.264,7.914,4.634
Fri Nov 22 20:57:15 2024,955,-8.983,8.983,-7.444,-7.444,-9.686,1.294,18.358,6.345,7.208,12.551,9.953,-2.487,9.470,6.058,11.289,7.874,4.614
Fri Nov 22 20:57:15 2024,960,-8.914,8.914,-7.484,-7.484,-9.671,1.268,18.364,6.359,7.172,12.587,9.927,-2.586,9.459,6.048,11.206,7.983,4.718
Fri Nov 22 20:57:15 2024,965,-8.859,8.859,-7.497,-7.497,-9.656,1.250,18.356,6.360,7.151,12.605,9.905,-2.648,9.440,6.040,11.160,8.040,4.779
Fri Nov 22 20:57:15 2024,970,-8.942,8.942,-7.494,-7.494,-9.662,1.269,18.324,6.370,7.184,12.578,9.958,-2.626,9.418,6.069,11.200,7.980,4.761
Fri Nov 22 20:57:15 2024,975,-9.026,9.026,-7.490,-7.490,-9.668,1.288,18.294,6.378,7.217,12.550,10.010,-2.604,9.396,6.098,11.238,7.919,4.744
Fri Nov 22 20:57:15 2024,980,-8.998,8.998,-7.516,-7.516,-9.679,1.261,18.326,6.377,7.199,12.576,10.026,-2.625,9.426,6.112,11.293,7.893,4.768
Fri Nov 22 20:57:15 2024,985,-8.936,8.936,-7.549,-7.549,-9.691,1.220,18.377,6.372,7.165,12.618,10.028,-2.657,9.469,6.120,11.345,7.881,4.805
Fri Nov 22 20:57:15 2024,990,-8.875,8.875,-7.583,-7.583,-9.703,1.180,18.427,6.366,7.132,12.661,10.030,-2.689,9.511,6.128,11.398,7.867,4.841
Fri Nov 22 20:57:15 2024,995,-8.920,8.920,-7.582,-7.582,-9.695,1.266,18.340,6.389,7.187,12.584,10.029,-2.676,9.407,6.092,11.336,7.857,4.762
Fri Nov 22 20:57:16 2024,0,-8.950,8.950,-7.584,-7.584,-9.690,1.333,18.274,6.406,7.229,12.524,10.029,-2.670,9.327,6.062,11.291,7.845,4.702
Fri Nov 22 20:57:16 2024,5,-8.939,8.939,-7.580,-7.580,-9.674,1.344,18.242,6.400,7.232,12.516,10.034,-2.660,9.316,6.079,11.276,7.836,4.706
Fri Nov 22 20:57:16 2024,10,-8.875,8.875,-7.564,-7.564,-9.633,1.301,18.228,6.363,7.194,12.564,10.046,-2.637,9.380,6.158,11.285,7.824,4.786
Fri Nov 22 20:57:16 2024,15,-8.866,8.866,-7.552,-7.552,-9.626,1.286,18.234,6.356,7.188,12.576,10.056,-2.625,9.412,6.183,11.286,7.817,4.802
Fri Nov 22 20:57:16 2024,20,-8.911,8.911,-7.529,-7.529,-9.656,1.271,18.291,6.373,7.202,12.576,10.073,-2.612,9.467,6.184,11.294,7.811,4.777
Fri Nov 22 20:57:16 2024,25,-8.947,8.947,-7.509,-7.509,-9.678,1.256,18.338,6.387,7.213,12.577,10.087,-2.601,9.515,6.187,11.301,7.805,4.758
Fri Nov 22 20:57:16 2024,30,-8.924,8.924,-7.542,-7.542,-9.684,1.274,18.290,6.318,7.216,12.584,10.100,-2.595,9.466,6.200,11.268,7.876,4.824
Fri Nov 22 20:57:16 2024,35,-8.910,8.910,-7.567,-7.567,-9.690,1.286,18.256,6.268,7.219,12.589,10.112,-2.590,9.431,6.209,11.243,7.931,4.873
Fri Nov 22 20:57:16 2024,40,-8.898,8.898,-7.591,-7.591,-9.695,1.278,18.225,6.235,7.213,12.594,10.097,-2.589,9.408,6.202,11.230,7.964,4.902
Fri Nov 22 20:57:16 2024,45,-8.894,8.894,-7.611,-7.611,-9.695,1.232,18.202,6.240,7.192,12.600,10.035,-2.596,9.411,6.167,11.244,7.954,4.892
Fri Nov 22 20:57:16 2024,50,-8.898,8.898,-7.621,-7.621,-9.697,1.216,18.184,6.265,7.185,12.594,10.020,-2.600,9.397,6.160,11.254,7.936,4.882
Fri Nov 22 20:57:16 2024,55,-8.933,8.933,-7.607,-7.607,-9.701,1.243,18.186,6.403,7.212,12.546,10.099,-2.612,9.335,6.212,11.281,7.841,4.829
Fri Nov 22 20:57:16 2024,60,-8.962,8.962,-7.595,-7.595,-9.703,1.266,18.187,6.516,7.234,12.506,10.162,-2.622,9.284,6.255,11.303,7.763,4.786
Fri Nov 22 20:57:16 2024,65,-8.924,8.924,-7.526,-7.526,-9.648,1.297,18.186,6.505,7.257,12.501,10.168,-2.579,9.308,6.264,11.292,7.812,4.844
Fri Nov 22 20:57:16 2024,70,-8.890,8.890,-7.469,-7.469,-9.601,1.320,18.184,6.486,7.274,12.500,10.167,-2.543,9.332,6.268,11.282,7.859,4.895
Fri Nov 22 20:57:16 2024,75,-8.856,8.856,-7.412,-7.412,-9.554,1.343,18.181,6.468,7.291,12.499,10.166,-2.507,9.357,6.272,11.270,7.907,4.948
Fri Nov 22 20:57:16 2024,80,-8.920,8.920,-7.450,-7.450,-9.609,1.324,18.216,6.511,7.256,12.503,10.102,-2.554,9.320,6.236,11.306,7.836,4.898
Fri Nov 22 20:57:16 2024,85,-8.950,8.950,-7.460,-7.460,-9.631,1.316,18.236,6.533,7.239,12.506,10.065,-2.574,9.302,6.217,11.324,7.805,4.879
Fri Nov 22 20:57:16 2024,90,-8.901,8.901,-7.428,-7.428,-9.610,1.319,18.215,6.525,7.249,12.480,10.042,-2.562,9.274,6.207,11.328,7.788,4.888
Fri Nov 22 20:57:16 2024,95,-8.855,8.855,-7.398,-7.398,-9.590,1.322,18.196,6.518,7.259,12.456,10.020,-2.550,9.248,6.197,11.332,7.772,4.896
Fri Nov 22 20:57:16 2024,100,-8.858,8.858,-7.405,-7.405,-9.585,1.330,18.188,6.518,7.256,12.456,10.016,-2.556,9.225,6.180,11.304,7.782,4.861
Fri Nov 22 20:57:16 2024,105,-8.990,8.990,-7.515,-7.515,-9.612,1.355,18.205,6.540,7.220,12.523,10.055,-2.608,9.197,6.131,11.173,7.867,4.691
Fri Nov 22 20:57:16 2024,110,-9.054,9.054,-7.569,-7.569,-9.624,1.369,18.210,6.551,7.202,12.554,10.073,-2.634,9.178,6.104,11.104,7.908,4.604
Fri Nov 22 20:57:16 2024,115,-8.983,8.983,-7.539,-7.539,-9.664,1.373,18.250,6.542,7.224,12.523,10.041,-2.624,9.306,6.158,11.259,7.857,4.744
Fri Nov 22 20:57:16 2024,120,-8.931,8.931,-7.520,-7.520,-9.701,1.379,18.285,6.535,7.240,12.500,10.016,-2.619,9.415,6.201,11.385,7.814,4.854
Fri Nov 22 20:57:16 2024,125,-8.940,8.940,-7.490,-7.490,-9.662,1.400,18.266,6.569,7.246,12.486,10.025,-2.609,9.440,6.232,11.416,7.794,4.887
Fri Nov 22 20:57:16 2024,130,-9.010,9.010,-7.438,-7.438,-9.540,1.439,18.192,6.650,7.245,12.480,10.069,-2.589,9.393,6.259,11.368,7.791,4.857
Fri Nov 22 20:57:16 2024,135,-9.040,9.040,-7.438,-7.438,-9.493,1.460,18.149,6.693,7.246,12.464,10.088,-2.579,9.382,6.290,11.353,7.787,4.852
Fri Nov 22 20:57:16 2024,140,-9.030,9.030,-7.557,-7.557,-9.559,1.449,18.121,6.692,7.246,12.430,10.077,-2.586,9.389,6.328,11.343,7.801,4.849
Fri Nov 22 20:57:16 2024,145,-9.029,9.029,-7.641,-7.641,-9.597,1.445,18.091,6.699,7.247,12.401,10.073,-2.588,9.391,6.360,11.333,7.810,4.846
Fri Nov 22 20:57:16 2024,150,-9.022,9.022,-7.628,-7.628,-9.587,1.489,18.056,6.694,7.261,12.396,10.089,-2.550,9.409,6.380,11.360,7.771,4.862
Fri Nov 22 20:57:16 2024,155,-9.015,9.015,-7.611,-7.611,-9.574,1.535,18.020,6.688,7.275,12.391,10.106,-2.509,9.428,6.400,11.388,7.730,4.880
Fri Nov 22 20:57:16 2024,160,-9.011,9.011,-7.587,-7.587,-9.549,1.566,17.986,6.652,7.310,12.363,10.102,-2.496,9.407,6.386,11.417,7.725,4.919
Fri Nov 22 20:57:16 2024,165,-9.008,9.008,-7.566,-7.566,-9.527,1.585,17.962,6.618,7.342,12.335,10.093,-2.494,9.380,6.368,11.439,7.732,4.953
Fri Nov 22 20:57:16 2024,170,-9.004,9.004,-7.541,-7.541,-9.500,1.607,17.933,6.577,7.379,12.301,10.081,-2.492,9.347,6.345,11.465,7.739,4.994
Fri Nov 22 20:57:16 2024,175,-9.006,9.006,-7.542,-7.542,-9.494,1.561,18.022,6.706,7.345,12.340,10.169,-2.493,9.408,6.429,11.420,7.766,5.014
Fri Nov 22 20:57:16 2024,180,-9.007,9.007,-7.538,-7.538,-9.486,1.530,18.084,6.797,7.324,12.365,10.234,-2.492,9.449,6.488,11.390,7.787,5.036
Fri Nov 22 20:57:16 2024,185,-8.963,8.963,-7.527,-7.527,-9.485,1.516,18.061,6.756,7.334,12.354,10.176,-2.503,9.418,6.434,11.368,7.776,4.963
Fri Nov 22 20:57:16 2024,190,-8.893,8.893,-7.510,-7.510,-9.489,1.515,17.985,6.633,7.363,12.320,10.043,-2.519,9.344,6.311,11.353,7.747,4.835
Fri Nov 22 20:57:16 2024,195,-8.836,8.836,-7.496,-7.496,-9.492,1.511,17.927,6.543,7.385,12.296,9.943,-2.533,9.288,6.217,11.338,7.724,4.734
Fri Nov 22 20:57:16 2024,200,-8.864,8.864,-7.454,-7.454,-9.443,1.509,17.960,6.607,7.345,12.344,10.048,-2.562,9.279,6.280,11.303,7.776,4.812
Fri Nov 22 20:57:16 2024,205,-8.869,8.869,-7.427,-7.427,-9.414,1.506,17.968,6.627,7.326,12.366,10.089,-2.583,9.262,6.298,11.280,7.802,4.838
Fri Nov 22 20:57:16 2024,210,-8.882,8.882,-7.468,-7.468,-9.442,1.518,17.999,6.607,7.353,12.364,10.057,-2.548,9.296,6.258,11.300,7.788,4.826
Fri Nov 22 20:57:16 2024,215,-8.891,8.891,-7.497,-7.497,-9.462,1.526,18.021,6.592,7.372,12.362,10.034,-2.524,9.320,6.230,11.313,7.778,4.817
Fri Nov 22 20:57:16 2024,220,-8.857,8.857,-7.508,-7.508,-9.488,1.530,18.020,6.592,7.380,12.352,10.026,-2.504,9.339,6.223,11.324,7.765,4.796
Fri Nov 22 20:57:16 2024,225,-8.749,8.749,-7.484,-7.484,-9.519,1.523,17.979,6.621,7.368,12.332,10.045,-2.498,9.346,6.258,11.331,7.750,4.756
Fri Nov 22 20:57:16 2024,230,-8.685,8.685,-7.473,-7.473,-9.541,1.520,17.956,6.636,7.363,12.318,10.053,-2.490,9.354,6.276,11.337,7.740,4.730
Fri Nov 22 20:57:16 2024,235,-8.768,8.768,-7.450,-7.450,-9.477,1.493,18.030,6.639,7.357,12.375,10.074,-2.551,9.379,6.254,11.304,7.811,4.784
Fri Nov 22 20:57:16 2024,240,-8.820,8.820,-7.432,-7.432,-9.431,1.471,18.082,6.644,7.351,12.414,10.091,-2.596,9.398,6.241,11.280,7.863,4.821
Fri Nov 22 20:57:16 2024,245,-8.813,8.813,-7.476,-7.476,-9.476,1.492,18.072,6.601,7.367,12.389,10.061,-2.571,9.375,6.210,11.339,7.817,4.814
Fri Nov 22 20:57:16 2024,250,-8.803,8.803,-7.514,-7.514,-9.517,1.511,18.060,6.564,7.381,12.365,10.035,-2.546,9.353,6.184,11.391,7.774,4.806
Fri Nov 22 20:57:16 2024,255,-8.792,8.792,-7.558,-7.558,-9.564,1.533,18.046,6.522,7.396,12.338,10.004,-2.518,9.328,6.154,11.452,7.726,4.796
Fri Nov 22 20:57:16 2024,260,-8.756,8.756,-7.581,-7.581,-9.561,1.474,18.060,6.518,7.324,12.388,9.988,-2.579,9.322,6.162,11.362,7.796,4.788
Fri Nov 22 20:57:16 2024,265,-8.729,8.729,-7.606,-7.606,-9.571,1.441,18.065,6.505,7.280,12.413,9.969,-2.613,9.312,6.160,11.317,7.830,4.780
Fri Nov 22 20:57:16 2024,270,-8.751,8.751,-7.593,-7.593,-9.564,1.528,18.056,6.557,7.339,12.360,9.985,-2.576,9.303,6.170,11.356,7.777,4.780
Fri Nov 22 20:57:16 2024,275,-8.772,8.772,-7.580,-7.580,-9.557,1.612,18.040,6.606,7.395,12.310,10.000,-2.541,9.294,6.178,11.392,7.727,4.780
Fri Nov 22 20:57:16 2024,280,-8.789,8.789,-7.570,-7.570,-9.551,1.684,18.021,6.649,7.444,12.266,10.014,-2.511,9.285,6.186,11.423,7.684,4.781
Fri Nov 22 20:57:16 2024,285,-8.701,8.701,-7.548,-7.548,-9.510,1.559,18.043,6.633,7.372,12.359,10.087,-2.572,9.400,6.279,11.358,7.849,4.950
Fri Nov 22 20:57:16 2024,290,-8.660,8.660,-7.533,-7.533,-9.486,1.516,18.044,6.639,7.349,12.394,10.132,-2.594,9.458,6.332,11.334,7.922,5.043
Fri Nov 22 20:57:16 2024,295,-8.746,8.746,-7.577,-7.577,-9.554,1.529,18.093,6.647,7.395,12.366,10.157,-2.529,9.515,6.345,11.433,7.827,5.045
Fri Nov 22 20:57:16 2024,300,-8.797,8.797,-7.604,-7.604,-9.596,1.529,18.125,6.653,7.421,12.352,10.182,-2.490,9.564,6.363,11.496,7.777,5.063
Fri Nov 22 20:57:16 2024,305,-8.835,8.835,-7.623,-7.623,-9.626,1.530,18.148,6.657,7.441,12.343,10.199,-2.461,9.601,6.376,11.542,7.739,5.077
Fri Nov 22 20:57:16 2024,310,-8.827,8.827,-7.678,-7.678,-9.627,1.504,18.146,6.671,7.348,12.401,10.138,-2.542,9.448,6.272,11.462,7.759,4.874
Fri Nov 22 20:57:16 2024,315,-8.839,8.839,-7.712,-7.712,-9.640,1.492,18.155,6.679,7.313,12.422,10.117,-2.568,9.393,6.228,11.444,7.752,4.785
Fri Nov 22 20:57:16 2024,320,-8.808,8.808,-7.667,-7.667,-9.581,1.458,18.149,6.656,7.287,12.458,10.151,-2.430,9.491,6.313,11.380,7.849,4.922
Fri Nov 22 20:57:16 2024,325,-8.791,8.791,-7.648,-7.648,-9.546,1.433,18.146,6.644,7.260,12.487,10.167,-2.349,9.538,6.355,11.334,7.910,4.985
Fri Nov 22 20:57:16 2024,330,-8.810,8.810,-7.545,-7.545,-9.529,1.433,18.135,6.620,7.250,12.492,10.123,-2.307,9.532,6.287,11.335,7.864,4.862
Fri Nov 22 20:57:16 2024,335,-8.826,8.826,-7.460,-7.460,-9.514,1.433,18.125,6.600,7.242,12.497,10.086,-2.271,9.526,6.230,11.335,7.825,4.760
Fri Nov 22 20:57:16 2024,340,-8.841,8.841,-7.382,-7.382,-9.501,1.433,18.116,6.582,7.235,12.501,10.052,-2.238,9.521,6.178,11.335,7.789,4.667
Fri Nov 22 20:57:16 2024,345,-8.858,8.858,-7.450,-7.450,-9.440,1.445,18.129,6.636,7.256,12.499,10.160,-2.272,9.574,6.288,11.326,7.905,4.908
Fri Nov 22 20:57:16 2024,350,-8.874,8.874,-7.461,-7.461,-9.398,1.453,18.133,6.663,7.266,12.499,10.213,-2.281,9.604,6.335,11.320,7.961,5.021
Fri Nov 22 20:57:16 2024,355,-8.895,8.895,-7.520,-7.520,-9.506,1.480,18.144,6.636,7.310,12.467,10.216,-2.284,9.589,6.322,11.365,7.887,4.936
Fri Nov 22 20:57:16 2024,360,-8.913,8.913,-7.563,-7.563,-9.575,1.500,18.151,6.621,7.342,12.444,10.227,-2.288,9.582,6.320,11.395,7.843,4.894
Fri Nov 22 20:57:16 2024,365,-8.920,8.920,-7.581,-7.581,-9.594,1.499,18.170,6.621,7.344,12.445,10.223,-2.278,9.576,6.308,11.406,7.832,4.879
Fri Nov 22 20:57:16 2024,370,-8.912,8.912,-7.570,-7.570,-9.552,1.469,18.210,6.642,7.305,12.476,10.199,-2.246,9.568,6.280,11.394,7.864,4.899
Fri Nov 22 20:57:16 2024,375,-8.914,8.914,-7.568,-7.568,-9.553,1.463,18.216,6.626,7.297,12.474,10.153,-2.248,9.566,6.255,11.352,7.891,4.880
Fri Nov 22 20:57:16 2024,380,-8.920,8.920,-7.566,-7.566,-9.572,1.466,18.204,6.588,7.299,12.458,10.084,-2.268,9.567,6.224,11.281,7.929,4.842
Fri Nov 22 20:57:16 2024,385,-8.926,8.926,-7.562,-7.562,-9.589,1.470,18.192,6.553,7.300,12.441,10.018,-2.287,9.568,6.195,11.214,7.963,4.806
Fri Nov 22 20:57:16 2024,390,-8.840,8.840,-7.494,-7.494,-9.556,1.478,18.142,6.562,7.269,12.470,10.044,-2.305,9.543,6.190,11.234,7.966,4.858
Fri Nov 22 20:57:16 2024,395,-8.768,8.768,-7.436,-7.436,-9.529,1.486,18.098,6.566,7.243,12.493,10.060,-2.322,9.521,6.184,11.247,7.970,4.901
Fri Nov 22 20:57:16 2024,400,-8.741,8.741,-7.402,-7.402,-9.497,1.480,18.093,6.551,7.206,12.524,10.060,-2.324,9.541,6.195,11.215,8.007,4.904
Fri Nov 22 20:57:16 2024,405,-8.746,8.746,-7.385,-7.385,-9.462,1.466,18.114,6.522,7.161,12.560,10.050,-2.318,9.589,6.220,11.154,8.067,4.882
Fri Nov 22 20:57:16 2024,410,-8.761,8.761,-7.370,-7.370,-9.441,1.456,18.138,6.525,7.136,12.580,10.053,-2.309,9.635,6.249,11.130,8.099,4.885
Fri Nov 22 20:57:16 2024,415,-8.814,8.814,-7.363,-7.363,-9.455,1.453,18.177,6.618,7.160,12.561,10.100,-2.290,9.691,6.298,11.204,8.059,4.956
Fri Nov 22 20:57:16 2024,420,-8.852,8.852,-7.357,-7.357,-9.465,1.450,18.205,6.687,7.178,12.547,10.134,-2.275,9.732,6.334,11.258,8.030,5.008
Fri Nov 22 20:57:16 2024,425,-8.866,8.866,-7.360,-7.360,-9.487,1.438,18.232,6.663,7.161,12.563,10.082,-2.290,9.770,6.309,11.255,8.028,4.974
Fri Nov 22 20:57:16 2024,430,-8.873,8.873,-7.365,-7.365,-9.507,1.425,18.255,6.625,7.140,12.582,10.020,-2.309,9.800,6.276,11.240,8.033,4.929
Fri Nov 22 20:57:16 2024,435,-8.879,8.879,-7.370,-7.370,-9.529,1.412,18.277,6.585,7.119,12.603,9.956,-2.328,9.831,6.241,11.224,8.038,4.881
Fri Nov 22 20:57:16 2024,440,-8.940,8.940,-7.361,-7.361,-9.473,1.493,18.172,6.636,7.212,12.516,10.048,-2.271,9.721,6.266,11.186,8.047,4.877
Fri Nov 22 20:57:16 2024,445,-8.977,8.977,-7.356,-7.356,-9.445,1.538,18.114,6.659,7.263,12.470,10.089,-2.242,9.662,6.274,11.161,8.054,4.866
Fri Nov 22 20:57:16 2024,450,-8.958,8.958,-7.344,-7.344,-9.429,1.496,18.151,6.643,7.243,12.490,10.064,-2.296,9.623,6.239,11.108,8.090,4.844
Fri Nov 22 20:57:16 2024,455,-8.944,8.944,-7.332,-7.332,-9.410,1.459,18.182,6.630,7.230,12.506,10.044,-2.347,9.578,6.206,11.054,8.126,4.822
Fri Nov 22 20:57:16 2024,460,-8.922,8.922,-7.331,-7.331,-9.407,1.444,18.178,6.627,7.229,12.512,10.052,-2.360,9.582,6.212,11.040,8.145,4.842
Fri Nov 22 20:57:16 2024,465,-8.880,8.880,-7.343,-7.343,-9.423,1.453,18.119,6.635,7.247,12.506,10.104,-2.323,9.661,6.278,11.078,8.146,4.934
Fri Nov 22 20:57:16 2024,470,-8.854,8.854,-7.350,-7.350,-9.432,1.456,18.086,6.639,7.256,12.504,10.132,-2.306,9.704,6.314,11.095,8.150,4.986
Fri Nov 22 20:57:16 2024,475,-8.948,8.948,-7.292,-7.292,-9.404,1.461,18.158,6.666,7.243,12.482,10.042,-2.345,9.610,6.248,11.013,8.195,4.925
Fri Nov 22 20:57:16 2024,480,-9.009,9.009,-7.252,-7.252,-9.386,1.466,18.201,6.686,7.236,12.465,9.984,-2.369,9.552,6.208,10.958,8.226,4.890
Fri Nov 22 20:57:16 2024,485,-8.998,8.998,-7.260,-7.260,-9.386,1.471,18.182,6.666,7.253,12.442,9.962,-2.386,9.514,6.180,10.921,8.260,4.883
Fri Nov 22 20:57:16 2024,490,-8.884,8.884,-7.338,-7.338,-9.410,1.478,18.074,6.590,7.306,12.410,9.989,-2.394,9.501,6.169,10.902,8.300,4.910
Fri Nov 22 20:57:16 2024,495,-8.832,8.832,-7.373,-7.373,-9.420,1.482,18.020,6.552,7.334,12.390,9.996,-2.402,9.487,6.158,10.886,8.326,4.920
Fri Nov 22 20:57:16 2024,500,-8.888,8.888,-7.371,-7.371,-9.471,1.408,18.096,6.507,7.237,12.501,9.947,-2.440,9.544,6.118,10.839,8.378,4.855
Fri Nov 22 20:57:16 2024,505,-8.905,8.905,-7.377,-7.377,-9.498,1.372,18.123,6.477,7.193,12.553,9.925,-2.461,9.570,6.096,10.812,8.410,4.825
Fri Nov 22 20:57:16 2024,510,-8.825,8.825,-7.283,-7.283,-9.412,1.369,18.165,6.501,7.179,12.570,9.944,-2.421,9.622,6.145,10.822,8.452,4.982
Fri Nov 22 20:57:16 2024,515,-8.764,8.764,-7.212,-7.212,-9.348,1.366,18.197,6.518,7.166,12.584,9.958,-2.391,9.660,6.182,10.830,8.484,5.101
Fri Nov 22 20:57:16 2024,520,-8.752,8.752,-7.176,-7.176,-9.326,1.366,18.227,6.531,7.156,12.597,9.963,-2.360,9.724,6.215,10.844,8.495,5.166
Fri Nov 22 20:57:16 2024,525,-8.872,8.872,-7.237,-7.237,-9.422,1.372,18.257,6.531,7.148,12.612,9.946,-2.323,9.862,6.244,10.883,8.453,5.083
Fri Nov 22 20:57:16 2024,530,-8.939,8.939,-7.264,-7.264,-9.472,1.376,18.280,6.534,7.140,12.623,9.938,-2.294,9.955,6.268,10.908,8.432,5.050
Fri Nov 22 20:57:16 2024,535,-8.811,8.811,-7.261,-7.261,-9.432,1.329,18.252,6.446,7.033,12.714,9.958,-2.327,9.906,6.306,10.805,8.558,5.173
Fri Nov 22 20:57:16 2024,540,-8.742,8.742,-7.264,-7.264,-9.414,1.302,18.234,6.392,6.966,12.770,9.969,-2.342,9.889,6.333,10.745,8.633,5.244
Fri Nov 22 20:57:16 2024,545,-8.716,8.716,-7.236,-7.236,-9.380,1.313,18.190,6.398,6.962,12.768,9.988,-2.314,9.901,6.366,10.726,8.660,5.297
Fri Nov 22 20:57:16 2024,550,-8.746,8.746,-7.171,-7.171,-9.325,1.378,18.112,6.485,7.042,12.685,10.016,-2.227,9.951,6.411,10.761,8.623,5.327
Fri Nov 22 20:57:16 2024,555,-8.752,8.752,-7.129,-7.129,-9.286,1.414,18.058,6.531,7.081,12.642,10.036,-2.174,9.980,6.444,10.772,8.613,5.360
Fri Nov 22 20:57:16 2024,560,-8.752,8.752,-7.209,-7.209,-9.397,1.329,18.163,6.492,7.091,12.659,10.027,-2.221,9.975,6.368,10.785,8.615,5.280
Fri Nov 22 20:57:16 2024,565,-8.754,8.754,-7.249,-7.249,-9.458,1.284,18.216,6.481,7.109,12.657,10.028,-2.235,9.980,6.329,10.798,8.614,5.237
Fri Nov 22 20:57:16 2024,570,-8.753,8.753,-7.257,-7.257,-9.417,1.357,18.128,6.458,7.102,12.649,10.036,-2.254,9.839,6.303,10.787,8.629,5.324
Fri Nov 22 20:57:16 2024,575,-8.751,8.751,-7.262,-7.262,-9.387,1.408,18.067,6.443,7.096,12.643,10.042,-2.266,9.741,6.286,10.779,8.640,5.386
Fri Nov 22 20:57:16 2024,580,-8.749,8.749,-7.266,-7.266,-9.357,1.458,18.007,6.428,7.091,12.638,10.048,-2.278,9.647,6.270,10.771,8.650,5.446
Fri Nov 22 20:57:16 2024,585,-8.989,8.989,-7.288,-7.288,-9.451,1.350,18.155,6.576,7.094,12.650,10.143,-2.302,9.752,6.322,10.772,8.574,5.258
Fri Nov 22 20:57:16 2024,590,-9.122,9.122,-7.301,-7.301,-9.494,1.306,18.219,6.653,7.094,12.655,10.198,-2.318,9.782,6.347,10.769,8.533,5.172
Fri Nov 22 20:57:16 2024,595,-9.061,9.061,-7.276,-7.276,-9.499,1.396,18.183,6.599,7.129,12.619,10.109,-2.283,9.877,6.280,10.777,8.538,5.084
Fri Nov 22 20:57:16 2024,600,-9.038,9.038,-7.261,-7.261,-9.508,1.451,18.163,6.572,7.154,12.594,10.055,-2.261,9.947,6.238,10.783,8.536,5.011
Fri Nov 22 20:57:16 2024,605,-9.006,9.006,-7.238,-7.238,-9.509,1.454,18.196,6.542,7.131,12.616,10.007,-2.232,10.010,6.230,10.748,8.556,4.976
Fri Nov 22 20:57:16 2024,610,-8.977,8.977,-7.219,-7.219,-9.508,1.446,18.231,6.516,7.103,12.642,9.968,-2.206,10.061,6.230,10.713,8.575,4.951
Fri Nov 22 20:57:16 2024,615,-8.980,8.980,-7.222,-7.222,-9.509,1.414,18.275,6.505,7.053,12.697,9.956,-2.204,10.105,6.248,10.678,8.619,4.976
Fri Nov 22 20:57:16 2024,620,-9.052,9.052,-7.274,-7.274,-9.514,1.345,18.312,6.535,6.979,12.786,10.010,-2.256,10.106,6.298,10.663,8.693,5.100
Fri Nov 22 20:57:16 2024,625,-9.109,9.109,-7.316,-7.316,-9.518,1.285,18.345,6.557,6.912,12.864,10.051,-2.298,10.112,6.339,10.647,8.756,5.203
Fri Nov 22 20:57:16 2024,630,-9.032,9.032,-7.251,-7.251,-9.475,1.186,18.394,6.578,6.842,12.910,10.043,-2.350,10.020,6.312,10.646,8.749,5.189
Fri Nov 22 20:57:16 2024,635,-8.966,8.966,-7.193,-7.193,-9.436,1.098,18.432,6.596,6.780,12.949,10.035,-2.396,9.939,6.289,10.646,8.742,5.176
Fri Nov 22 20:57:16 2024,640,-8.980,8.980,-7.188,-7.188,-9.424,1.114,18.411,6.575,6.787,12.931,10.010,-2.401,9.868,6.246,10.618,8.739,5.111
Fri Nov 22 20:57:16 2024,645,-9.059,9.059,-7.221,-7.221,-9.426,1.209,18.343,6.520,6.847,12.866,9.968,-2.380,9.789,6.177,10.563,8.736,4.991
Fri Nov 22 20:57:16 2024,650,-9.119,9.119,-7.244,-7.244,-9.426,1.281,18.288,6.476,6.892,12.814,9.933,-2.366,9.718,6.118,10.517,8.731,4.892
Fri Nov 22 20:57:16 2024,655,-9.035,9.035,-7.249,-7.249,-9.486,1.271,18.288,6.460,6.917,12.807,9.945,-2.253,9.865,6.164,10.656,8.583,4.854
Fri Nov 22 20:57:16 2024,660,-8.991,8.991,-7.254,-7.254,-9.522,1.275,18.280,6.443,6.939,12.793,9.948,-2.179,9.948,6.184,10.737,8.490,4.815
Fri Nov 22 20:57:16 2024,665,-8.999,8.999,-7.234,-7.234,-9.489,1.278,18.254,6.394,6.988,12.745,9.883,-2.188,9.969,6.159,10.716,8.518,4.806
Fri Nov 22 20:57:16 2024,670,-9.016,9.016,-7.215,-7.215,-9.451,1.281,18.231,6.352,7.027,12.704,9.823,-2.211,9.972,6.131,10.681,8.563,4.806
Fri Nov 22 20:57:16 2024,675,-9.035,9.035,-7.195,-7.195,-9.411,1.284,18.207,6.309,7.069,12.660,9.761,-2.236,9.975,6.102,10.645,8.611,4.807
Fri Nov 22 20:57:16 2024,680,-8.961,8.961,-7.155,-7.155,-9.387,1.245,18.217,6.400,6.985,12.708,9.817,-2.275,9.948,6.186,10.619,8.602,4.822
Fri Nov 22 20:57:16 2024,685,-8.918,8.918,-7.122,-7.122,-9.360,1.220,18.217,6.447,6.941,12.726,9.837,-2.308,9.931,6.233,10.592,8.609,4.832
Fri Nov 22 20:57:16 2024,690,-8.986,8.986,-7.197,-7.197,-9.389,1.215,18.230,6.440,6.950,12.747,9.888,-2.327,9.826,6.210,10.610,8.619,4.882
Fri Nov 22 20:57:16 2024,695,-9.038,9.038,-7.254,-7.254,-9.412,1.211,18.240,6.432,6.958,12.763,9.926,-2.342,9.746,6.192,10.624,8.626,4.919
Fri Nov 22 20:57:16 2024,700,-9.040,9.040,-7.279,-7.279,-9.430,1.203,18.234,6.406,6.958,12.779,9.956,-2.350,9.700,6.184,10.636,8.616,4.922
Fri Nov 22 20:57:16 2024,705,-8.959,8.959,-7.249,-7.249,-9.439,1.189,18.198,6.349,6.943,12.795,9.966,-2.344,9.718,6.192,10.646,8.581,4.866
Fri Nov 22 20:57:16 2024,710,-8.901,8.901,-7.232,-7.232,-9.450,1.178,18.168,6.302,6.932,12.810,9.979,-2.342,9.721,6.196,10.656,8.554,4.826
Fri Nov 22 20:57:16 2024,715,-8.957,8.957,-7.340,-7.340,-9.514,1.207,18.214,6.425,6.955,12.773,9.985,-2.341,9.714,6.247,10.727,8.494,4.929
Fri Nov 22 20:57:16 2024,720,-8.983,8.983,-7.404,-7.404,-9.554,1.224,18.236,6.494,6.968,12.752,9.991,-2.340,9.709,6.278,10.772,8.454,4.986
Fri Nov 22 20:57:16 2024,725,-8.986,8.986,-7.385,-7.385,-9.537,1.207,18.290,6.512,6.948,12.782,9.992,-2.346,9.726,6.291,10.764,8.476,5.000
Fri Nov 22 20:57:16 2024,730,-8.953,8.953,-7.251,-7.251,-9.442,1.143,18.378,6.451,6.886,12.876,9.984,-2.361,9.767,6.272,10.682,8.580,4.946
Fri Nov 22 20:57:16 2024,735,-8.938,8.938,-7.178,-7.178,-9.388,1.107,18.438,6.426,6.848,12.932,9.980,-2.370,9.792,6.267,10.638,8.638,4.924
Fri Nov 22 20:57:16 2024,740,-8.992,8.992,-7.204,-7.204,-9.466,1.099,18.456,6.566,6.892,12.878,10.033,-2.348,9.895,6.384,10.828,8.456,5.039
Fri Nov 22 20:57:16 2024,745,-9.021,9.021,-7.202,-7.202,-9.500,1.085,18.482,6.643,6.909,12.857,10.064,-2.336,9.963,6.453,10.933,8.359,5.103
Fri Nov 22 20:57:16 2024,750,-8.989,8.989,-7.199,-7.199,-9.434,1.142,18.376,6.585,6.941,12.820,10.068,-2.336,9.817,6.411,10.835,8.417,5.102
Fri Nov 22 20:57:16 2024,755,-8.964,8.964,-7.198,-7.198,-9.380,1.189,18.289,6.536,6.966,12.790,10.070,-2.336,9.698,6.376,10.754,8.464,5.100
Fri Nov 22 20:57:16 2024,760,-8.926,8.926,-7.190,-7.190,-9.358,1.232,18.215,6.522,7.005,12.740,10.071,-2.324,9.646,6.382,10.732,8.458,5.102
Fri Nov 22 20:57:16 2024,765,-8.853,8.853,-7.172,-7.172,-9.377,1.286,18.135,6.559,7.081,12.641,10.072,-2.287,9.680,6.458,10.797,8.370,5.110
Fri Nov 22 20:57:16 2024,770,-8.810,8.810,-7.162,-7.162,-9.383,1.319,18.083,6.575,7.124,12.583,10.072,-2.267,9.689,6.496,10.825,8.325,5.114
Fri Nov 22 20:57:16 2024,775,-8.878,8.878,-7.148,-7.148,-9.344,1.282,18.080,6.672,7.096,12.608,10.130,-2.290,9.700,6.554,10.816,8.326,5.142
Fri Nov 22 20:57:16 2024,780,-8.925,8.925,-7.136,-7.136,-9.314,1.258,18.068,6.749,7.081,12.619,10.176,-2.304,9.711,6.604,10.811,8.320,5.164
Fri Nov 22 20:57:16 2024,785,-8.892,8.892,-7.145,-7.145,-9.273,1.317,18.059,6.780,7.109,12.584,10.187,-2.263,9.697,6.620,10.780,8.349,5.190
Fri Nov 22 20:57:16 2024,790,-8.826,8.826,-7.164,-7.164,-9.230,1.411,18.049,6.787,7.157,12.529,10.181,-2.198,9.672,6.619,10.739,8.391,5.216
Fri Nov 22 20:57:16 2024,795,-8.776,8.776,-7.178,-7.178,-9.192,1.484,18.034,6.801,7.194,12.486,10.181,-2.148,9.652,6.624,10.706,8.424,5.238
Fri Nov 22 20:57:16 2024,800,-8.759,8.759,-7.107,-7.107,-9.166,1.537,17.974,6.829,7.200,12.473,10.194,-2.177,9.584,6.616,10.691,8.415,5.235
Fri Nov 22 20:57:16 2024,805,-8.735,8.735,-7.067,-7.067,-9.140,1.589,17.932,6.849,7.212,12.454,10.203,-2.182,9.536,6.611,10.674,8.418,5.238
Fri Nov 22 20:57:16 2024,810,-8.793,8.793,-7.063,-7.063,-9.125,1.579,17.939,6.909,7.170,12.490,10.166,-2.199,9.626,6.634,10.699,8.453,5.359
Fri Nov 22 20:57:16 2024,815,-8.850,8.850,-7.058,-7.058,-9.110,1.569,17.947,6.965,7.128,12.526,10.130,-2.216,9.713,6.655,10.723,8.485,5.477
Fri Nov 22 20:57:16 2024,820,-8.830,8.830,-7.081,-7.081,-9.070,1.600,17.899,6.965,7.113,12.523,10.112,-2.207,9.789,6.693,10.748,8.516,5.581
Fri Nov 22 20:57:16 2024,825,-8.739,8.739,-7.124,-7.124,-9.015,1.665,17.805,6.911,7.125,12.485,10.114,-2.178,9.843,6.740,10.768,8.541,5.655
Fri Nov 22 20:57:16 2024,830,-8.670,8.670,-7.159,-7.159,-8.968,1.717,17.730,6.871,7.131,12.457,10.112,-2.155,9.891,6.779,10.785,8.562,5.723
Fri Nov 22 20:57:16 2024,835,-8.646,8.646,-7.122,-7.122,-8.939,1.712,17.764,6.837,7.181,12.425,10.105,-2.138,9.808,6.746,10.765,8.582,5.751
Fri Nov 22 20:57:16 2024,840,-8.616,8.616,-7.096,-7.096,-8.908,1.715,17.780,6.803,7.224,12.394,10.099,-2.122,9.744,6.724,10.750,8.602,5.784
Fri Nov 22 20:57:16 2024,845,-8.598,8.598,-7.133,-7.133,-8.904,1.748,17.749,6.764,7.280,12.357,10.121,-2.050,9.751,6.749,10.790,8.575,5.799
Fri Nov 22 20:57:16 2024,850,-8.577,8.577,-7.214,-7.214,-8.914,1.809,17.682,6.709,7.360,12.303,10.164,-1.927,9.796,6.804,10.869,8.515,5.809
Fri Nov 22 20:57:16 2024,855,-8.563,8.563,-7.262,-7.262,-8.918,1.847,17.642,6.674,7.413,12.268,10.190,-1.850,9.817,6.838,10.918,8.480,5.818
Fri Nov 22 20:57:16 2024,860,-8.547,8.547,-7.215,-7.215,-8.893,1.748,17.680,6.658,7.286,12.367,10.108,-1.960,9.804,6.784,10.799,8.609,5.842
Fri Nov 22 20:57:16 2024,865,-8.534,8.534,-7.199,-7.199,-8.879,1.701,17.690,6.641,7.226,12.415,10.068,-2.005,9.801,6.761,10.743,8.675,5.858
Fri Nov 22 20:57:16 2024,870,-8.588,8.588,-7.172,-7.172,-8.870,1.751,17.641,6.666,7.284,12.340,10.054,-1.946,9.758,6.751,10.734,8.616,5.770
Fri Nov 22 20:57:16 2024,875,-8.638,8.638,-7.147,-7.147,-8.861,1.794,17.596,6.686,7.332,12.273,10.039,-1.896,9.719,6.741,10.722,8.562,5.690
Fri Nov 22 20:57:16 2024,880,-8.657,8.657,-7.168,-7.168,-8.902,1.820,17.584,6.690,7.354,12.247,10.020,-1.866,9.718,6.740,10.758,8.506,5.657
Fri Nov 22 20:57:16 2024,885,-8.630,8.630,-7.261,-7.261,-9.021,1.824,17.618,6.671,7.339,12.277,9.993,-1.865,9.776,6.750,10.866,8.443,5.689
Fri Nov 22 20:57:16 2024,890,-8.616,8.616,-7.325,-7.325,-9.106,1.833,17.636,6.659,7.334,12.290,9.972,-1.858,9.812,6.756,10.944,8.388,5.701
Fri Nov 22 20:57:16 2024,895,-8.556,8.556,-7.258,-7.258,-9.016,1.828,17.629,6.552,7.318,12.276,9.900,-1.889,9.721,6.672,10.924,8.424,5.708
Fri Nov 22 20:57:16 2024,900,-8.516,8.516,-7.224,-7.224,-8.971,1.826,17.626,6.483,7.308,12.268,9.852,-1.908,9.669,6.619,10.922,8.439,5.713
Fri Nov 22 20:57:16 2024,905,-8.518,8.518,-7.223,-7.223,-8.979,1.813,17.640,6.488,7.299,12.259,9.820,-1.929,9.690,6.616,10.930,8.440,5.717
Fri Nov 22 20:57:16 2024,910,-8.583,8.583,-7.271,-7.271,-9.062,1.786,17.675,6.601,7.294,12.254,9.821,-1.947,9.812,6.684,10.950,8.422,5.717
Fri Nov 22 20:57:16 2024,915,-8.596,8.596,-7.293,-7.293,-9.098,1.761,17.678,6.636,7.278,12.270,9.814,-1.958,9.871,6.713,10.950,8.426,5.734
Fri Nov 22 20:57:16 2024,920,-8.544,8.544,-7.294,-7.294,-9.086,1.730,17.627,6.579,7.239,12.330,9.813,-1.954,9.868,6.706,10.912,8.463,5.786
Fri Nov 22 20:57:16 2024,925,-8.506,8.506,-7.297,-7.297,-9.080,1.705,17.586,6.541,7.209,12.375,9.811,-1.950,9.870,6.703,10.884,8.490,5.825
Fri Nov 22 20:57:16 2024,930,-8.504,8.504,-7.316,-7.316,-9.054,1.789,17.589,6.513,7.319,12.294,9.842,-1.932,9.768,6.673,10.935,8.470,5.842
Fri Nov 22 20:57:16 2024,935,-8.502,8.502,-7.329,-7.329,-9.037,1.844,17.585,6.493,7.392,12.240,9.863,-1.920,9.698,6.652,10.968,8.457,5.854
Fri Nov 22 20:57:16 2024,940,-8.500,8.500,-7.344,-7.344,-9.018,1.906,17.578,6.471,7.474,12.178,9.887,-1.906,9.621,6.630,11.004,8.442,5.870
Fri Nov 22 20:57:16 2024,945,-8.412,8.412,-7.519,-7.519,-9.079,1.808,17.547,6.402,7.359,12.290,9.907,-1.969,9.737,6.711,10.899,8.577,5.963
Fri Nov 22 20:57:16 2024,950,-8.375,8.375,-7.596,-7.596,-9.101,1.781,17.529,6.369,7.330,12.324,9.921,-1.993,9.767,6.740,10.863,8.630,6.007
Fri Nov 22 20:57:16 2024,955,-8.313,8.313,-7.520,-7.520,-9.098,1.796,17.465,6.318,7.372,12.288,9.868,-1.992,9.660,6.658,10.930,8.567,6.014
Fri Nov 22 20:57:16 2024,960,-8.263,8.263,-7.473,-7.473,-9.099,1.802,17.415,6.278,7.399,12.267,9.831,-1.995,9.585,6.601,10.974,8.528,6.026
Fri Nov 22 20:57:16 2024,965,-8.278,8.278,-7.525,-7.525,-9.133,1.817,17.426,6.306,7.419,12.267,9.890,-1.971,9.551,6.624,11.010,8.496,6.056
Fri Nov 22 20:57:16 2024,970,-8.312,8.312,-7.604,-7.604,-9.176,1.836,17.455,6.355,7.436,12.274,9.975,-1.941,9.530,6.671,11.043,8.467,6.091
Fri Nov 22 20:57:16 2024,975,-8.342,8.342,-7.669,-7.669,-9.211,1.851,17.478,6.395,7.449,12.278,10.046,-1.916,9.512,6.710,11.071,8.442,6.120
Fri Nov 22 20:57:16 2024,980,-8.203,8.203,-7.561,-7.561,-9.147,1.937,17.388,6.331,7.522,12.217,10.024,-1.933,9.513,6.637,11.040,8.466,6.084
Fri Nov 22 20:57:16 2024,985,-8.131,8.131,-7.514,-7.514,-9.119,1.991,17.342,6.303,7.566,12.182,10.027,-1.937,9.510,6.604,11.028,8.474,6.070
Fri Nov 22 20:57:16 2024,990,-8.222,8.222,-7.605,-7.605,-9.182,2.007,17.358,6.332,7.547,12.176,10.003,-1.952,9.495,6.569,11.079,8.403,6.002
Fri Nov 22 20:57:16 2024,995,-8.306,8.306,-7.690,-7.690,-9.241,2.023,17.373,6.359,7.530,12.169,9.979,-1.966,9.480,6.536,11.127,8.336,5.939
Fri Nov 22 20:57:17 2024,0,-8.377,8.377,-7.762,-7.762,-9.291,2.037,17.384,6.382,7.515,12.162,9.960,-1.978,9.468,6.508,11.168,8.279,5.886
Fri Nov 22 20:57:17 2024,5,-8.416,8.416,-7.724,-7.724,-9.248,2.122,17.443,6.510,7.530,12.149,10.035,-1.959,9.661,6.600,11.181,8.278,5.926
Fri Nov 22 20:57:17 2024,10,-8.452,8.452,-7.726,-7.726,-9.242,2.165,17.466,6.578,7.532,12.140,10.065,-1.953,9.748,6.635,11.198,8.263,5.933
Fri Nov 22 20:57:17 2024,15,-8.383,8.383,-7.726,-7.726,-9.137,2.196,17.354,6.487,7.553,12.118,10.094,-1.935,9.653,6.694,11.235,8.294,6.187
Fri Nov 22 20:57:17 2024,20,-8.336,8.336,-7.726,-7.726,-9.056,2.226,17.269,6.427,7.570,12.099,10.120,-1.920,9.592,6.744,11.266,8.313,6.383
Fri Nov 22 20:57:17 2024,25,-8.336,8.336,-7.742,-7.742,-9.044,2.250,17.249,6.376,7.596,12.091,10.136,-1.875,9.640,6.768,11.324,8.287,6.440
Fri Nov 22 20:57:17 2024,30,-8.418,8.418,-7.793,-7.793,-9.139,2.280,17.322,6.302,7.657,12.091,10.147,-1.742,9.911,6.766,11.477,8.169,6.306
Fri Nov 22 20:57:17 2024,35,-8.451,8.451,-7.817,-7.817,-9.173,2.299,17.342,6.259,7.689,12.086,10.156,-1.676,10.031,6.772,11.555,8.113,6.270
Fri Nov 22 20:57:17 2024,40,-8.346,8.346,-7.775,-7.775,-9.111,2.377,17.198,6.310,7.746,11.983,10.150,-1.654,9.875,6.767,11.514,8.055,6.208
Fri Nov 22 20:57:17 2024,45,-8.295,8.295,-7.758,-7.758,-9.085,2.423,17.124,6.328,7.783,11.926,10.149,-1.628,9.817,6.764,11.508,8.007,6.167
Fri Nov 22 20:57:17 2024,50,-8.355,8.355,-7.766,-7.766,-9.132,2.407,17.196,6.313,7.771,11.927,10.089,-1.650,9.731,6.685,11.482,8.023,6.083
Fri Nov 22 20:57:17 2024,55,-8.405,8.405,-7.773,-7.773,-9.171,2.392,17.255,6.300,7.760,11.929,10.042,-1.669,9.664,6.621,11.460,8.038,6.015
Fri Nov 22 20:57:17 2024,60,-8.429,8.429,-7.794,-7.794,-9.182,2.399,17.264,6.290,7.755,11.938,10.036,-1.668,9.645,6.616,11.492,8.030,6.042
Fri Nov 22 20:57:17 2024,65,-8.435,8.435,-7.831,-7.831,-9.170,2.428,17.228,6.279,7.756,11.955,10.070,-1.648,9.668,6.664,11.582,7.998,6.164
Fri Nov 22 20:57:17 2024,70,-8.444,8.444,-7.863,-7.863,-9.162,2.452,17.203,6.269,7.756,11.969,10.094,-1.632,9.682,6.700,11.655,7.969,6.262
Fri Nov 22 20:57:17 2024,75,-8.487,8.487,-7.854,-7.854,-9.222,2.452,17.176,6.249,7.810,11.922,10.046,-1.552,9.818,6.666,11.640,7.908,6.048
Fri Nov 22 20:57:17 2024,80,-8.526,8.526,-7.853,-7.853,-9.271,2.457,17.148,6.230,7.855,11.886,10.012,-1.481,9.936,6.644,11.642,7.848,5.890
Fri Nov 22 20:57:17 2024,85,-8.584,8.584,-7.852,-7.852,-9.294,2.466,17.158,6.268,7.862,11.876,10.000,-1.491,9.894,6.620,11.659,7.816,5.856
Fri Nov 22 20:57:17 2024,90,-8.668,8.668,-7.854,-7.854,-9.295,2.478,17.203,6.364,7.836,11.888,10.006,-1.578,9.701,6.588,11.693,7.810,5.928
Fri Nov 22 20:57:17 2024,95,-8.738,8.738,-7.855,-7.855,-9.305,2.489,17.229,6.432,7.826,11.892,10.004,-1.629,9.579,6.561,11.718,7.794,5.954
Fri Nov 22 20:57:17 2024,100,-8.596,8.596,-7.841,-7.841,-9.288,2.489,17.194,6.419,7.771,11.939,10.089,-1.620,9.782,6.749,11.739,7.815,6.117
Fri Nov 22 20:57:17 2024,105,-8.523,8.523,-7.833,-7.833,-9.280,2.491,17.177,6.426,7.733,11.969,10.142,-1.626,9.882,6.863,11.757,7.825,6.226
Fri Nov 22 20:57:17 2024,110,-8.646,8.646,-7.741,-7.741,-9.253,2.525,17.130,6.458,7.791,11.892,10.054,-1.672,9.752,6.748,11.732,7.766,6.063
Fri Nov 22 20:57:17 2024,115,-8.756,8.756,-7.663,-7.663,-9.229,2.554,17.090,6.487,7.843,11.824,9.976,-1.711,9.634,6.642,11.709,7.710,5.916
Fri Nov 22 20:57:17 2024,120,-8.818,8.818,-7.647,-7.647,-9.233,2.578,17.084,6.515,7.847,11.810,9.934,-1.709,9.646,6.621,11.716,7.690,5.890
Fri Nov 22 20:57:17 2024,125,-8.807,8.807,-7.731,-7.731,-9.279,2.593,17.129,6.547,7.778,11.881,9.945,-1.639,9.860,6.731,11.772,7.726,6.051
Fri Nov 22 20:57:17 2024,130,-8.814,8.814,-7.776,-7.776,-9.308,2.607,17.150,6.571,7.739,11.918,9.942,-1.598,9.986,6.789,11.806,7.740,6.138
Fri Nov 22 20:57:17 2024,135,-8.704,8.704,-7.715,-7.715,-9.248,2.561,17.174,6.587,7.706,11.957,9.957,-1.669,9.973,6.799,11.759,7.786,6.127
Fri Nov 22 20:57:17 2024,140,-8.620,8.620,-7.674,-7.674,-9.206,2.527,17.196,6.604,7.676,11.991,9.968,-1.717,9.982,6.815,11.728,7.824,6.132
Fri Nov 22 20:57:17 2024,145,-8.604,8.604,-7.670,-7.670,-9.188,2.576,17.133,6.589,7.695,11.948,9.922,-1.758,9.859,6.739,11.708,7.810,6.078
Fri Nov 22 20:57:17 2024,150,-8.599,8.599,-7.671,-7.671,-9.176,2.620,17.079,6.576,7.714,11.908,9.883,-1.789,9.756,6.675,11.694,7.794,6.033
Fri Nov 22 20:57:17 2024,155,-8.594,8.594,-7.672,-7.672,-9.164,2.667,17.020,6.561,7.735,11.865,9.841,-1.822,9.645,6.606,11.678,7.776,5.985
Fri Nov 22 20:57:17 2024,160,-8.600,8.600,-7.679,-7.679,-9.167,2.675,17.007,6.558,7.739,11.856,9.834,-1.827,9.623,6.594,11.676,7.771,5.976
Fri Nov 22 20:57:17 2024,165,-8.608,8.608,-7.689,-7.689,-9.174,2.673,17.005,6.559,7.740,11.856,9.836,-1.826,9.623,6.597,11.676,7.771,5.976
Fri Nov 22 20:57:17 2024,170,-8.616,8.616,-7.698,-7.698,-9.181,2.671,17.004,6.559,7.741,11.855,9.838,-1.825,9.623,6.600,11.677,7.770,5.977
Fri Nov 22 20:57:17 2024,175,-8.624,8.624,-7.707,-7.707,-9.188,2.670,17.002,6.560,7.741,11.855,9.840,-1.823,9.623,6.603,11.677,7.769,5.977
Fri Nov 22 20:57:17 2024,180,-8.632,8.632,-7.716,-7.716,-9.195,2.668,17.000,6.560,7.742,11.855,9.842,-1.822,9.623,6.605,11.678,7.768,5.978
Fri Nov 22 20:57:17 2024,185,-8.640,8.640,-7.725,-7.725,-9.201,2.666,16.999,6.561,7.742,11.855,9.843,-1.821,9.623,6.608,11.679,7.767,5.979
Fri Nov 22 20:57:17 2024,190,-8.648,8.648,-7.734,-7.734,-9.208,2.665,16.997,6.561,7.743,11.854,9.845,-1.820,9.623,6.611,11.679,7.766,5.979
Fri Nov 22 20:57:17 2024,195,-8.657,8.657,-7.744,-7.744,-9.215,2.663,16.996,6.561,7.744,11.854,9.847,-1.818,9.623,6.614,11.680,7.766,5.980
Fri Nov 22 20:57:17 2024,200,-8.665,8.665,-7.753,-7.753,-9.222,2.662,16.994,6.562,7.744,11.854,9.849,-1.817,9.623,6.617,11.681,7.765,5.981
Fri Nov 22 20:57:17 2024,205,-8.673,8.673,-7.762,-7.762,-9.229,2.660,16.992,6.562,7.745,11.854,9.851,-1.816,9.623,6.619,11.681,7.764,5.981
Fri Nov 22 20:57:17 2024,210,-8.681,8.681,-7.771,-7.771,-9.235,2.658,16.991,6.563,7.745,11.854,9.852,-1.815,9.623,6.622,11.682,7.763,5.982
Fri Nov 22 20:57:17 2024,215,-8.689,8.689,-7.780,-7.780,-9.242,2.657,16.989,6.563,7.746,11.853,9.854,-1.813,9.623,6.625,11.683,7.762,5.982
Fri Nov 22 20:57:17 2024,220,-8.697,8.697,-7.789,-7.789,-9.249,2.655,16.988,6.564,7.747,11.853,9.856,-1.812,9.623,6.628,11.683,7.761,5.983
Fri Nov 22 20:57:17 2024,225,-8.705,8.705,-7.799,-7.799,-9.256,2.653,16.986,6.564,7.747,11.853,9.858,-1.811,9.623,6.631,11.684,7.761,5.984
Fri Nov 22 20:57:17 2024,230,-8.714,8.714,-7.808,-7.808,-9.263,2.652,16.984,6.565,7.748,11.853,9.860,-1.810,9.623,6.633,11.685,7.760,5.984
Fri Nov 22 20:57:17 2024,235,-8.722,8.722,-7.817,-7.817,-9.270,2.650,16.983,6.565,7.748,11.852,9.862,-1.809,9.623,6.636,11.685,7.759,5.985
Fri Nov 22 20:57:17 2024,240,-8.730,8.730,-7.826,-7.826,-9.276,2.648,16.981,6.566,7.749,11.852,9.863,-1.807,9.623,6.639,11.686,7.758,5.986
Fri Nov 22 20:57:17 2024,245,-8.738,8.738,-7.835,-7.835,-9.283,2.647,16.980,6.566,7.750,11.852,9.865,-1.806,9.623,6.642,11.686,7.757,5.986
Fri Nov 22 20:57:17 2024,250,-8.746,8.746,-7.844,-7.844,-9.290,2.645,16.978,6.566,7.750,11.852,9.867,-1.805,9.623,6.645,11.687,7.756,5.987
Fri Nov 22 20:57:17 2024,255,-8.754,8.754,-7.854,-7.854,-9.297,2.643,16.976,6.567,7.751,11.851,9.869,-1.804,9.623,6.647,11.688,7.756,5.988
Fri Nov 22 20:57:17 2024,260,-8.763,8.763,-7.863,-7.863,-9.304,2.642,16.975,6.567,7.751,11.851,9.871,-1.802,9.623,6.650,11.688,7.755,5.988
Fri Nov 22 20:57:17 2024,265,-8.771,8.771,-7.872,-7.872,-9.310,2.640,16.973,6.568,7.752,11.851,9.872,-1.801,9.624,6.653,11.689,7.754,5.989
Fri Nov 22 20:57:17 2024,270,-8.779,8.779,-7.881,-7.881,-9.317,2.639,16.972,6.568,7.753,11.851,9.874,-1.800,9.624,6.656,11.690,7.753,5.989
Fri Nov 22 20:57:17 2024,275,-8.787,8.787,-7.890,-7.890,-9.324,2.637,16.970,6.569,7.753,11.851,9.876,-1.799,9.624,6.658,11.690,7.752,5.990
Fri Nov 22 20:57:17 2024,280,-8.795,8.795,-7.899,-7.899,-9.331,2.635,16.968,6.569,7.754,11.850,9.878,-1.797,9.624,6.661,11.691,7.751,5.991
Fri Nov 22 20:57:17 2024,285,-8.803,8.803,-7.909,-7.909,-9.338,2.634,16.967,6.570,7.754,11.850,9.880,-1.796,9.624,6.664,11.692,7.751,5.991
Fri Nov 22 20:57:17 2024,290,-8.811,8.811,-7.918,-7.918,-9.344,2.632,16.965,6.570,7.755,11.850,9.881,-1.795,9.624,6.667,11.692,7.750,5.992
Fri Nov 22 20:57:17 2024,295,-8.820,8.820,-7.927,-7.927,-9.351,2.630,16.964,6.570,7.756,11.850,9.883,-1.794,9.624,6.670,11.693,7.749,5.993
Fri Nov 22 20:57:17 2024,300,-8.828,8.828,-7.936,-7.936,-9.358,2.629,16.962,6.571,7.756,11.849,9.885,-1.793,9.624,6.672,11.694,7.748,5.993
Fri Nov 22 20:57:17 2024,305,-8.836,8.836,-7.945,-7.945,-9.365,2.627,16.960,6.571,7.757,11.849,9.887,-1.791,9.624,6.675,11.694,7.747,5.994
Fri Nov 22 20:57:17 2024,310,-8.844,8.844,-7.955,-7.955,-9.372,2.625,16.959,6.572,7.757,11.849,9.889,-1.790,9.624,6.678,11.695,7.747,5.994
Fri Nov 22 20:57:17 2024,315,-8.852,8.852,-7.964,-7.964,-9.378,2.624,16.957,6.572,7.758,11.849,9.890,-1.789,9.624,6.681,11.695,7.746,5.995
Fri Nov 22 20:57:17 2024,320,-8.860,8.860,-7.973,-7.973,-9.385,2.622,16.956,6.573,7.759,11.848,9.892,-1.788,9.624,6.684,11.696,7.745,5.996
Fri Nov 22 20:57:17 2024,325,-8.868,8.868,-7.982,-7.982,-9.392,2.620,16.954,6.573,7.759,11.848,9.894,-1.786,9.624,6.686,11.697,7.744,5.996
Fri Nov 22 20:57:17 2024,330,-8.877,8.877,-7.991,-7.991,-9.399,2.619,16.952,6.574,7.760,11.848,9.896,-1.785,9.624,6.689,11.697,7.743,5.997
Fri Nov 22 20:57:17 2024,335,-8.885,8.885,-8.000,-8.000,-9.406,2.617,16.951,6.574,7.760,11.848,9.898,-1.784,9.624,6.692,11.698,7.742,5.998
Fri Nov 22 20:57:17 2024,340,-8.893,8.893,-8.010,-8.010,-9.412,2.616,16.949,6.574,7.761,11.848,9.899,-1.783,9.624,6.695,11.699,7.742,5.998
Fri Nov 22 20:57:17 2024,345,-8.901,8.901,-8.019,-8.019,-9.419,2.614,16.948,6.575,7.762,11.847,9.901,-1.782,9.624,6.698,11.699,7.741,5.999
Fri Nov 22 20:57:17 2024,350,-8.909,8.909,-8.028,-8.028,-9.426,2.612,16.946,6.575,7.762,11.847,9.903,-1.780,9.624,6.700,11.700,7.740,6.000
Fri Nov 22 20:57:17 2024,355,-8.917,8.917,-8.037,-8.037,-9.433,2.611,16.944,6.576,7.763,11.847,9.905,-1.779,9.624,6.703,11.701,7.739,6.000
Fri Nov 22 20:57:17 2024,360,-8.925,8.925,-8.046,-8.046,-9.440,2.609,16.943,6.576,7.763,11.847,9.907,-1.778,9.624,6.706,11.701,7.738,6.001
Fri Nov 22 20:57:17 2024,365,-8.934,8.934,-8.055,-8.055,-9.446,2.607,16.941,6.577,7.764,11.846,9.908,-1.777,9.624,6.709,11.702,7.737,6.001
Fri Nov 22 20:57:17 2024,370,-8.942,8.942,-8.065,-8.065,-9.453,2.606,16.940,6.577,7.765,11.846,9.910,-1.775,9.624,6.712,11.703,7.737,6.002
Fri Nov 22 20:57:17 2024,375,-8.950,8.950,-8.074,-8.074,-9.460,2.604,16.938,6.578,7.765,11.846,9.912,-1.774,9.624,6.714,11.703,7.736,6.003
Fri Nov 22 20:57:17 2024,380,-8.958,8.958,-8.083,-8.083,-9.467,2.602,16.936,6.578,7.766,11.846,9.914,-1.773,9.624,6.717,11.704,7.735,6.003
Fri Nov 22 20:57:17 2024,385,-8.966,8.966,-8.092,-8.092,-9.474,2.601,16.935,6.579,7.766,11.845,9.916,-1.772,9.624,6.720,11.704,7.734,6.004
Fri Nov 22 20:57:17 2024,390,-8.974,8.974,-8.101,-8.101,-9.480,2.599,16.933,6.579,7.767,11.845,9.917,-1.770,9.624,6.723,11.705,7.733,6.005
Fri Nov 22 20:57:17 2024,395,-8.983,8.983,-8.110,-8.110,-9.487,2.597,16.932,6.579,7.768,11.845,9.919,-1.769,9.624,6.726,11.706,7.732,6.005
Fri Nov 22 20:57:17 2024,400,-8.991,8.991,-8.120,-8.120,-9.494,2.596,16.930,6.580,7.768,11.845,9.921,-1.768,9.624,6.728,11.706,7.732,6.006
Fri Nov 22 20:57:17 2024,405,-8.999,8.999,-8.129,-8.129,-9.501,2.594,16.928,6.580,7.769,11.845,9.923,-1.767,9.624,6.731,11.707,7.731,6.006
Fri Nov 22 20:57:17 2024,410,-9.007,9.007,-8.138,-8.138,-9.508,2.593,16.927,6.581,7.769,11.844,9.925,-1.766,9.624,6.734,11.708,7.730,6.007
Fri Nov 22 20:57:17 2024,415,-9.015,9.015,-8.147,-8.147,-9.514,2.591,16.925,6.581,7.770,11.844,9.926,-1.764,9.624,6.737,11.708,7.729,6.008
Fri Nov 22 20:57:17 2024,420,-9.023,9.023,-8.156,-8.156,-9.521,2.589,16.924,6.582,7.771,11.844,9.928,-1.763,9.624,6.739,11.709,7.728,6.008
Fri Nov 22 20:57:17 2024,425,-9.031,9.031,-8.165,-8.165,-9.528,2.588,16.922,6.582,7.771,11.844,9.930,-1.762,9.624,6.742,11.710,7.727,6.009
Fri Nov 22 20:57:17 2024,430,-9.040,9.040,-8.175,-8.175,-9.535,2.586,16.920,6.583,7.772,11.843,9.932,-1.761,9.624,6.745,11.710,7.727,6.010
Fri Nov 22 20:57:17 2024,435,-9.048,9.048,-8.184,-8.184,-9.542,2.584,16.919,6.583,7.772,11.843,9.934,-1.759,9.624,6.748,11.711,7.726,6.010
Fri Nov 22 20:57:17 2024,440,-9.056,9.056,-8.193,-8.193,-9.549,2.583,16.917,6.583,7.773,11.843,9.936,-1.758,9.624,6.751,11.712,7.725,6.011
Fri Nov 22 20:57:17 2024,445,-9.064,9.064,-8.202,-8.202,-9.555,2.581,16.916,6.584,7.774,11.843,9.937,-1.757,9.624,6.753,11.712,7.724,6.012
Fri Nov 22 20:57:17 2024,450,-9.072,9.072,-8.211,-8.211,-9.562,2.579,16.914,6.584,7.774,11.842,9.939,-1.756,9.624,6.756,11.713,7.723,6.012
Fri Nov 22 20:57:17 2024,455,-9.080,9.080,-8.221,-8.221,-9.569,2.578,16.912,6.585,7.775,11.842,9.941,-1.754,9.624,6.759,11.713,7.723,6.013
Fri Nov 22 20:57:17 2024,460,-9.088,9.088,-8.230,-8.230,-9.576,2.576,16.911,6.585,7.775,11.842,9.943,-1.753,9.624,6.762,11.714,7.722,6.013
Fri Nov 22 20:57:17 2024,465,-9.097,9.097,-8.239,-8.239,-9.583,2.574,16.909,6.586,7.776,11.842,9.945,-1.752,9.624,6.765,11.715,7.721,6.014
Fri Nov 22 20:57:17 2024,470,-9.105,9.105,-8.248,-8.248,-9.589,2.573,16.908,6.586,7.777,11.842,9.946,-1.751,9.624,6.767,11.715,7.720,6.015
Fri Nov 22 20:57:17 2024,475,-9.113,9.113,-8.257,-8.257,-9.596,2.571,16.906,6.587,7.777,11.841,9.948,-1.750,9.624,6.770,11.716,7.719,6.015
Fri Nov 22 20:57:17 2024,480,-9.121,9.121,-8.266,-8.266,-9.603,2.569,16.904,6.587,7.778,11.841,9.950,-1.748,9.624,6.773,11.717,7.718,6.016
Fri Nov 22 20:57:17 2024,485,-9.129,9.129,-8.276,-8.276,-9.610,2.568,16.903,6.587,7.778,11.841,9.952,-1.747,9.625,6.776,11.717,7.718,6.017
Fri Nov 22 20:57:17 2024,490,-9.137,9.137,-8.285,-8.285,-9.617,2.566,16.901,6.588,7.779,11.841,9.954,-1.746,9.625,6.779,11.718,7.717,6.017
Fri Nov 22 20:57:17 2024,495,-9.146,9.146,-8.294,-8.294,-9.623,2.565,16.900,6.588,7.780,11.840,9.955,-1.745,9.625,6.781,11.719,7.716,6.018
Fri Nov 22 20:57:17 2024,500,-9.154,9.154,-8.303,-8.303,-9.630,2.563,16.898,6.589,7.780,11.840,9.957,-1.743,9.625,6.784,11.719,7.715,6.018
Fri Nov 22 20:57:17 2024,505,-9.162,9.162,-8.312,-8.312,-9.637,2.561,16.896,6.589,7.781,11.840,9.959,-1.742,9.625,6.787,11.720,7.714,6.019
Fri Nov 22 20:57:17 2024,510,-9.170,9.170,-8.321,-8.321,-9.644,2.560,16.895,6.590,7.781,11.840,9.961,-1.741,9.625,6.790,11.721,7.713,6.020
Fri Nov 22 20:57:17 2024,515,-9.178,9.178,-8.331,-8.331,-9.651,2.558,16.893,6.590,7.782,11.839,9.963,-1.740,9.625,6.793,11.721,7.713,6.020
Fri Nov 22 20:57:17 2024,520,-9.186,9.186,-8.340,-8.340,-9.657,2.556,16.892,6.591,7.783,11.839,9.964,-1.738,9.625,6.795,11.722,7.712,6.021
Fri Nov 22 20:57:17 2024,525,-9.194,9.194,-8.349,-8.349,-9.664,2.555,16.890,6.591,7.783,11.839,9.966,-1.737,9.625,6.798,11.723,7.711,6.022
Fri Nov 22 20:57:17 2024,530,-9.203,9.203,-8.358,-8.358,-9.671,2.553,16.888,6.592,7.784,11.839,9.968,-1.736,9.625,6.801,11.723,7.710,6.022
Fri Nov 22 20:57:17 2024,535,-9.211,9.211,-8.367,-8.367,-9.678,2.551,16.887,6.592,7.784,11.839,9.970,-1.735,9.625,6.804,11.724,7.709,6.023
Fri Nov 22 20:57:17 2024,540,-9.219,9.219,-8.376,-8.376,-9.685,2.550,16.885,6.592,7.785,11.838,9.972,-1.734,9.625,6.807,11.724,7.708,6.024
Fri Nov 22 20:57:17 2024,545,-9.227,9.227,-8.386,-8.386,-9.691,2.548,16.884,6.593,7.786,11.838,9.973,-1.732,9.625,6.809,11.725,7.708,6.024
Fri Nov 22 20:57:17 2024,550,-9.235,9.235,-8.395,-8.395,-9.698,2.546,16.882,6.593,7.786,11.838,9.975,-1.731,9.625,6.812,11.726,7.707,6.025
Fri Nov 22 20:57:17 2024,555,-9.243,9.243,-8.404,-8.404,-9.705,2.545,16.881,6.594,7.787,11.838,9.977,-1.730,9.625,6.815,11.726,7.706,6.025
Fri Nov 22 20:57:17 2024,560,-9.251,9.251,-8.413,-8.413,-9.712,2.543,16.879,6.594,7.787,11.837,9.979,-1.729,9.625,6.818,11.727,7.705,6.026
Fri Nov 22 20:57:17 2024,565,-9.260,9.260,-8.422,-8.422,-9.719,2.542,16.877,6.595,7.788,11.837,9.981,-1.727,9.625,6.820,11.728,7.704,6.027
Fri Nov 22 20:57:17 2024,570,-9.268,9.268,-8.431,-8.431,-9.725,2.540,16.876,6.595,7.788,11.837,9.982,-1.726,9.625,6.823,11.728,7.703,6.027
Fri Nov 22 20:57:17 2024,575,-9.276,9.276,-8.441,-8.441,-9.732,2.538,16.874,6.596,7.789,11.837,9.984,-1.725,9.625,6.826,11.729,7.703,6.028
Fri Nov 22 20:57:17 2024,580,-9.284,9.284,-8.450,-8.450,-9.739,2.537,16.873,6.596,7.790,11.837,9.986,-1.724,9.625,6.829,11.730,7.702,6.029
Fri Nov 22 20:57:17 2024,585,-9.292,9.292,-8.459,-8.459,-9.746,2.535,16.871,6.596,7.790,11.836,9.988,-1.722,9.625,6.832,11.730,7.701,6.029
Fri Nov 22 20:57:17 2024,590,-9.300,9.300,-8.468,-8.468,-9.753,2.533,16.869,6.597,7.791,11.836,9.990,-1.721,9.625,6.834,11.731,7.700,6.030
Fri Nov 22 20:57:17 2024,595,-9.253,9.253,-8.476,-8.476,-9.747,2.541,16.839,6.582,7.773,11.845,9.992,-1.717,9.624,6.861,11.714,7.711,6.056
Fri Nov 22 20:57:17 2024,600,-9.190,9.190,-8.484,-8.484,-9.740,2.551,16.799,6.564,7.750,11.857,9.994,-1.712,9.622,6.896,11.692,7.725,6.090
Fri Nov 22 20:57:17 2024,605,-9.295,9.295,-8.402,-8.402,-9.717,2.503,16.857,6.612,7.738,11.869,9.979,-1.773,9.597,6.810,11.681,7.713,5.933
Fri Nov 22 20:57:17 2024,610,-9.328,9.328,-8.366,-8.366,-9.705,2.484,16.874,6.630,7.726,11.877,9.972,-1.800,9.585,6.778,11.670,7.711,5.870
Fri Nov 22 20:57:17 2024,615,-9.349,9.349,-8.345,-8.345,-9.698,2.472,16.884,6.641,7.719,11.882,9.968,-1.816,9.577,6.759,11.664,7.710,5.831
Fri Nov 22 20:57:17 2024,620,-9.366,9.366,-8.327,-8.327,-9.693,2.462,16.893,6.651,7.714,11.886,9.965,-1.830,9.571,6.743,11.658,7.709,5.798
Fri Nov 22 20:57:17 2024,625,-9.384,9.384,-8.309,-8.309,-9.687,2.452,16.901,6.660,7.708,11.890,9.962,-1.843,9.564,6.727,11.653,7.708,5.766
Fri Nov 22 20:57:17 2024,630,-9.389,9.389,-8.305,-8.305,-9.686,2.450,16.904,6.663,7.707,11.891,9.961,-1.847,9.563,6.723,11.651,7.708,5.757
Fri Nov 22 20:57:17 2024,635,-9.390,9.390,-8.305,-8.305,-9.687,2.450,16.904,6.664,7.707,11.891,9.961,-1.847,9.562,6.723,11.651,7.708,5.756
Fri Nov 22 20:57:17 2024,640,-9.391,9.391,-8.306,-8.306,-9.688,2.450,16.904,6.664,7.707,11.891,9.961,-1.847,9.562,6.723,11.651,7.709,5.756
Fri Nov 22 20:57:17 2024,645,-9.392,9.392,-8.306,-8.306,-9.689,2.450,16.904,6.664,7.708,11.891,9.962,-1.847,9.562,6.723,11.651,7.709,5.756
Fri Nov 22 20:57:17 2024,650,-9.393,9.393,-8.307,-8.307,-9.690,2.450,16.903,6.665,7.708,11.891,9.962,-1.847,9.562,6.723,11.651,7.709,5.756
Fri Nov 22 20:57:17 2024,655,-9.393,9.393,-8.308,-8.308,-9.690,2.450,16.903,6.665,7.708,11.891,9.962,-1.847,9.562,6.723,11.651,7.709,5.756
Fri Nov 22 20:57:17 2024,660,-9.394,9.394,-8.309,-8.309,-9.691,2.450,16.903,6.665,7.708,11.890,9.962,-1.847,9.562,6.724,11.650,7.710,5.755
Fri Nov 22 20:57:17 2024,665,-9.394,9.394,-8.309,-8.309,-9.692,2.451,16.903,6.666,7.708,11.890,9.962,-1.847,9.561,6.724,11.650,7.710,5.755
Fri Nov 22 20:57:17 2024,670,-9.395,9.395,-8.310,-8.310,-9.693,2.451,16.903,6.666,7.709,11.890,9.962,-1.847,9.561,6.724,11.650,7.710,5.755
Fri Nov 22 20:57:17 2024,675,-9.396,9.396,-8.311,-8.311,-9.694,2.451,16.903,6.666,7.709,11.890,9.963,-1.846,9.561,6.724,11.650,7.711,5.755
Fri Nov 22 20:57:17 2024,680,-9.214,9.214,-8.446,-8.446,-9.803,2.342,17.085,6.773,7.637,11.976,10.011,-2.050,9.729,6.906,11.577,7.888,6.145
Fri Nov 22 20:57:17 2024,685,-9.488,9.488,-8.395,-8.395,-9.775,2.420,17.041,6.888,7.529,12.046,10.104,-1.954,9.989,7.122,11.651,7.677,5.915
Fri Nov 22 20:57:17 2024,690,-9.496,9.496,-8.395,-8.395,-9.775,2.421,17.042,6.894,7.524,12.050,10.108,-1.953,10.000,7.130,11.652,7.672,5.910
Fri Nov 22 20:57:17 2024,695,-9.504,9.504,-8.395,-8.395,-9.776,2.422,17.043,6.899,7.521,12.053,10.110,-1.953,10.009,7.138,11.653,7.667,5.907
Fri Nov 22 20:57:17 2024,700,-9.509,9.509,-8.395,-8.395,-9.777,2.423,17.043,6.902,7.518,12.055,10.113,-1.952,10.015,7.144,11.654,7.665,5.904
Fri Nov 22 20:57:17 2024,705,-9.416,9.416,-8.352,-8.352,-9.604,2.463,16.835,6.904,7.474,12.080,10.046,-1.959,10.080,7.125,11.640,7.757,6.088
Fri Nov 22 20:57:17 2024,710,-9.642,9.642,-8.160,-8.160,-9.459,2.540,16.725,7.097,7.514,12.034,10.169,-1.954,9.960,7.211,11.752,7.715,6.379
Fri Nov 22 20:57:17 2024,715,-9.754,9.754,-8.072,-8.072,-9.391,2.582,16.668,7.166,7.535,12.013,10.210,-1.945,9.933,7.241,11.800,7.701,6.504
Fri Nov 22 20:57:17 2024,720,-9.931,9.931,-8.024,-8.024,-9.402,2.650,16.673,7.011,7.623,11.957,10.109,-1.870,10.070,7.145,11.811,7.740,6.449
Fri Nov 22 20:57:17 2024,725,-10.204,10.204,-7.959,-7.959,-9.366,2.704,16.706,6.887,7.689,11.924,10.048,-1.810,10.214,7.088,11.856,7.770,6.470
Fri Nov 22 20:57:17 2024,730,-10.467,10.467,-7.906,-7.906,-9.284,2.710,16.764,6.874,7.688,11.939,10.074,-1.801,10.289,7.117,11.924,7.771,6.582
Fri Nov 22 20:57:17 2024,735,-10.629,10.629,-7.863,-7.863,-9.224,2.715,16.710,6.838,7.736,11.886,10.090,-1.797,10.211,7.121,11.931,7.756,6.622
Fri Nov 22 20:57:17 2024,740,-10.812,10.812,-7.815,-7.815,-9.159,2.721,16.657,6.801,7.785,11.832,10.108,-1.793,10.134,7.127,11.942,7.742,6.670
Fri Nov 22 20:57:17 2024,745,-11.018,11.018,-7.800,-7.800,-9.139,2.743,16.657,6.782,7.810,11.812,10.106,-1.769,10.151,7.132,11.986,7.721,6.712
Fri Nov 22 20:57:17 2024,750,-11.396,11.396,-7.804,-7.804,-9.154,2.799,16.710,6.765,7.830,11.816,10.081,-1.711,10.276,7.143,12.091,7.678,6.778
Fri Nov 22 20:57:17 2024,755,-11.698,11.698,-7.804,-7.804,-9.157,2.840,16.736,6.750,7.851,11.811,10.066,-1.666,10.356,7.152,12.169,7.639,6.832
Fri Nov 22 20:57:17 2024,760,-12.040,12.040,-7.660,-7.660,-9.021,2.798,16.798,6.754,7.867,11.824,10.139,-1.712,10.365,7.184,12.178,7.658,6.929
Fri Nov 22 20:57:17 2024,765,-12.334,12.334,-7.565,-7.565,-8.931,2.779,16.843,6.753,7.882,11.832,10.186,-1.733,10.387,7.206,12.201,7.660,7.006
Fri Nov 22 20:57:17 2024,770,-12.703,12.703,-7.379,-7.379,-8.771,2.821,16.790,6.699,7.877,11.835,10.194,-1.666,10.395,7.233,12.293,7.581,7.094
Fri Nov 22 20:57:17 2024,775,-12.985,12.985,-7.233,-7.233,-8.646,2.861,16.738,6.653,7.870,11.836,10.194,-1.606,10.398,7.254,12.370,7.512,7.161
Fri Nov 22 20:57:17 2024,780,-13.214,13.214,-7.117,-7.117,-8.546,2.893,16.695,6.615,7.865,11.837,10.195,-1.557,10.401,7.270,12.433,7.457,7.215
Fri Nov 22 20:57:17 2024,785,-13.309,13.309,-5.783,-5.783,-7.563,2.782,16.824,6.784,7.762,11.958,10.407,-1.562,10.546,7.544,12.428,7.508,7.680
Fri Nov 22 20:57:17 2024,790,-13.420,13.420,-5.041,-5.041,-6.991,2.731,16.881,6.865,7.706,12.023,10.521,-1.552,10.625,7.694,12.441,7.516,7.942
Fri Nov 22 20:57:17 2024,795,-13.768,13.768,-3.854,-3.854,-6.155,2.428,17.176,6.914,7.515,12.239,10.554,-1.646,10.636,7.733,12.396,7.582,8.196
Fri Nov 22 20:57:17 2024,800,-14.042,14.042,-2.913,-2.913,-5.466,2.193,17.402,6.954,7.366,12.407,10.586,-1.718,10.647,7.771,12.362,7.628,8.406
Fri Nov 22 20:57:17 2024,805,-14.252,14.252,-2.200,-2.200,-4.935,2.014,17.572,6.985,7.252,12.534,10.610,-1.773,10.655,7.800,12.336,7.661,8.567
Fri Nov 22 20:57:17 2024,810,-14.612,14.612,-1.054,-1.054,-4.026,1.730,17.718,7.276,7.126,12.660,10.782,-1.824,10.766,7.986,12.280,7.720,8.742
Fri Nov 22 20:57:17 2024,815,-14.899,14.899,-0.662,-0.094,-3.235,1.553,17.755,7.417,7.033,12.750,10.836,-1.854,10.781,8.065,12.225,7.776,8.885
Fri Nov 22 20:57:17 2024,820,-15.194,15.194,0.900,0.900,-2.391,1.396,17.740,7.546,6.948,12.827,10.865,-1.875,10.774,8.130,12.162,7.839,9.024
Fri Nov 22 20:57:17 2024,825,-15.481,15.481,1.865,1.865,-1.545,1.263,17.669,7.658,6.873,12.889,10.875,-1.888,10.750,8.180,12.096,7.904,9.151
Fri Nov 22 20:57:17 2024,830,-15.978,15.978,2.834,2.834,-0.813,1.136,17.629,7.730,6.807,12.966,10.952,-1.924,10.702,8.244,12.084,7.911,9.402
Fri Nov 22 20:57:17 2024,835,-16.356,16.356,3.548,3.548,0.094,1.044,17.595,7.781,6.759,13.024,11.011,-1.952,10.665,8.292,12.078,7.910,9.593
Fri Nov 22 20:57:17 2024,840,-16.730,16.730,4.244,4.244,0.554,0.989,17.577,7.830,6.734,13.054,11.048,-1.950,10.678,8.340,12.084,7.895,9.753
Fri Nov 22 20:57:17 2024,845,-17.089,17.089,4.882,4.882,0.880,1.026,17.610,7.873,6.765,13.017,11.030,-1.878,10.811,8.388,12.120,7.852,9.833
Fri Nov 22 20:57:17 2024,850,-17.402,17.402,5.442,5.442,1.220,1.042,17.630,7.911,6.782,12.996,11.024,-1.828,10.907,8.430,12.146,7.818,9.916
Fri Nov 22 20:57:17 2024,855,-17.668,17.668,6.022,6.022,1.654,1.084,17.548,7.867,6.888,12.854,10.938,-1.762,10.808,8.340,12.142,7.834,9.784
Fri Nov 22 20:57:17 2024,860,-17.912,17.912,6.548,6.548,2.052,1.119,17.481,7.834,6.976,12.733,10.866,-1.704,10.733,8.270,12.140,7.844,9.683
Fri Nov 22 20:57:17 2024,865,-18.017,18.017,7.360,7.360,2.667,1.213,17.287,7.820,7.048,12.621,10.841,-1.666,10.630,8.230,12.145,7.849,9.589
Fri Nov 22 20:57:17 2024,870,-18.092,18.092,8.316,8.316,3.401,1.330,17.042,7.811,7.120,12.500,10.828,-1.628,10.511,8.196,12.152,7.848,9.489
Fri Nov 22 20:57:17 2024,875,-18.154,18.154,9.105,9.105,4.016,1.426,16.841,7.803,7.179,12.398,10.816,-1.597,10.412,8.168,12.159,7.841,9.406
Fri Nov 22 20:57:17 2024,880,-18.204,18.204,9.728,9.728,4.506,1.502,16.682,7.797,7.226,12.317,10.808,-1.573,10.334,8.145,12.164,7.832,9.341
Fri Nov 22 20:57:17 2024,885,-18.222,18.222,9.967,9.967,4.695,1.531,16.621,7.795,7.244,12.285,10.804,-1.564,10.303,8.137,12.166,7.827,9.317
Fri Nov 22 20:57:17 2024,890,-18.836,18.836,13.106,13.106,6.886,1.196,16.705,8.065,6.981,12.418,10.707,-1.812,10.345,8.215,12.018,7.983,10.011
Fri Nov 22 20:57:17 2024,895,-19.051,19.051,14.388,14.388,7.866,1.134,16.644,8.142,6.927,12.410,10.674,-1.874,10.316,8.226,11.976,8.026,10.186
Fri Nov 22 20:57:17 2024,900,-19.204,19.204,15.865,15.865,9.053,1.070,16.440,8.222,6.859,12.378,10.613,-1.914,10.140,8.192,11.943,8.056,10.329
Fri Nov 22 20:57:17 2024,905,-19.260,19.260,18.086,18.086,10.936,0.982,15.902,8.328,6.749,12.292,10.484,-1.918,9.625,8.058,11.923,8.062,10.443
Fri Nov 22 20:57:17 2024,910,-19.320,19.320,19.850,19.850,12.450,0.912,15.485,8.410,6.663,12.210,10.385,-1.925,9.240,7.960,11.906,8.060,10.540
Fri Nov 22 20:57:17 2024,915,-19.752,19.752,21.992,21.992,14.285,1.048,15.361,8.639,6.618,12.091,10.394,-1.964,8.955,7.836,11.856,8.047,10.476
Fri Nov 22 20:57:17 2024,920,-20.051,20.051,23.629,23.629,15.702,1.132,15.236,8.802,6.578,11.997,10.392,-1.993,8.726,7.744,11.820,8.018,10.443
Fri Nov 22 20:57:17 2024,925,-20.374,20.374,25.261,25.261,17.089,1.558,14.632,8.812,6.652,11.673,10.381,-1.905,8.261,7.641,11.788,7.960,10.498
Fri Nov 22 20:57:17 2024,930,-20.689,20.689,26.773,26.773,18.387,2.112,13.840,8.752,6.777,11.257,10.369,-1.769,7.724,7.545,11.765,7.880,10.589
Fri Nov 22 20:57:17 2024,935,-20.957,20.957,28.040,28.040,19.492,2.566,13.186,8.705,6.880,10.908,10.362,-1.658,7.284,7.467,11.748,7.799,10.663
Fri Nov 22 20:57:17 2024,940,-21.137,21.137,29.223,29.223,20.183,2.954,12.150,9.257,7.027,10.215,10.461,-1.376,7.193,7.988,12.088,7.068,10.700
Fri Nov 22 20:57:17 2024,945,-21.292,21.292,30.128,30.128,20.829,3.238,11.469,9.556,7.124,9.760,10.517,-1.205,7.072,8.272,12.278,6.594,10.730
Fri Nov 22 20:57:17 2024,950,-22.082,22.082,30.925,30.925,21.237,2.775,11.793,9.602,7.095,10.253,10.637,-1.156,7.416,8.414,12.419,6.596,10.591
Fri Nov 22 20:57:17 2024,955,-22.796,22.796,31.570,31.570,21.586,2.358,12.108,9.624,7.069,10.684,10.735,-1.123,7.722,8.519,12.531,6.616,10.470
Fri Nov 22 20:57:17 2024,960,-23.463,23.463,32.160,32.160,21.928,1.989,12.380,9.644,7.051,11.047,10.821,-1.091,7.996,8.615,12.635,6.623,10.363
Fri Nov 22 20:57:17 2024,965,-23.408,23.408,33.304,33.304,22.929,2.450,11.644,9.252,7.375,10.368,10.798,-0.980,7.561,8.769,12.997,6.340,10.736
Fri Nov 22 20:57:17 2024,970,-23.665,23.665,34.064,34.064,23.543,2.591,11.336,9.055,7.542,10.113,10.809,-0.914,7.410,8.875,13.212,6.191,10.901
Fri Nov 22 20:57:17 2024,975,-24.437,24.437,33.570,33.570,23.492,2.680,10.592,8.761,7.556,9.634,10.680,-0.917,6.921,8.871,13.073,6.218,10.809
Fri Nov 22 20:57:17 2024,980,-25.306,25.306,33.254,33.254,23.587,2.801,9.814,8.442,7.609,9.095,10.557,-0.906,6.422,8.888,12.986,6.203,10.755
Fri Nov 22 20:57:17 2024,985,-26.131,26.131,32.837,32.837,23.508,2.725,9.954,8.464,7.451,9.294,10.628,-0.903,6.765,9.057,12.951,6.416,11.011
Fri Nov 22 20:57:17 2024,990,-27.043,27.043,32.348,32.348,23.384,2.593,10.316,8.564,7.226,9.683,10.750,-0.909,7.338,9.279,12.921,6.668,11.362
Fri Nov 22 20:57:17 2024,995,-27.924,27.924,31.886,31.886,23.273,2.466,10.659,8.659,7.012,10.052,10.865,-0.922,7.879,9.489,12.890,6.868,11.692
Fri Nov 22 20:57:18 2024,0,-28.336,28.336,31.198,31.198,23.002,2.626,10.741,8.632,7.092,9.914,10.920,-0.917,7.944,9.578,12.831,6.913,11.670
Fri Nov 22 20:57:18 2024,5,-28.789,28.789,30.652,30.652,22.796,2.710,10.855,8.630,7.108,9.887,10.977,-0.917,8.084,9.676,12.786,6.976,11.714
Fri Nov 22 20:57:18 2024,10,-29.324,29.324,29.884,29.884,22.313,2.870,11.139,8.622,7.149,9.797,10.866,-0.725,8.331,9.656,12.719,7.016,11.465
Fri Nov 22 20:57:18 2024,15,-29.787,29.787,29.244,29.244,21.900,3.007,11.374,8.615,7.183,9.722,10.767,-0.568,8.535,9.634,12.663,7.047,11.249
Fri Nov 22 20:57:18 2024,20,-30.193,30.193,28.702,28.702,21.545,3.123,11.568,8.610,7.211,9.658,10.684,-0.450,8.705,9.615,12.615,7.073,11.067
Fri Nov 22 20:57:18 2024,25,-30.722,30.722,27.869,27.869,21.088,3.160,11.561,8.480,7.218,9.701,10.766,-0.446,8.693,9.538,12.357,7.321,10.882
Fri Nov 22 20:57:18 2024,30,-31.205,31.205,27.163,27.163,20.673,3.220,11.616,8.395,7.231,9.708,10.794,-0.413,8.737,9.482,12.177,7.488,10.708
Fri Nov 22 20:57:18 2024,35,-31.287,31.287,26.761,26.761,20.512,3.233,11.593,8.378,7.169,9.692,10.804,-0.395,8.680,9.465,12.118,7.552,10.657
Fri Nov 22 20:57:18 2024,40,-31.431,31.431,26.338,26.338,20.323,3.252,11.582,8.354,7.120,9.678,10.816,-0.379,8.638,9.444,12.046,7.626,10.594
Fri Nov 22 20:57:18 2024,45,-31.412,31.412,25.945,25.945,20.065,3.325,11.610,8.323,7.138,9.737,10.869,-0.367,8.616,9.424,12.081,7.630,10.557
Fri Nov 22 20:57:18 2024,50,-31.347,31.347,25.512,25.512,19.747,3.426,11.652,8.287,7.180,9.824,10.945,-0.358,8.596,9.402,12.156,7.607,10.524
Fri Nov 22 20:57:18 2024,55,-31.324,31.324,25.150,25.150,19.498,3.513,11.703,8.269,7.204,9.888,10.986,-0.354,8.625,9.386,12.210,7.594,10.506
Fri Nov 22 20:57:18 2024,60,-31.374,31.374,24.757,24.757,19.288,3.617,11.812,8.287,7.192,9.936,10.962,-0.351,8.808,9.372,12.242,7.612,10.517
Fri Nov 22 20:57:18 2024,65,-31.413,31.413,24.465,24.465,19.128,3.693,11.888,8.298,7.186,9.971,10.948,-0.351,8.932,9.361,12.268,7.619,10.522
Fri Nov 22 20:57:18 2024,70,-31.179,31.179,24.060,24.060,18.866,3.850,12.050,8.436,7.275,9.992,11.029,-0.328,9.095,9.416,12.408,7.525,10.573
Fri Nov 22 20:57:18 2024,75,-30.984,30.984,23.734,23.734,18.647,3.980,12.178,8.556,7.354,10.004,11.102,-0.314,9.224,9.465,12.528,7.432,10.616
Fri Nov 22 20:57:18 2024,80,-30.805,30.805,23.407,23.407,18.422,4.107,12.299,8.677,7.433,10.013,11.174,0.306,9.351,9.514,12.648,7.333,10.659
Fri Nov 22 20:57:18 2024,85,-30.444,30.444,23.013,23.013,18.220,4.188,12.349,8.871,7.347,9.927,11.236,-0.305,9.357,9.587,12.583,7.388,10.554
Fri Nov 22 20:57:18 2024,90,-30.208,30.208,22.684,22.684,18.026,4.272,12.408,9.019,7.319,9.879,11.292,-0.302,9.397,9.644,12.580,7.391,10.507
Fri Nov 22 20:57:18 2024,95,-29.881,29.881,22.411,22.411,17.819,4.466,12.629,9.185,7.358,9.972,11.335,0.291,9.664,9.700,12.646,7.339,10.521
Fri Nov 22 20:57:18 2024,100,-29.642,29.642,22.186,22.186,17.647,4.611,12.777,9.317,7.383,10.033,11.370,0.289,9.855,9.745,12.693,7.299,10.527
Fri Nov 22 20:57:18 2024,105,-29.424,29.424,22.161,22.161,17.636,4.786,12.854,9.486,7.437,10.060,11.407,0.301,9.975,9.739,12.751,7.242,10.460
Fri Nov 22 20:57:18 2024,110,-29.296,29.296,22.200,22.200,17.672,4.902,12.879,9.600,7.478,10.066,11.430,0.314,10.030,9.722,12.790,7.203,10.399
Fri Nov 22 20:57:18 2024,115,-29.145,29.145,22.246,22.246,17.713,5.043,12.904,9.739,7.529,10.074,11.459,0.332,10.095,9.700,12.837,7.155,10.325
Fri Nov 22 20:57:18 2024,120,-28.987,28.987,22.163,22.163,17.637,5.118,13.007,10.047,7.539,10.042,11.486,0.352,10.309,9.834,12.933,7.064,10.386
Fri Nov 22 20:57:18 2024,125,-28.846,28.846,22.115,22.115,17.593,5.203,13.076,10.292,7.557,10.022,11.511,0.373,10.469,9.920,13.010,6.989,10.411
Fri Nov 22 20:57:18 2024,130,-28.704,28.704,22.281,22.281,17.752,5.276,13.084,10.496,7.612,10.033,11.571,0.384,10.527,9.934,13.118,6.881,10.477
Fri Nov 22 20:57:18 2024,135,-28.559,28.559,22.487,22.487,17.950,5.350,13.081,10.702,7.675,10.049,11.640,0.392,10.569,9.936,13.237,6.764,10.551
Fri Nov 22 20:57:18 2024,140,-28.464,28.464,22.624,22.624,18.082,5.400,13.078,10.839,7.718,10.058,11.685,0.399,10.598,9.937,13.316,6.685,10.601
Fri Nov 22 20:57:18 2024,145,-28.569,28.569,23.270,23.270,18.626,5.510,13.070,10.994,7.790,10.015,11.620,0.465,10.531,9.821,13.320,6.678,10.364
Fri Nov 22 20:57:18 2024,150,-28.624,28.624,23.734,23.734,19.026,5.600,13.059,11.142,7.852,9.989,11.595,0.511,10.497,9.746,13.349,6.645,10.229
Fri Nov 22 20:57:18 2024,155,-28.605,28.605,24.648,24.648,19.790,5.762,12.969,11.369,7.982,9.813,11.509,0.575,10.409,9.673,13.544,6.441,10.121
Fri Nov 22 20:57:18 2024,160,-28.649,28.649,25.520,25.520,20.525,5.920,12.882,11.591,8.104,9.654,11.430,0.639,10.326,9.597,13.717,6.253,10.005
Fri Nov 22 20:57:18 2024,165,-28.854,28.854,26.336,26.336,21.123,6.033,12.792,11.768,8.220,9.534,11.356,0.697,10.154,9.479,13.865,6.091,9.927
Fri Nov 22 20:57:18 2024,170,-29.071,29.071,26.933,26.933,21.537,6.109,12.724,11.894,8.305,9.450,11.300,0.739,10.010,9.384,13.972,5.973,9.875
Fri Nov 22 20:57:18 2024,175,-29.335,29.335,27.543,27.543,21.952,6.188,12.654,12.022,8.393,9.363,11.244,0.780,9.862,9.285,14.081,5.851,9.821
Fri Nov 22 20:57:18 2024,180,-29.033,29.033,29.251,29.251,23.114,6.234,12.707,12.287,8.477,9.310,11.131,0.885,9.878,9.193,14.155,5.747,9.729
Fri Nov 22 20:57:18 2024,185,-28.957,28.957,30.467,30.467,23.915,6.280,12.724,12.483,8.548,9.259,11.047,0.961,9.858,9.115,14.223,5.654,9.659
Fri Nov 22 20:57:18 2024,190,-28.903,28.903,31.945,31.945,24.768,6.330,12.592,12.641,8.741,9.112,10.960,1.026,9.799,8.959,14.377,5.453,9.446
Fri Nov 22 20:57:18 2024,195,-28.919,28.919,33.255,33.255,25.485,6.374,12.459,12.773,8.924,8.970,10.884,1.081,9.743,8.814,14.520,5.261,9.243
Fri Nov 22 20:57:18 2024,200,-28.595,28.595,34.571,34.571,26.211,6.381,12.291,12.858,9.049,8.799,10.859,1.050,9.497,8.687,14.599,5.096,9.099
Fri Nov 22 20:57:18 2024,205,-28.157,28.157,35.671,35.671,26.804,6.370,12.126,12.906,9.126,8.641,10.864,0.984,9.198,8.589,14.634,4.961,9.007
Fri Nov 22 20:57:18 2024,210,-27.684,27.684,36.928,36.928,27.446,6.357,11.928,12.960,9.214,8.458,10.869,0.911,8.854,8.477,14.677,4.788,8.901
Fri Nov 22 20:57:18 2024,215,-27.377,27.377,37.072,37.072,27.313,6.142,12.041,12.978,9.130,8.593,10.805,0.806,8.744,8.335,14.782,4.734,8.883
Fri Nov 22 20:57:18 2024,220,-27.092,27.092,37.340,37.340,27.277,5.956,12.109,13.000,9.068,8.689,10.750,0.712,8.611,8.201,14.876,4.667,8.858
Fri Nov 22 20:57:18 2024,225,-26.647,26.647,37.785,37.785,27.370,5.953,12.159,13.018,9.143,8.644,10.697,0.762,8.434,8.100,14.986,4.538,8.866
Fri Nov 22 20:57:18 2024,230,-25.987,25.987,38.454,38.454,27.587,6.110,12.201,13.036,9.351,8.471,10.637,0.944,8.189,8.014,15.129,4.331,8.902
Fri Nov 22 20:57:18 2024,235,-25.539,25.539,38.940,38.940,27.736,6.197,12.229,13.050,9.487,8.361,10.591,1.061,8.007,7.941,15.236,4.181,8.925
Fri Nov 22 20:57:18 2024,240,-25.173,25.173,38.739,38.739,27.290,6.116,12.584,13.157,9.446,8.635,10.524,1.122,8.249,7.775,15.246,4.148,8.657
Fri Nov 22 20:57:18 2024,245,-24.780,24.780,38.750,38.750,27.004,6.082,12.863,13.250,9.461,8.813,10.452,1.214,8.387,7.613,15.288,4.072,8.440
Fri Nov 22 20:57:18 2024,250,-24.633,24.633,37.777,37.777,26.306,6.184,12.913,13.477,9.449,8.863,10.493,1.207,8.556,7.544,15.350,3.954,8.270
Fri Nov 22 20:57:18 2024,255,-24.536,24.536,37.005,37.005,25.739,6.267,12.950,13.662,9.442,8.907,10.523,1.206,8.694,7.483,15.400,3.855,8.126
Fri Nov 22 20:57:18 2024,260,-24.111,24.111,36.223,36.223,25.256,6.537,12.623,13.810,9.464,8.656,10.615,1.120,8.401,7.482,15.420,3.642,8.089
Fri Nov 22 20:57:18 2024,265,-23.652,23.652,35.796,35.796,25.072,6.822,12.179,13.865,9.499,8.284,10.710,1.015,7.926,7.526,15.414,3.419,8.148
Fri Nov 22 20:57:18 2024,270,-23.225,23.225,35.380,35.380,24.912,7.108,11.728,13.921,9.537,7.890,10.804,0.919,7.448,7.570,15.412,3.169,8.210
Fri Nov 22 20:57:18 2024,275,-22.023,22.023,35.095,35.095,24.914,6.930,11.895,13.486,9.312,7.930,10.538,0.704,7.190,7.260,15.293,3.334,8.214
Fri Nov 22 20:57:18 2024,280,-20.945,20.945,34.820,34.820,24.930,6.801,11.993,13.102,9.115,7.910,10.309,0.552,6.897,6.991,15.184,3.453,8.226
Fri Nov 22 20:57:18 2024,285,-20.449,20.449,34.364,34.364,24.642,6.490,12.319,13.127,8.966,8.112,10.302,0.462,7.041,7.021,15.194,3.531,8.315
Fri Nov 22 20:57:18 2024,290,-19.968,19.968,33.775,33.775,24.246,6.055,12.782,13.244,8.785,8.416,10.341,-0.514,7.311,7.121,15.231,3.618,8.446
Fri Nov 22 20:57:18 2024,295,-19.632,19.632,33.171,33.171,23.750,5.757,13.151,13.244,8.677,8.693,10.358,-0.632,7.608,7.172,15.284,3.666,8.495
Fri Nov 22 20:57:18 2024,300,-19.414,19.414,32.487,32.487,23.083,5.584,13.446,13.116,8.638,8.959,10.352,-0.706,7.967,7.172,15.361,3.676,8.459
Fri Nov 22 20:57:18 2024,305,-19.236,19.236,31.858,31.858,22.469,5.419,13.725,12.995,8.601,9.207,10.349,-0.786,8.308,7.173,15.434,3.683,8.424
Fri Nov 22 20:57:18 2024,310,-18.737,18.737,30.599,30.599,21.339,5.549,13.661,12.775,8.714,9.256,10.376,-0.737,8.414,7.173,15.499,3.638,8.385
Fri Nov 22 20:57:18 2024,315,-18.319,18.319,29.522,29.522,20.366,5.657,13.608,12.582,8.812,9.296,10.401,-0.696,8.511,7.174,15.557,3.599,8.350
Fri Nov 22 20:57:18 2024,320,-17.854,17.854,28.461,28.461,19.536,5.516,13.760,12.451,8.775,9.444,10.410,-0.723,8.565,7.174,15.498,3.679,8.311
Fri Nov 22 20:57:18 2024,325,-17.289,17.289,27.221,27.221,18.654,5.189,14.072,12.334,8.645,9.688,10.411,-0.801,8.601,7.174,15.356,3.850,8.263
Fri Nov 22 20:57:18 2024,330,-16.782,16.782,26.067,26.067,17.845,4.878,14.366,12.223,8.522,9.918,10.412,-0.878,8.635,7.174,15.221,4.012,8.217
Fri Nov 22 20:57:18 2024,335,-16.661,16.661,24.408,24.408,16.534,4.863,14.415,12.314,8.560,9.965,10.458,-0.786,8.646,7.168,15.231,3.924,7.982
Fri Nov 22 20:57:18 2024,340,-16.525,16.525,23.033,23.033,15.477,4.822,14.480,12.375,8.580,10.018,10.493,-0.724,8.657,7.164,15.225,3.870,7.794
Fri Nov 22 20:57:18 2024,345,-16.449,16.449,21.259,21.259,14.068,4.976,14.443,12.286,8.741,10.006,10.662,-0.641,8.763,7.224,15.231,3.856,7.604
Fri Nov 22 20:57:18 2024,350,-16.406,16.406,19.822,19.822,12.933,5.140,14.380,12.182,8.898,9.972,10.824,-0.573,8.866,7.284,15.238,3.854,7.458
Fri Nov 22 20:57:18 2024,355,-16.366,16.366,18.483,18.483,11.895,5.294,14.309,12.084,9.047,9.933,10.976,-0.514,8.962,7.342,15.246,3.852,7.321
Fri Nov 22 20:57:18 2024,360,-16.286,16.286,16.324,16.324,10.130,5.314,14.283,11.928,9.102,9.927,10.984,-0.539,8.937,7.286,15.304,3.837,7.290
Fri Nov 22 20:57:18 2024,365,-16.225,16.225,14.610,14.610,8.763,5.359,14.250,11.803,9.168,9.913,11.020,-0.544,8.939,7.261,15.346,3.825,7.242
Fri Nov 22 20:57:18 2024,370,-16.126,16.126,12.593,12.593,7.013,5.302,14.325,11.519,9.230,9.966,11.107,-0.538,9.062,7.208,15.377,3.844,7.044
Fri Nov 22 20:57:18 2024,375,-16.040,16.040,10.808,10.808,5.494,5.251,14.392,11.267,9.283,10.009,11.184,-0.531,9.171,7.161,15.404,3.860,6.868
Fri Nov 22 20:57:18 2024,380,-15.841,15.841,9.012,9.012,4.023,5.137,14.526,10.916,9.295,10.089,11.166,-0.536,9.203,7.023,15.399,3.903,6.671
Fri Nov 22 20:57:18 2024,385,-15.605,15.605,7.402,7.402,2.757,5.003,14.681,10.552,9.284,10.177,11.100,-0.546,9.190,6.851,15.379,3.956,6.485
Fri Nov 22 20:57:18 2024,390,-15.398,15.398,5.983,5.983,1.710,4.885,14.818,10.230,9.276,10.251,11.041,-0.555,9.178,6.700,15.361,4.001,6.321
Fri Nov 22 20:57:18 2024,395,-15.182,15.182,4.601,4.601,0.828,4.721,15.009,9.975,9.218,10.406,11.020,-0.550,9.372,6.683,15.387,4.019,6.243
Fri Nov 22 20:57:18 2024,400,-14.941,14.941,2.969,2.969,-1.387,4.539,15.221,9.662,9.161,10.557,10.986,-0.547,9.553,6.633,15.407,4.044,6.132
Fri Nov 22 20:57:18 2024,405,-14.659,14.659,1.775,1.775,-2.281,4.385,15.404,9.442,9.058,10.697,10.969,-0.607,9.680,6.621,15.341,4.146,6.124
Fri Nov 22 20:57:18 2024,410,-14.341,14.341,0.485,0.485,-3.306,4.213,15.609,9.203,8.932,10.856,10.951,-0.690,9.817,6.611,15.253,4.274,6.132
Fri Nov 22 20:57:18 2024,415,-14.121,-14.121,0.536,-0.536,-4.043,4.088,15.757,9.030,8.841,10.970,10.938,-0.752,9.916,6.605,15.189,4.365,6.137
Fri Nov 22 20:57:18 2024,420,-13.952,-13.952,-1.782,-1.782,-5.066,4.069,15.832,8.984,8.723,11.086,10.942,-0.768,10.017,6.626,15.171,4.350,5.964
Fri Nov 22 20:57:18 2024,425,-13.813,-13.813,-2.744,-2.744,-5.814,4.035,15.897,8.925,8.634,11.179,10.942,-0.790,10.098,6.637,15.148,4.356,5.859
Fri Nov 22 20:57:18 2024,430,-13.561,-13.561,-3.814,-3.814,-6.542,3.937,16.011,8.743,8.594,11.250,10.958,-0.828,10.121,6.634,15.188,4.356,5.885
Fri Nov 22 20:57:18 2024,435,-13.380,-13.380,-4.590,-4.590,-7.054,3.863,16.096,8.605,8.569,11.297,10.971,-0.856,10.133,6.631,15.221,4.354,5.914
Fri Nov 22 20:57:18 2024,440,-13.218,-13.218,-5.317,-5.317,-7.524,3.793,16.174,8.476,8.546,11.338,10.982,-0.882,10.145,6.629,15.252,4.351,5.941
Fri Nov 22 20:57:18 2024,445,-12.944,-12.944,-6.007,-6.007,-8.015,3.629,16.350,8.491,8.424,11.464,11.126,-0.865,10.234,6.782,15.181,4.404,5.939
Fri Nov 22 20:57:18 2024,450,-12.786,-12.786,-6.554,-6.554,-8.386,3.528,16.457,8.464,8.357,11.537,11.200,-0.864,10.281,6.857,15.154,4.429,5.946
Fri Nov 22 20:57:18 2024,455,-12.443,-12.443,-7.196,-7.196,-8.811,3.367,16.621,8.391,8.223,11.665,11.296,-0.894,10.167,6.872,15.150,4.418,5.911
Fri Nov 22 20:57:18 2024,460,-12.176,-12.176,-7.794,-7.794,-9.200,3.222,16.769,8.328,8.104,11.780,11.384,-0.920,10.073,6.890,15.145,4.411,5.882
Fri Nov 22 20:57:18 2024,465,-11.955,-11.955,-8.102,-8.102,-9.362,2.996,17.002,8.418,8.021,11.865,11.511,-0.926,9.983,6.976,15.143,4.400,5.931
Fri Nov 22 20:57:18 2024,470,-11.815,-11.815,-8.313,-8.313,-9.459,2.785,17.215,8.527,7.957,11.933,11.628,-0.927,9.907,7.063,15.142,4.389,5.989
Fri Nov 22 20:57:18 2024,475,-11.735,-11.735,-8.500,-8.500,-9.545,2.601,17.396,8.622,7.901,11.991,11.730,-0.929,9.841,7.139,15.141,4.379,6.039
Fri Nov 22 20:57:18 2024,480,-11.703,-11.703,-8.548,-8.548,-9.601,2.570,17.430,8.631,7.862,11.978,11.600,-0.899,9.624,7.100,15.057,4.387,5.974
Fri Nov 22 20:57:18 2024,485,-11.733,-11.733,-8.655,-8.655,-9.682,2.488,17.512,8.669,7.812,11.979,11.528,-0.877,9.427,7.093,14.988,4.386,5.938
Fri Nov 22 20:57:18 2024,490,-11.788,-11.788,-8.725,-8.725,-9.734,2.436,17.564,8.694,7.780,11.977,11.484,-0.864,9.304,7.088,14.945,4.383,5.916
Fri Nov 22 20:57:18 2024,495,-12.112,-12.112,-8.571,-8.571,-9.597,2.368,17.626,8.710,7.813,11.941,11.578,-0.830,9.257,7.168,14.935,4.327,5.940
Fri Nov 22 20:57:18 2024,500,-12.375,-12.375,-8.571,-8.571,-9.595,2.380,17.618,8.736,7.833,11.918,11.572,-0.798,9.169,7.161,14.923,4.302,5.924
Fri Nov 22 20:57:18 2024,505,-12.592,-12.592,-8.568,-8.568,-9.577,2.643,18.268,9.403,7.894,11.847,11.543,-0.690,9.099,7.126,14.868,4.287,5.895
Fri Nov 22 20:57:18 2024,510,-12.780,-12.780,-8.562,-8.562,-9.549,3.074,19.357,10.499,7.982,11.744,11.498,-0.532,9.042,7.074,14.785,4.279,5.858
Fri Nov 22 20:57:18 2024,515,-12.967,-12.967,-8.557,-8.557,-9.521,3.505,20.446,11.594,8.070,11.642,11.454,-0.375,8.984,7.022,14.702,4.271,5.820
Fri Nov 22 20:57:18 2024,520,-13.154,-13.154,-8.551,-8.551,-9.493,3.935,21.535,12.690,8.158,11.539,11.409,-0.217,8.926,6.969,14.618,4.264,5.782
Fri Nov 22 20:57:18 2024,525,-13.341,-13.341,-8.545,-8.545,-9.465,4.366,22.624,13.785,8.246,11.437,11.364,-0.059,8.868,6.916,14.535,4.256,5.744
Fri Nov 22 20:57:18 2024,530,-13.528,-13.528,-8.540,-8.540,-9.437,4.797,23.713,14.881,8.334,11.335,11.320,0.099,8.810,6.864,14.452,4.248,5.706
Fri Nov 22 20:57:18 2024,535,-13.716,-13.716,-8.534,-8.534,-9.409,5.227,24.801,15.976,8.422,11.232,11.275,0.257,8.753,6.812,14.369,4.240,5.669
Fri Nov 22 20:57:18 2024,540,-13.903,-13.903,-8.529,-8.529,-9.381,5.658,25.890,17.072,8.510,11.130,11.230,0.415,8.695,6.759,14.285,4.232,5.631
Fri Nov 22 20:57:18 2024,545,-14.090,-14.090,-8.523,-8.523,-9.353,6.088,26.979,18.167,8.599,11.027,11.185,0.573,8.637,6.706,14.202,4.224,5.593
Fri Nov 22 20:57:18 2024,550,-14.277,-14.277,-8.518,-8.518,-9.325,6.519,28.068,19.263,8.687,10.925,11.141,0.730,8.579,6.654,14.119,4.216,5.555
Fri Nov 22 20:57:18 2024,555,-14.465,-14.465,-8.512,-8.512,-9.297,6.950,29.157,20.358,8.775,10.822,11.096,0.888,8.522,6.602,14.036,4.208,5.518
Fri Nov 22 20:57:18 2024,560,-14.652,-14.652,-8.507,-8.507,-9.269,7.380,30.246,21.454,8.863,10.720,11.051,1.046,8.464,6.549,13.953,4.200,5.480
Fri Nov 22 20:57:18 2024,565,-14.839,-14.839,-8.501,-8.501,-9.241,7.811,31.335,22.549,8.951,10.618,11.006,1.204,8.406,6.496,13.869,4.192,5.442
Fri Nov 22 20:57:18 2024,570,-15.026,-15.026,-8.496,-8.496,-9.213,8.242,32.424,23.645,9.039,10.515,10.962,1.362,8.348,6.444,13.786,4.184,5.404
Fri Nov 22 20:57:18 2024,575,-15.214,-15.214,-8.490,-8.490,-9.185,8.672,33.512,24.740,9.127,10.413,10.917,1.520,8.291,6.392,13.703,4.177,5.367
Fri Nov 22 20:57:18 2024,580,-15.401,-15.401,-8.484,-8.484,-9.157,9.103,34.601,25.836,9.215,10.310,10.872,1.678,8.233,6.339,13.620,4.169,5.329
Fri Nov 22 20:57:18 2024,585,-15.588,-15.588,-8.479,-8.479,-9.129,9.534,35.690,26.931,9.303,10.208,10.828,1.836,8.175,6.286,13.536,4.161,5.291
Fri Nov 22 20:57:18 2024,590,-15.775,-15.775,-8.473,-8.473,-9.101,9.964,36.779,28.027,9.391,10.106,10.783,1.993,8.117,6.234,13.453,4.153,5.253
Fri Nov 22 20:57:18 2024,595,-15.962,-15.962,-8.468,-8.468,-9.073,10.395,37.868,29.122,9.479,10.003,10.738,2.151,8.059,6.182,13.370,4.145,5.215
Fri Nov 22 20:57:18 2024,600,-16.150,-16.150,-8.462,-8.462,-9.045,10.825,38.957,30.218,9.568,9.901,10.693,2.309,8.002,6.129,13.287,4.137,5.178
Fri Nov 22 20:57:18 2024,605,-16.337,-16.337,-8.457,-8.457,-9.017,11.256,40.046,31.313,9.656,9.798,10.649,2.467,7.944,6.076,13.204,4.129,5.140
Fri Nov 22 20:57:18 2024,610,-16.524,-16.524,-8.451,-8.451,-8.989,11.687,41.134,32.409,9.744,9.696,10.604,2.625,7.886,6.024,13.120,4.121,5.102
Fri Nov 22 20:57:18 2024,615,-16.635,-16.635,-8.514,-8.514,-8.922,12.128,42.604,34.842,9.843,9.574,10.694,2.801,7.659,6.028,12.989,4.037,5.047
Fri Nov 22 20:57:18 2024,620,-16.684,-16.684,-8.604,-8.604,-8.843,12.509,44.060,37.660,9.933,9.460,10.844,2.960,7.373,6.063,12.849,3.918,4.990
Fri Nov 22 20:57:18 2024,625,-16.752,-16.752,-8.772,-8.772,-8.431,11.403,46.926,45.049,9.857,9.545,10.668,3.365,7.318,6.142,12.861,3.976,5.057
Fri Nov 22 20:57:18 2024,630,-16.813,-16.813,-8.912,-8.912,-8.134,10.796,49.537,51.246,9.840,9.561,10.608,3.684,7.175,6.205,12.820,3.971,5.081
Fri Nov 22 20:57:18 2024,635,-16.596,-16.596,-8.730,-8.730,-7.795,10.464,52.723,57.118,9.740,9.753,10.130,3.674,7.766,5.976,12.829,3.923,4.853
Fri Nov 22 20:57:18 2024,640,-16.444,-16.444,-8.612,-8.612,-7.498,10.168,55.655,62.687,9.667,9.892,9.766,3.714,8.184,5.814,12.831,3.886,4.693
Fri Nov 22 20:57:18 2024,645,-16.190,-16.190,-8.687,-8.687,-7.320,9.960,56.388,65.669,9.612,10.054,9.687,3.713,8.654,5.822,12.837,3.981,4.726
Fri Nov 22 20:57:18 2024,650,-15.938,-15.938,-8.822,-8.822,-7.207,9.795,56.188,67.338,9.574,10.188,9.720,3.699,9.085,5.893,12.846,4.108,4.829
Fri Nov 22 20:57:18 2024,655,-15.748,-15.748,-8.929,-8.929,-7.119,9.663,56.029,68.658,9.547,10.280,9.747,3.692,9.419,5.950,12.855,4.204,4.911
Fri Nov 22 20:57:18 2024,660,-15.326,-15.326,-9.132,-9.132,-7.177,9.142,57.215,69.759,9.587,10.311,9.946,3.816,9.632,5.891,12.871,4.254,4.772
Fri Nov 22 20:57:18 2024,665,-15.066,-15.066,-9.261,-9.261,-7.195,8.843,57.841,70.579,9.603,10.332,10.059,3.882,9.801,5.869,12.881,4.297,4.711
Fri Nov 22 20:57:18 2024,670,-14.818,-14.818,-9.386,-9.386,-7.212,8.562,58.445,71.366,9.619,10.343,10.167,3.944,9.961,5.847,12.890,4.338,4.652
Fri Nov 22 20:57:18 2024,675,-14.743,-14.743,-9.028,-9.028,-7.000,9.350,61.031,74.397,9.765,10.235,10.158,3.931,10.303,5.703,12.803,4.555,4.659
Fri Nov 22 20:57:18 2024,680,-14.630,-14.630,-8.906,-8.906,-6.858,9.779,63.122,76.933,9.827,10.163,10.235,3.973,10.484,5.616,12.775,4.731,4.709
Fri Nov 22 20:57:18 2024,685,-14.560,-14.560,-8.812,-8.812,-6.722,10.218,65.067,79.287,9.867,10.099,10.316,4.018,10.594,5.544,12.758,4.896,4.789
Fri Nov 22 20:57:18 2024,690,-14.498,-14.498,-8.727,-8.727,-6.597,10.649,66.852,81.405,9.902,10.030,10.390,4.058,10.692,5.479,12.742,5.043,4.861
Fri Nov 22 20:57:18 2024,695,-14.403,-14.403,-8.749,-8.749,-6.599,11.202,69.524,83.809,9.904,9.994,10.414,3.980,10.868,5.400,12.689,5.245,4.936
Fri Nov 22 20:57:18 2024,700,-14.322,-14.322,-8.754,-8.754,-6.584,11.771,71.900,85.906,9.909,9.949,10.444,3.923,11.020,5.328,12.644,5.421,5.006
Fri Nov 22 20:57:18 2024,705,-14.260,-14.260,-8.757,-8.757,-6.572,12.265,73.767,87.466,9.913,9.911,10.470,3.879,11.138,5.273,12.608,5.556,5.061
Fri Nov 22 20:57:18 2024,710,-14.536,-14.536,-8.569,-8.569,-6.322,12.168,75.579,89.377,10.074,9.693,10.534,3.915,11.437,5.385,12.594,5.682,5.336
Fri Nov 22 20:57:18 2024,715,-14.656,-14.656,-8.481,-8.481,-6.201,12.389,77.132,90.731,10.148,9.572,10.575,3.913,11.619,5.417,12.574,5.789,5.485
Fri Nov 22 20:57:18 2024,720,-14.376,-14.376,-8.482,-8.482,-6.280,13.252,78.855,91.188,10.390,12.893,10.650,3.989,11.806,5.329,12.508,5.940,5.417
Fri Nov 22 20:57:18 2024,725,-14.240,-14.240,-8.465,-8.465,-6.300,13.843,80.196,91.696,10.548,31.021,10.705,4.032,11.952,5.285,12.466,6.049,5.408
Fri Nov 22 20:57:18 2024,730,-14.121,-14.121,-8.450,-8.450,-6.319,14.402,81.403,92.120,10.688,31.242,10.756,4.071,12.081,5.244,12.427,6.147,5.400
Fri Nov 22 20:57:18 2024,735,-14.163,-14.163,-8.405,-8.405,-6.297,14.637,82.764,92.094,10.794,31.519,10.942,4.002,12.339,5.300,12.287,6.482,5.558
Fri Nov 22 20:57:18 2024,740,-14.148,-14.148,-8.379,-8.379,-6.295,15.002,83.821,92.212,10.891,31.735,11.045,3.985,12.500,5.308,12.210,6.661,5.622
Fri Nov 22 20:57:18 2024,745,-13.953,-13.953,-8.192,-8.192,-6.230,15.719,84.989,92.190,11.124,32.180,11.261,4.015,12.803,5.423,12.145,6.767,5.700
Fri Nov 22 20:57:18 2024,750,-13.817,-13.817,-8.055,-8.055,-6.184,16.368,86.140,92.189,11.312,32.571,11.448,4.028,13.061,5.505,12.075,6.897,5.775
Fri Nov 22 20:57:18 2024,755,-13.709,-13.709,-7.969,-7.969,-6.180,16.875,86.802,92.199,11.519,33.048,11.631,3.994,13.352,5.533,11.931,7.079,5.822
Fri Nov 22 20:57:18 2024,760,-13.626,-13.626,-7.899,-7.899,-6.173,17.282,87.353,92.199,11.669,33.405,11.771,3.972,13.563,5.559,11.831,7.208,5.860
Fri Nov 22 20:57:18 2024,765,13.480,-13.480,-7.802,-7.802,-6.155,17.803,88.206,92.126,11.859,33.919,11.945,4.096,13.832,5.656,11.830,7.292,5.980
Fri Nov 22 20:57:18 2024,770,13.340,-13.340,-7.715,-7.715,-6.136,18.274,89.005,92.033,12.021,34.397,12.098,4.250,14.048,5.763,11.868,7.338,6.109
Fri Nov 22 20:57:18 2024,775,13.243,-13.243,-7.654,-7.654,-6.125,18.615,89.566,91.964,12.132,34.738,12.207,4.356,14.185,5.838,11.894,7.368,6.201
Fri Nov 22 20:57:18 2024,780,13.212,-13.212,-7.438,-7.438,-6.094,19.075,90.333,91.605,12.347,35.286,12.348,4.412,14.372,5.830,11.738,7.514,6.109
Fri Nov 22 20:57:18 2024,785,13.177,-13.177,-7.293,-7.293,-6.073,19.435,90.910,91.366,12.497,35.695,12.456,4.464,14.500,5.838,11.645,7.610,6.067
Fri Nov 22 20:57:18 2024,790,13.141,-13.141,-7.301,-7.301,-6.139,19.705,91.398,91.165,12.618,36.094,12.638,4.465,14.626,5.864,11.495,7.724,5.981
Fri Nov 22 20:57:18 2024,795,13.115,-13.115,-7.320,-7.320,-6.195,19.903,91.756,91.017,12.704,36.394,12.782,4.461,14.717,5.886,11.378,7.809,5.914
Fri Nov 22 20:57:18 2024,800,13.095,-13.095,-7.337,-7.337,-6.243,20.076,92.062,90.889,12.777,36.654,12.906,4.457,14.794,5.904,11.279,7.881,5.857
Fri Nov 22 20:57:18 2024,805,13.082,-13.082,-7.347,-7.347,-6.275,20.190,92.260,90.804,12.824,36.824,12.988,4.454,14.843,5.916,11.214,7.927,5.820
Fri Nov 22 20:57:18 2024,810,13.078,-13.078,-7.352,-7.352,-6.287,20.234,92.339,90.766,12.842,36.893,13.020,4.452,14.862,5.920,11.188,7.946,5.805
Fri Nov 22 20:57:18 2024,815,13.220,-13.220,-7.074,-7.074,-6.140,20.973,92.949,89.839,12.847,37.048,13.466,4.546,14.961,6.061,11.068,8.023,5.567
Fri Nov 22 20:57:18 2024,820,13.251,-13.251,-7.007,-7.007,-6.119,21.239,93.225,89.542,12.876,37.193,13.637,4.569,15.007,6.105,10.999,8.070,5.483
Fri Nov 22 20:57:18 2024,825,13.275,-13.275,-6.939,-6.939,-6.094,21.422,93.412,89.228,12.915,37.336,13.828,4.652,15.010,6.174,11.003,8.046,5.449
Fri Nov 22 20:57:18 2024,830,13.290,-13.290,-6.863,-6.863,-6.062,21.495,93.482,88.852,12.975,37.494,14.073,4.840,14.939,6.286,11.125,7.906,5.490
Fri Nov 22 20:57:18 2024,835,13.307,-13.307,-6.798,-6.798,-6.036,21.588,93.574,88.528,13.023,37.633,14.282,4.979,14.875,6.376,11.204,7.811,5.508
Fri Nov 22 20:57:18 2024,840,13.316,-13.316,-6.859,-6.859,-6.113,21.727,93.482,88.150,13.031,37.697,14.446,4.998,14.877,6.485,11.242,7.807,5.487
Fri Nov 22 20:57:18 2024,845,13.327,-13.327,-6.890,-6.890,-6.165,21.859,93.434,87.783,13.049,37.778,14.619,5.043,14.860,6.589,11.289,7.782,5.476
Fri Nov 22 20:57:18 2024,850,13.248,-13.248,-6.818,-6.818,-6.134,21.839,93.337,87.612,13.084,37.920,14.829,5.210,14.746,6.763,11.348,7.742,5.520
Fri Nov 22 20:57:18 2024,855,13.182,-13.182,-6.758,-6.758,-6.106,21.818,93.258,87.482,13.114,38.036,15.000,5.347,14.636,6.905,11.395,7.709,5.557
Fri Nov 22 20:57:18 2024,860,13.115,-13.115,-6.695,-6.695,-6.078,21.798,93.177,87.349,13.142,38.153,15.172,5.485,14.513,7.050,11.443,7.675,5.596
Fri Nov 22 20:57:18 2024,865,12.987,-12.987,-6.627,-6.627,-6.079,21.664,92.982,87.223,13.101,38.068,15.128,5.666,14.334,7.112,11.412,7.673,5.592
Fri Nov 22 20:57:18 2024,870,12.896,-12.896,-6.571,-6.571,-6.071,21.584,92.850,87.110,13.087,38.055,15.152,5.808,14.192,7.190,11.408,7.661,5.602
Fri Nov 22 20:57:18 2024,875,12.801,-12.801,-6.602,-6.602,-6.115,21.392,92.661,86.958,13.045,38.092,15.151,6.021,13.963,7.384,11.454,7.634,5.652
Fri Nov 22 20:57:18 2024,880,12.719,-12.719,-6.620,-6.620,-6.147,21.238,92.504,86.830,13.012,38.120,15.153,6.197,13.762,7.541,11.489,7.612,5.691
Fri Nov 22 20:57:18 2024,885,12.558,-12.558,-6.700,-6.700,-6.194,20.827,92.137,86.822,12.982,38.120,15.115,6.340,13.597,7.681,11.525,7.558,5.724
Fri Nov 22 20:57:18 2024,890,12.403,-12.403,-6.783,-6.783,-6.237,20.422,91.776,86.850,12.958,38.112,15.073,6.446,13.477,7.790,11.554,7.505,5.749
Fri Nov 22 20:57:18 2024,895,12.290,-12.290,-6.844,-6.844,-6.268,20.129,91.511,86.868,12.940,38.106,15.042,6.524,13.388,7.870,11.575,7.465,5.767
Fri Nov 22 20:57:18 2024,900,12.027,-12.027,-7.065,-7.065,-6.419,19.830,91.022,86.768,12.901,37.957,15.015,6.661,13.239,8.020,11.677,7.299,5.773
Fri Nov 22 20:57:18 2024,905,11.867,-11.867,-7.194,-7.194,-6.505,19.623,90.713,86.716,12.877,37.876,14.995,6.748,13.144,8.115,11.735,7.202,5.779
Fri Nov 22 20:57:18 2024,910,11.704,-11.704,-7.302,-7.302,-6.520,19.102,90.259,87.013,12.845,37.712,14.845,6.877,13.025,8.166,11.819,7.119,5.821
Fri Nov 22 20:57:18 2024,915,11.572,-11.572,-7.388,-7.388,-6.522,18.646,89.870,87.300,12.818,37.567,14.705,6.989,12.924,8.201,11.891,7.054,5.861
Fri Nov 22 20:57:18 2024,920,11.468,-11.468,-7.454,-7.454,-6.524,18.296,89.567,87.524,12.797,37.455,14.596,7.076,12.845,8.228,11.947,7.003,5.892
Fri Nov 22 20:57:18 2024,925,11.456,-11.456,-7.295,-7.295,-6.488,17.662,88.403,86.978,12.694,37.524,14.625,7.129,12.757,8.342,11.987,6.912,5.858
Fri Nov 22 20:57:18 2024,930,11.414,-11.414,-7.222,-7.222,-6.467,17.190,87.608,86.709,12.627,37.528,14.606,7.189,12.677,8.419,12.029,6.840,5.847
Fri Nov 22 20:57:18 2024,935,11.292,-11.292,-7.219,-7.219,-6.379,16.455,86.524,86.706,12.537,37.335,14.543,7.205,12.662,8.485,12.065,6.792,5.920
Fri Nov 22 20:57:18 2024,940,11.200,-11.200,-7.207,-7.207,-6.312,15.883,85.633,86.653,12.462,37.197,14.496,7.224,12.641,8.543,12.096,6.749,5.972
Fri Nov 22 20:57:18 2024,945,11.118,-11.118,-7.197,-7.197,-6.252,15.384,84.833,86.596,12.395,37.073,14.454,7.242,12.623,8.595,12.124,6.710,6.019
Fri Nov 22 20:57:18 2024,950,10.863,-10.863,-7.281,-7.281,-6.268,14.834,83.877,85.992,12.298,36.844,14.310,7.137,12.716,8.559,12.104,6.765,5.946
Fri Nov 22 20:57:18 2024,955,10.694,-10.694,-7.322,-7.322,-6.254,14.361,83.044,85.626,12.218,36.672,14.217,7.088,12.758,8.560,12.105,6.780,5.925
Fri Nov 22 20:57:18 2024,960,10.354,-10.354,-7.458,-7.458,-6.206,13.635,81.738,85.976,12.102,36.719,14.245,6.937,12.858,8.662,12.102,6.854,5.990
Fri Nov 22 20:57:18 2024,965,-10.114,-10.114,-7.552,-7.552,-6.174,13.106,80.752,86.110,12.015,36.718,14.245,6.832,12.925,8.727,12.100,6.903,6.028
Fri Nov 22 20:57:18 2024,970,-9.502,-9.502,-7.428,-7.428,-6.229,12.506,78.354,84.167,12.007,36.736,14.186,6.708,26.988,8.691,12.029,6.970,5.756
Fri Nov 22 20:57:18 2024,975,-8.924,-8.924,-7.290,-7.290,-6.293,12.072,75.959,81.994,12.008,36.756,14.124,6.591,26.908,8.649,11.954,7.036,5.468
Fri Nov 22 20:57:18 2024,980,-8.469,-8.469,-7.171,-7.171,-6.349,11.797,73.930,80.070,12.009,36.774,14.073,6.491,26.844,8.613,11.891,7.092,5.221
Fri Nov 22 20:57:18 2024,985,-7.884,-7.884,-7.485,-7.485,-6.538,10.746,70.863,76.125,12.273,36.564,13.767,6.481,13.324,8.605,11.965,7.004,5.255
Fri Nov 22 20:57:18 2024,990,-7.414,-7.414,-7.646,-7.646,-6.682,10.131,68.356,73.098,12.430,36.449,13.568,6.437,13.435,8.590,11.990,6.969,5.192
Fri Nov 22 20:57:18 2024,995,-7.450,-7.450,-7.493,-7.493,-6.903,10.776,68.340,70.035,12.167,35.706,13.147,6.217,13.754,8.427,11.789,7.148,5.311
Fri Nov 22 20:57:19 2024,0,-7.483,-7.483,-7.386,-7.386,-7.082,11.246,68.208,67.541,11.979,35.143,12.816,6.052,13.948,8.303,11.633,7.284,5.400
Fri Nov 22 20:57:19 2024,5,-7.532,-7.532,-7.295,-7.295,-7.241,11.654,68.094,65.369,11.819,34.661,12.528,5.911,14.074,8.197,11.496,7.403,5.479
Fri Nov 22 20:57:19 2024,10,-7.996,-7.996,7.296,-7.296,-8.113,11.650,59.200,50.974,11.952,33.971,13.545,6.239,13.436,8.615,11.700,6.876,5.805
Fri Nov 22 20:57:19 2024,15,8.277,-8.277,7.273,-7.273,-8.551,11.957,55.574,44.882,11.987,33.589,13.928,6.372,12.998,8.785,11.765,6.649,5.991
Fri Nov 22 20:57:19 2024,20,8.260,-8.260,-7.356,-7.356,-9.041,11.528,51.516,38.880,11.476,32.826,13.831,5.976,13.422,8.950,11.655,6.606,6.116
Fri Nov 22 20:57:19 2024,25,8.301,-8.301,-7.406,-7.406,-9.415,11.375,48.552,34.584,11.166,32.303,13.828,5.751,13.605,9.080,11.600,6.534,6.226
Fri Nov 22 20:57:19 2024,30,8.337,-8.337,-7.450,-7.450,-9.728,11.275,46.167,31.324,10.906,31.873,13.824,5.562,13.756,9.189,11.554,6.468,6.318
Fri Nov 22 20:57:19 2024,35,8.116,-8.116,-7.458,-7.458,-9.809,10.083,43.184,27.408,10.740,31.567,13.172,5.552,13.546,8.616,11.926,6.236,5.984
Fri Nov 22 20:57:19 2024,40,7.968,-7.968,-7.429,-7.429,-9.884,9.439,41.002,24.419,10.546,31.280,12.993,5.573,13.485,8.480,12.152,6.120,5.928
Fri Nov 22 20:57:19 2024,45,-7.751,-7.751,-7.344,-7.344,-9.875,8.687,38.818,21.300,10.325,30.992,12.928,5.700,13.403,8.420,12.468,6.000,5.930
Fri Nov 22 20:57:19 2024,50,-7.587,-7.587,-7.280,-7.280,-9.866,8.114,37.161,19.025,10.154,30.772,12.878,5.798,13.338,8.375,12.711,5.898,5.934
Fri Nov 22 20:57:19 2024,55,-7.457,-7.457,-7.334,-7.334,-9.984,7.207,35.576,16.947,9.920,30.545,12.804,5.953,13.362,8.507,13.056,5.841,5.955
Fri Nov 22 20:57:19 2024,60,-7.343,-7.343,-7.366,-7.366,-10.069,6.496,34.250,15.250,9.730,30.354,12.744,6.076,13.358,8.600,13.334,5.763,5.974
Fri Nov 22 20:57:19 2024,65,-6.983,-6.983,-7.420,-7.420,-10.112,5.903,32.810,13.776,9.682,30.391,12.771,6.147,13.405,8.652,13.480,5.735,5.863
Fri Nov 22 20:57:19 2024,70,-6.627,-6.627,-7.471,-7.471,-10.140,5.416,31.557,12.575,9.671,30.476,12.813,6.198,13.446,8.687,13.581,5.717,5.742
Fri Nov 22 20:57:19 2024,75,-6.331,-6.331,-7.516,-7.516,-10.164,5.005,30.506,11.586,9.662,30.553,12.848,6.241,13.472,8.718,13.667,5.698,5.640
Fri Nov 22 20:57:19 2024,80,-5.746,-5.746,-7.623,-7.623,-10.347,4.655,29.388,10.796,9.930,31.091,13.063,6.296,13.474,8.779,13.847,5.521,5.502
Fri Nov 22 20:57:19 2024,85,-5.318,-5.318,-7.703,-7.703,-10.473,4.342,28.454,10.101,10.103,31.474,13.209,6.342,13.474,8.826,13.982,5.401,5.389
Fri Nov 22 20:57:19 2024,90,-4.930,-4.930,-7.663,-7.663,-10.518,4.098,27.877,9.631,10.480,32.245,13.500,6.424,13.434,8.887,14.019,5.365,5.327
Fri Nov 22 20:57:19 2024,95,-4.502,-4.502,-7.615,-7.615,-10.566,3.827,27.250,9.120,10.912,33.157,13.827,6.518,13.381,8.957,14.055,5.328,5.258
Fri Nov 22 20:57:19 2024,100,-4.215,-4.215,-7.584,-7.584,-10.600,3.642,26.825,8.776,11.206,33.794,14.047,6.582,13.341,9.004,14.079,5.303,5.211
Fri Nov 22 20:57:19 2024,105,-3.840,-3.840,-7.741,-7.741,-10.770,3.503,26.517,8.350,11.828,34.982,14.616,6.876,13.094,9.058,14.210,5.209,5.121
Fri Nov 22 20:57:19 2024,110,-3.506,-3.506,-7.835,-7.835,-10.892,3.355,26.185,7.967,12.328,35.981,15.064,7.089,12.902,9.110,14.303,5.139,5.048
Fri Nov 22 20:57:19 2024,115,-3.311,-3.311,-7.890,-7.890,-10.963,3.268,25.990,7.745,12.623,36.574,15.329,7.214,12.783,9.140,14.358,5.098,5.006
Fri Nov 22 20:57:19 2024,120,-3.425,-3.425,-7.767,-7.767,-10.742,2.833,25.228,7.367,12.807,37.665,16.797,7.517,12.446,9.504,14.311,5.189,5.068
Fri Nov 22 20:57:19 2024,125,-3.439,-3.439,-7.652,-7.652,-10.613,2.639,24.931,7.263,12.978,38.324,17.506,7.689,12.203,9.685,14.323,5.173,5.072
Fri Nov 22 20:57:19 2024,130,-3.472,-3.472,-7.493,-7.493,-10.444,2.432,24.638,7.200,13.151,39.037,18.296,7.875,11.892,9.894,14.336,5.143,5.076
Fri Nov 22 20:57:19 2024,135,-3.500,-3.500,-7.366,-7.366,-10.309,2.266,24.404,7.149,13.289,39.617,18.940,8.023,28.383,10.062,14.345,5.120,5.079
Fri Nov 22 20:57:19 2024,140,-3.358,-3.358,-7.302,-7.302,-10.143,2.249,24.158,7.108,13.597,40.358,19.772,8.256,28.665,10.228,14.494,5.005,5.202
Fri Nov 22 20:57:19 2024,145,-3.283,-3.283,-7.246,-7.246,-10.028,2.212,23.985,7.076,13.792,40.870,20.347,8.410,28.870,10.348,14.578,4.937,5.271
Fri Nov 22 20:57:19 2024,150,-3.170,-3.170,-7.214,-7.214,-9.902,2.163,23.767,7.030,13.946,41.506,21.307,8.511,29.053,10.527,14.621,4.930,5.383
Fri Nov 22 20:57:19 2024,155,-3.001,-3.001,-7.216,-7.216,-9.760,2.096,23.488,6.964,14.040,42.327,22.831,8.537,29.205,10.790,14.604,5.012,5.557
Fri Nov 22 20:57:19 2024,160,-2.866,-2.866,-7.203,-7.203,-9.633,2.042,23.257,6.911,14.150,43.039,24.058,8.591,29.369,11.002,14.613,5.048,5.694
Fri Nov 22 20:57:19 2024,165,-0.031,-2.659,-7.050,-7.050,-9.119,1.862,22.806,7.166,14.128,44.764,26.323,8.556,29.655,11.344,14.620,5.197,6.210
Fri Nov 22 20:57:19 2024,170,2.480,-2.480,-6.947,-6.947,-8.744,1.732,22.443,7.312,14.134,46.189,28.264,8.545,29.928,11.643,14.622,5.280,6.596
Fri Nov 22 20:57:19 2024,175,-2.204,-2.204,-6.808,-6.808,-8.298,1.647,22.117,7.640,14.408,46.977,29.374,8.536,30.490,11.670,14.407,5.501,6.664
Fri Nov 22 20:57:19 2024,180,-1.976,-1.976,-6.686,-6.686,-7.901,1.565,21.841,7.914,14.625,47.802,30.557,8.525,31.020,11.726,14.238,5.684,6.772
Fri Nov 22 20:57:19 2024,185,-1.780,-1.780,-6.578,-6.578,-7.539,1.492,21.622,8.163,14.826,48.567,31.680,8.512,31.539,11.773,14.082,5.851,6.870
Fri Nov 22 20:57:19 2024,190,-1.742,-1.742,-6.327,-6.327,-7.139,1.133,18.850,8.161,15.878,49.986,32.628,7.454,32.476,11.334,13.949,6.006,6.672
Fri Nov 22 20:57:19 2024,195,-1.673,-1.673,-6.187,-6.187,-6.857,0.960,18.830,8.235,16.431,50.872,33.487,6.988,33.187,11.140,13.843,6.120,6.616
Fri Nov 22 20:57:19 2024,200,-2.369,-2.369,-5.771,-5.771,-6.814,0.518,18.465,8.103,18.431,49.733,30.871,6.149,33.430,11.288,13.162,6.753,6.420
Fri Nov 22 20:57:19 2024,205,2.878,-2.878,-5.463,-5.463,-6.728,0.192,17.927,8.040,19.994,49.356,28.969,5.479,33.810,11.340,12.686,7.185,6.280
Fri Nov 22 20:57:19 2024,210,3.100,-3.100,-5.180,-5.180,-6.557,0.034,17.569,8.097,22.232,49.749,27.068,5.136,34.188,11.896,12.164,7.574,6.091
Fri Nov 22 20:57:19 2024,215,-0.025,-3.088,-4.822,-4.822,-6.230,-0.024,17.338,8.295,25.810,51.162,24.683,5.021,34.683,13.243,11.394,8.004,5.792
Fri Nov 22 20:57:19 2024,220,-3.186,-3.186,-4.541,-4.541,-6.006,-0.117,17.082,8.410,28.205,52.280,22.833,4.829,35.103,14.164,10.812,8.257,5.600
Fri Nov 22 20:57:19 2024,225,-3.154,-3.154,-4.629,-4.629,-5.596,0.000,17.909,8.436,26.975,52.690,24.403,4.775,37.122,15.320,10.828,8.526,5.737
Fri Nov 22 20:57:19 2024,230,-3.167,-3.167,-4.596,-4.596,-5.266,0.059,18.354,8.492,26.942,53.374,24.856,4.688,38.594,16.447,10.657,8.766,5.767
Fri Nov 22 20:57:19 2024,235,-3.300,-3.300,-4.409,-4.409,-4.660,0.253,18.897,9.203,27.727,55.885,26.957,4.790,40.053,18.162,10.860,8.594,6.010
Fri Nov 22 20:57:19 2024,240,-3.450,-3.450,-4.251,-4.251,-4.126,0.418,19.308,9.814,28.413,58.167,28.945,4.877,41.458,19.902,11.009,8.476,6.224
Fri Nov 22 20:57:19 2024,245,-3.462,-3.462,-4.408,-4.408,-3.793,0.767,18.817,10.167,29.681,60.810,31.325,5.026,43.155,22.015,11.079,8.254,6.607
Fri Nov 22 20:57:19 2024,250,-3.433,-3.433,-4.643,-4.643,-3.524,1.153,18.135,10.448,31.120,63.537,34.072,5.195,44.894,24.386,11.126,7.987,7.078
Fri Nov 22 20:57:19 2024,255,-3.409,-3.409,-4.832,-4.832,-3.308,1.463,17.587,10.681,32.329,65.792,36.536,5.341,46.309,26.493,11.163,7.753,7.492
Fri Nov 22 20:57:19 2024,260,-3.415,-3.415,-4.622,-4.622,-2.686,2.141,17.490,11.640,33.528,69.194,41.905,6.246,49.600,31.150,11.434,7.570,7.668
Fri Nov 22 20:57:19 2024,265,-3.443,-3.443,-4.518,-4.518,-2.224,2.673,17.151,12.363,34.718,72.136,46.749,6.958,52.192,35.348,11.627,7.393,7.897
Fri Nov 22 20:57:19 2024,270,-3.214,-3.214,-4.536,-4.536,-1.700,3.464,16.470,12.842,34.556,75.182,54.592,8.320,55.454,41.154,11.892,7.330,8.134
Fri Nov 22 20:57:19 2024,275,-3.068,-3.068,-4.563,-4.563,-1.310,4.130,15.847,13.204,34.270,77.828,61.536,9.556,58.188,46.420,12.118,7.268,8.348
Fri Nov 22 20:57:19 2024,280,-2.997,-2.997,-4.593,-4.593,1.010,4.821,15.176,13.582,33.981,80.738,68.664,10.914,61.050,52.137,12.354,7.179,8.591
Fri Nov 22 20:57:19 2024,285,-2.966,-2.966,-4.685,-4.685,0.868,5.593,14.339,13.896,34.291,85.520,77.872,12.189,65.356,60.131,13.021,6.768,9.005
Fri Nov 22 20:57:19 2024,290,-3.044,-3.044,-4.740,-4.740,0.800,6.163,13.661,14.164,34.517,88.884,83.626,13.306,68.304,65.697,13.423,6.472,9.317
Fri Nov 22 20:57:19 2024,295,-3.021,3.021,-4.985,-4.985,0.737,6.591,27.083,14.626,35.239,93.516,89.493,14.696,72.122,72.324,13.998,5.998,9.807
Fri Nov 22 20:57:19 2024,300,-3.086,3.086,-5.189,-5.189,0.737,6.983,27.837,15.055,36.246,97.634,93.569,16.062,75.499,77.764,14.488,5.492,10.286
Fri Nov 22 20:57:19 2024,305,-3.167,3.167,-5.332,-5.332,0.767,7.248,28.392,15.366,37.244,100.483,95.726,17.084,77.833,81.173,14.821,5.101,10.644
Fri Nov 22 20:57:19 2024,310,-3.234,3.234,-5.425,-5.425,0.799,7.422,28.770,15.580,38.074,102.374,96.896,17.802,79.381,83.286,15.038,4.825,10.894
Fri Nov 22 20:57:19 2024,315,-3.258,3.258,-5.454,-5.454,0.811,7.477,28.894,15.648,38.378,103.007,97.285,18.043,79.891,84.003,15.108,4.733,10.978
Fri Nov 22 20:57:19 2024,320,-2.804,2.804,-5.065,-5.065,1.160,7.689,29.434,15.774,38.269,104.837,99.652,20.273,82.388,88.228,15.232,4.643,10.947
Fri Nov 22 20:57:19 2024,325,-2.729,2.729,-5.025,-5.025,1.306,7.864,29.858,15.961,39.237,106.633,100.587,21.494,84.158,90.394,15.414,4.424,11.136
Fri Nov 22 20:57:19 2024,330,-2.678,2.678,-4.997,-4.997,1.412,7.986,30.161,16.094,40.078,107.889,101.099,22.389,85.408,91.783,15.542,4.268,11.277
Fri Nov 22 20:57:19 2024,335,-2.871,2.871,-4.882,-4.882,1.705,8.359,31.108,16.630,43.675,110.489,101.322,23.868,88.107,92.923,16.073,3.625,11.933
Fri Nov 22 20:57:19 2024,340,-2.935,2.935,-4.792,-4.792,1.911,8.567,31.580,16.839,46.285,112.367,101.499,25.502,90.062,93.924,16.384,3.272,12.250
Fri Nov 22 20:57:19 2024,345,-2.984,2.984,-4.701,-4.701,2.097,8.732,31.906,16.946,48.863,114.057,101.571,27.281,91.837,94.696,16.654,2.989,12.479
Fri Nov 22 20:57:19 2024,350,-3.030,3.030,-4.617,-4.617,2.271,8.886,32.209,17.044,51.385,115.626,101.567,29.017,93.499,95.286,16.906,2.724,12.701
Fri Nov 22 20:57:19 2024,355,-3.008,3.008,-4.744,-4.744,2.280,9.159,32.524,17.078,54.908,117.726,101.033,31.880,95.617,95.477,16.923,2.640,13.078
Fri Nov 22 20:57:19 2024,360,-2.997,2.997,-4.828,-4.828,2.312,9.388,32.807,17.117,58.158,119.555,100.562,34.442,97.483,95.531,16.972,2.533,13.410
Fri Nov 22 20:57:19 2024,365,-3.201,3.201,-4.704,-4.704,2.577,9.651,33.194,17.269,61.688,121.454,100.027,37.377,99.548,95.431,16.978,2.456,13.740
Fri Nov 22 20:57:19 2024,370,-3.431,3.431,-4.549,-4.549,2.868,9.895,33.564,17.428,65.012,123.172,99.493,40.174,101.445,95.210,16.975,2.389,14.049
Fri Nov 22 20:57:19 2024,375,-3.641,3.641,-4.407,-4.407,3.135,10.118,33.902,17.570,68.128,124.735,98.964,42.809,103.176,94.909,16.972,2.323,14.343
Fri Nov 22 20:57:19 2024,380,-3.594,3.594,-4.392,-4.392,3.269,10.180,34.125,17.759,70.471,125.914,98.462,44.487,104.220,94.886,17.058,37.874,14.851
Fri Nov 22 20:57:19 2024,385,-3.603,3.603,-4.353,-4.353,3.415,10.264,34.344,17.914,72.713,127.027,97.996,46.193,105.279,94.764,17.116,38.026,15.263
Fri Nov 22 20:57:19 2024,390,-3.611,3.611,-4.318,-4.318,3.550,10.342,34.548,18.058,74.797,128.061,97.553,47.796,106.265,94.624,17.169,38.172,15.648
Fri Nov 22 20:57:19 2024,395,-3.614,3.614,-4.303,-4.303,3.605,10.374,34.633,18.119,75.667,128.503,97.364,48.471,106.686,94.563,17.192,38.234,15.810
Fri Nov 22 20:57:19 2024,400,-3.615,3.615,-4.298,-4.298,3.622,10.384,34.658,18.138,75.931,128.653,97.305,48.677,106.826,94.553,17.200,38.254,15.859
Fri Nov 22 20:57:19 2024,405,-3.840,3.840,-4.166,-4.166,3.708,10.516,34.980,18.281,75.674,128.480,97.568,47.514,106.255,95.159,17.262,38.407,15.559
Fri Nov 22 20:57:19 2024,410,-3.897,3.897,-4.122,-4.122,3.774,10.573,35.125,18.363,76.305,128.791,97.479,47.775,106.454,95.257,17.296,38.496,15.616
Fri Nov 22 20:57:19 2024,415,-4.021,4.021,-4.143,-4.143,3.730,10.564,35.171,18.361,77.398,129.320,97.306,48.209,106.723,95.274,17.291,38.573,15.717
Fri Nov 22 20:57:19 2024,420,-4.100,4.100,-4.154,-4.154,3.705,10.561,35.205,18.364,78.094,129.661,97.194,48.488,106.898,95.288,17.289,38.626,15.782
Fri Nov 22 20:57:19 2024,425,-4.183,4.183,-4.166,-4.166,3.679,10.558,35.240,18.367,78.813,130.018,97.076,48.781,107.083,95.303,17.288,38.682,15.850
Fri Nov 22 20:57:19 2024,430,-4.418,4.418,-4.049,-4.049,3.829,10.626,35.198,18.399,77.279,129.288,97.478,48.096,106.708,95.524,17.369,38.676,15.671
Fri Nov 22 20:57:19 2024,435,-4.543,4.543,-4.001,-4.001,3.887,10.654,35.190,18.414,76.818,129.076,97.618,47.883,106.600,95.624,17.404,38.689,15.612
Fri Nov 22 20:57:19 2024,440,-4.349,4.349,-4.152,-4.152,3.716,10.675,35.278,18.459,77.161,129.261,97.545,48.137,106.665,95.552,17.504,38.778,15.591
Fri Nov 22 20:57:19 2024,445,-4.223,4.223,-4.266,-4.266,3.590,10.701,35.350,18.501,77.319,129.358,97.524,48.291,106.690,95.519,17.598,38.857,15.557
Fri Nov 22 20:57:19 2024,450,-4.144,4.144,-4.337,-4.337,3.510,10.717,35.395,18.528,77.418,129.423,97.511,48.389,106.707,95.500,17.658,38.907,15.535
Fri Nov 22 20:57:19 2024,455,-4.197,4.197,-4.289,-4.289,3.597,10.729,35.185,18.424,75.723,128.614,97.730,47.523,106.272,95.632,17.450,38.577,15.376
Fri Nov 22 20:57:19 2024,460,-4.187,4.187,-4.301,-4.301,3.599,10.741,35.116,18.392,75.045,128.300,97.815,47.199,106.095,95.680,17.388,38.460,15.300
Fri Nov 22 20:57:19 2024,465,-4.111,4.111,-4.399,-4.399,3.513,10.742,35.098,18.432,73.778,127.723,98.005,46.687,105.800,95.425,17.217,38.334,15.297
Fri Nov 22 20:57:19 2024,470,-4.054,4.054,-4.476,-4.476,3.447,10.745,35.074,18.459,72.692,127.227,98.163,46.243,105.545,95.232,17.074,38.218,15.284
Fri Nov 22 20:57:19 2024,475,-3.935,3.935,-4.552,-4.552,3.362,10.852,35.134,18.518,71.247,126.533,98.437,45.293,104.949,95.415,17.006,38.089,15.069
Fri Nov 22 20:57:19 2024,480,-3.812,3.812,-4.637,-4.637,3.272,10.958,35.189,18.580,69.684,125.785,98.720,44.309,104.329,95.562,16.920,37.948,14.858
Fri Nov 22 20:57:19 2024,485,-3.726,3.726,-4.743,-4.743,3.096,10.918,35.072,18.589,66.440,124.226,99.183,42.120,102.971,95.696,16.821,37.829,14.486
Fri Nov 22 20:57:19 2024,490,-3.654,3.654,-4.850,-4.850,2.910,10.851,34.922,18.589,63.012,122.557,99.635,39.812,101.512,95.759,16.722,37.718,14.100
Fri Nov 22 20:57:19 2024,495,-3.592,3.592,-4.950,-4.950,2.736,10.788,34.782,18.588,59.872,120.994,100.025,37.712,100.152,95.748,16.629,37.616,13.745
Fri Nov 22 20:57:19 2024,500,-3.450,3.450,-4.775,-4.775,2.657,10.758,34.980,19.075,53.572,117.654,100.545,32.970,97.147,95.293,16.666,37.632,13.220
Fri Nov 22 20:57:19 2024,505,-3.355,3.355,-4.693,-4.693,2.576,10.727,35.069,19.365,49.615,115.417,100.794,29.992,95.144,94.720,16.670,37.623,12.868
Fri Nov 22 20:57:19 2024,510,-3.211,3.211,-4.713,-4.713,2.261,10.552,34.945,19.547,45.216,112.703,100.516,26.966,92.424,93.519,16.368,37.280,12.450
Fri Nov 22 20:57:19 2024,515,-3.083,3.083,-4.742,-4.742,1.966,10.384,34.813,19.692,41.706,110.332,100.050,24.556,90.042,92.157,16.077,36.951,12.111
Fri Nov 22 20:57:19 2024,520,-2.951,2.951,-4.772,-4.772,1.666,10.211,34.677,19.842,38.428,107.909,99.390,22.268,87.629,90.473,15.780,36.616,11.790
Fri Nov 22 20:57:19 2024,525,-2.418,2.418,-4.666,-4.666,1.310,9.916,34.272,19.696,35.186,104.058,97.442,19.838,83.333,86.756,15.158,35.940,11.162
Fri Nov 22 20:57:19 2024,530,-2.074,2.074,-4.613,-4.613,1.034,9.695,33.997,19.653,33.145,101.160,95.533,18.086,80.224,83.441,14.712,35.453,10.757
Fri Nov 22 20:57:19 2024,535,-1.575,1.575,-4.109,-4.109,0.803,9.245,33.102,19.228,30.649,95.218,90.135,16.253,75.498,75.723,14.118,15.413,10.802
Fri Nov 22 20:57:19 2024,540,-1.115,1.115,-3.493,-3.493,0.664,8.752,32.068,18.728,29.062,88.779,82.699,14.744,70.639,66.683,13.522,6.032,11.062
Fri Nov 22 20:57:19 2024,545,-0.785,0.387,-3.117,-3.117,0.610,8.297,31.107,18.239,27.968,83.695,75.115,13.598,66.702,59.217,13.073,6.633,11.107
Fri Nov 22 20:57:19 2024,550,-0.442,-0.442,-3.037,-3.037,-0.691,7.786,29.936,17.498,25.818,79.585,67.831,12.611,63.709,53.475,12.860,7.043,10.729
Fri Nov 22 20:57:19 2024,555,-0.350,-0.350,-2.886,-2.886,-0.943,7.370,29.041,16.980,24.664,75.976,61.886,11.852,60.960,48.650,12.611,7.368,10.566
Fri Nov 22 20:57:19 2024,560,-0.278,0.278,-2.763,-2.763,-1.393,7.197,28.934,17.776,21.103,69.388,55.143,11.962,58.097,44.595,12.624,7.369,11.518
Fri Nov 22 20:57:19 2024,565,0.677,0.677,-2.649,-2.649,-1.807,6.985,28.679,18.266,18.793,64.255,49.720,11.934,55.446,41.248,12.581,7.418,12.225
Fri Nov 22 20:57:19 2024,570,0.931,0.931,-2.587,-2.587,-2.349,6.887,28.549,18.058,17.162,59.624,44.762,11.648,52.374,38.216,12.584,7.393,12.686
Fri Nov 22 20:57:19 2024,575,0.973,0.973,-2.593,-2.593,-3.325,6.969,28.610,16.428,15.790,53.818,37.971,10.749,47.348,34.076,12.675,7.191,12.798
Fri Nov 22 20:57:19 2024,580,1.076,1.076,-2.575,-2.575,-3.900,6.974,28.593,15.711,14.898,50.293,34.734,10.338,44.375,31.852,12.712,7.036,12.994
Fri Nov 22 20:57:19 2024,585,1.108,1.108,-2.116,-2.116,-4.589,6.469,28.325,13.204,13.910,47.170,28.323,10.957,44.201,28.970,12.341,7.253,11.490
Fri Nov 22 20:57:19 2024,590,1.169,1.169,-1.863,-1.863,-5.104,6.199,28.189,11.702,13.207,44.739,24.655,11.190,43.387,26.920,12.149,7.295,10.738
Fri Nov 22 20:57:19 2024,595,1.248,1.248,-1.774,-1.774,-5.526,5.920,28.091,10.540,12.522,42.653,21.864,11.390,43.075,25.647,12.106,7.269,10.142
Fri Nov 22 20:57:19 2024,600,1.380,1.380,-1.993,-1.993,-5.833,5.578,28.041,9.824,11.724,40.784,19.713,11.556,43.666,25.628,12.346,7.146,9.744
Fri Nov 22 20:57:19 2024,605,-0.090,1.555,-2.013,-2.013,-6.019,5.393,27.956,9.249,11.287,39.398,18.161,11.836,43.757,25.408,12.484,7.015,9.446
Fri Nov 22 20:57:19 2024,610,-1.819,1.819,-1.993,-1.993,-6.030,5.316,27.823,8.982,11.086,38.395,17.216,12.268,43.844,25.676,12.700,6.799,9.327
Fri Nov 22 20:57:19 2024,615,-2.063,2.063,-1.985,-1.985,-6.074,5.230,27.723,8.701,10.865,37.505,16.343,12.598,43.921,25.795,12.864,6.636,9.191
Fri Nov 22 20:57:19 2024,620,-2.289,2.289,-2.017,-2.017,-6.023,4.923,27.513,8.491,10.673,37.366,15.914,13.317,45.307,26.775,12.829,6.799,9.324
Fri Nov 22 20:57:19 2024,625,-2.485,2.485,-2.036,-2.036,-6.000,4.714,27.364,8.305,10.511,37.111,15.483,13.849,46.214,27.449,12.836,6.862,9.386
Fri Nov 22 20:57:19 2024,630,-2.687,2.687,-2.064,-2.064,-6.019,4.483,27.197,8.081,10.269,36.849,15.127,14.333,46.971,27.851,12.814,6.920,9.381
Fri Nov 22 20:57:19 2024,635,-2.943,2.943,-2.102,-2.102,-6.061,4.183,26.982,7.784,9.933,36.520,14.710,14.926,47.862,28.251,12.775,6.992,9.346
Fri Nov 22 20:57:19 2024,640,-3.130,3.130,-2.130,-2.130,-6.086,3.967,26.831,7.573,9.698,36.280,14.397,15.379,48.548,28.598,12.749,7.043,9.329
Fri Nov 22 20:57:19 2024,645,-3.228,3.228,-1.799,-1.799,-5.914,3.804,26.516,7.344,9.512,35.979,13.894,16.213,49.781,29.086,12.733,7.019,9.508
Fri Nov 22 20:57:19 2024,650,-3.321,3.321,1.638,-1.638,-5.830,3.673,26.322,7.179,9.366,35.772,13.568,16.754,50.576,29.433,12.719,7.017,9.594
Fri Nov 22 20:57:19 2024,655,-3.370,3.370,1.481,-1.481,-5.691,3.429,26.138,7.094,9.119,35.453,13.273,17.079,51.201,29.639,12.666,7.103,9.687
Fri Nov 22 20:57:19 2024,660,-3.386,3.386,1.356,-1.356,-5.550,3.174,25.998,7.066,8.869,35.136,13.054,17.228,51.614,29.730,12.602,7.218,9.763
Fri Nov 22 20:57:19 2024,665,-3.415,3.415,1.236,-1.236,-5.426,2.960,25.864,7.014,8.656,34.863,12.831,17.437,52.068,29.866,12.551,7.300,9.837
Fri Nov 22 20:57:19 2024,670,-3.403,3.403,1.251,-1.251,-5.329,2.638,25.550,7.038,8.445,34.320,12.663,17.445,51.417,30.236,12.210,7.722,10.408
Fri Nov 22 20:57:19 2024,675,-3.408,3.408,1.215,-1.215,-5.229,2.378,25.331,7.033,8.248,33.912,12.482,17.533,51.212,30.483,11.999,7.970,10.758
Fri Nov 22 20:57:19 2024,680,-3.412,3.412,1.191,-1.191,-5.165,2.211,25.193,7.029,8.122,33.650,12.365,17.591,51.078,30.637,11.864,8.122,10.983
Fri Nov 22 20:57:19 2024,685,-3.324,3.324,1.163,-1.163,-5.117,1.706,24.591,6.902,7.791,33.474,12.076,18.355,48.852,28.611,11.064,8.935,10.803
Fri Nov 22 20:57:19 2024,690,-3.371,3.371,0.397,-1.127,-4.903,1.470,24.268,7.052,7.816,33.328,11.986,19.487,47.210,25.947,10.146,9.825,10.902
Fri Nov 22 20:57:19 2024,695,-3.597,3.597,-1.077,-1.077,-4.335,1.384,23.930,7.664,8.363,33.364,12.114,22.298,15.467,19.146,8.069,11.786,11.087
Fri Nov 22 20:57:19 2024,700,-3.732,3.732,-1.056,-1.056,-3.967,1.247,23.635,8.036,8.648,33.338,12.150,24.043,-4.600,14.040,6.668,26.996,11.211
Fri Nov 22 20:57:19 2024,705,-3.988,3.988,-1.115,-1.115,-3.763,0.968,23.914,8.117,8.651,34.336,12.583,22.269,-2.663,13.237,6.530,27.326,10.883
Fri Nov 22 20:57:19 2024,710,-4.200,4.200,-1.165,-1.165,-3.535,0.745,24.028,8.283,8.733,34.987,12.874,21.628,-1.713,11.415,6.021,27.399,10.703
Fri Nov 22 20:57:19 2024,715,-4.281,4.281,-1.141,-1.141,-3.433,0.760,23.714,8.592,9.122,34.904,12.854,21.576,-1.558,9.982,5.473,26.652,10.589
Fri Nov 22 20:57:19 2024,720,-4.362,4.362,-1.137,-1.137,-3.341,0.762,23.461,8.852,9.444,34.866,12.843,21.492,-1.521,8.820,5.004,26.044,10.494
Fri Nov 22 20:57:19 2024,725,-4.441,4.441,-1.144,-1.144,-3.257,0.761,23.230,9.092,9.738,34.839,12.832,21.396,-1.581,7.821,4.572,25.489,10.410
Fri Nov 22 20:57:19 2024,730,-4.480,4.480,-1.149,-1.149,-3.216,0.760,23.121,9.207,9.878,34.828,12.827,21.347,-1.634,7.366,4.366,25.225,10.371
