Timestamp,Millis,thumb_tm_aa,thumb_tm_flex,thumb_mcp_aa,thumb_mcp_flex,thumb_ip,index_mcp_aa,index_mcp_flex,index_pip,middle_mcp_aa,middle_mcp_flex,middle_pip,ring_mcp_aa,ring_mcp_flex,ring_pip,little_mcp_aa,little_mcp_flex,little_pip
Fri Nov 22 21:06:16 2024,395,-15.357,-15.357,-3.249,-3.249,-5.618,-1.812,14.604,5.936,3.084,12.829,8.479,-5.599,6.147,6.126,14.924,2.901,6.386
Fri Nov 22 21:06:16 2024,400,-15.343,-15.343,-3.280,-3.280,-5.624,-1.742,14.666,5.929,3.142,12.895,8.516,-5.558,6.268,6.171,14.921,2.917,6.384
Fri Nov 22 21:06:16 2024,405,-15.316,-15.316,-3.349,-3.349,-5.707,-1.801,14.751,5.887,3.064,13.074,8.488,-5.576,6.388,6.141,14.884,3.066,6.411
Fri Nov 22 21:06:16 2024,410,-15.294,-15.294,-3.408,-3.408,-5.776,-1.849,14.822,5.851,3.000,13.225,8.465,-5.590,6.488,6.116,14.853,3.189,6.434
Fri Nov 22 21:06:16 2024,415,-15.274,-15.274,-3.460,-3.460,-5.837,-1.892,14.883,5.819,2.943,13.359,8.444,-5.602,6.578,6.093,14.825,3.297,6.455
Fri Nov 22 21:06:16 2024,420,-15.318,-15.318,-3.338,-3.338,-5.702,-1.922,14.683,5.862,2.915,13.213,8.482,-5.678,6.466,6.142,14.768,3.255,6.503
Fri Nov 22 21:06:16 2024,425,-15.338,-15.338,-3.282,-3.282,-5.641,-1.957,14.581,5.876,2.876,13.173,8.498,-5.730,6.432,6.163,14.721,3.272,6.541
Fri Nov 22 21:06:16 2024,430,-15.310,-15.310,-3.275,-3.275,-5.592,-1.904,14.615,5.831,2.934,13.143,8.451,-5.689,6.383,6.127,14.735,3.328,6.568
Fri Nov 22 21:06:16 2024,435,-15.292,-15.292,-3.257,-3.257,-5.540,-1.870,14.620,5.798,2.971,13.111,8.418,-5.666,6.336,6.104,14.736,3.375,6.597
Fri Nov 22 21:06:16 2024,440,-15.296,-15.296,-3.204,-3.204,-5.536,-1.876,14.545,5.812,2.976,13.087,8.410,-5.669,6.315,6.091,14.750,3.303,6.549
Fri Nov 22 21:06:16 2024,445,-15.325,-15.325,-3.099,-3.099,-5.586,-1.933,14.361,5.885,2.944,13.065,8.430,-5.700,6.315,6.089,14.782,3.074,6.401
Fri Nov 22 21:06:16 2024,450,-15.328,-15.328,-3.102,-3.102,-5.610,-1.965,14.366,5.866,2.902,13.034,8.384,-5.717,6.323,6.078,14.782,3.083,6.393
Fri Nov 22 21:06:16 2024,455,-15.326,-15.326,-3.151,-3.151,-5.640,-2.002,14.445,5.809,2.835,12.991,8.299,-5.738,6.343,6.061,14.771,3.182,6.434
Fri Nov 22 21:06:16 2024,460,-15.324,-15.324,-3.184,-3.184,-5.660,-2.029,14.499,5.770,2.788,12.960,8.239,-5.752,6.358,6.049,14.764,3.250,6.462
Fri Nov 22 21:06:16 2024,465,-15.294,-15.294,-3.148,-3.148,-5.628,-1.967,14.440,5.738,2.823,13.028,8.255,-5.727,6.371,6.012,14.720,3.203,6.377
Fri Nov 22 21:06:16 2024,470,-15.272,-15.272,-3.127,-3.127,-5.608,-1.927,14.404,5.709,2.842,13.072,8.257,-5.710,6.382,5.983,14.688,3.179,6.320
Fri Nov 22 21:06:16 2024,475,-15.316,-15.316,-3.095,-3.095,-5.588,-1.940,14.492,5.790,2.850,13.122,8.312,-5.700,6.406,6.040,14.694,3.198,6.392
Fri Nov 22 21:06:16 2024,480,-15.365,-15.365,-3.064,-3.064,-5.568,-1.958,14.586,5.879,2.856,13.169,8.370,-5.692,6.430,6.104,14.704,3.220,6.475
Fri Nov 22 21:06:16 2024,485,-15.409,-15.409,-3.034,-3.034,-5.550,-1.974,14.672,5.960,2.862,13.212,8.423,-5.685,6.452,6.163,14.714,3.241,6.550
Fri Nov 22 21:06:16 2024,490,-15.403,-15.403,-3.029,-3.029,-5.501,-1.930,14.587,5.916,2.884,13.126,8.422,-5.710,6.353,6.107,14.668,3.197,6.428
Fri Nov 22 21:06:16 2024,495,-15.394,-15.394,-3.022,-3.022,-5.442,-1.876,14.480,5.860,2.911,13.020,8.418,-5.741,6.233,6.040,14.612,3.142,6.279
Fri Nov 22 21:06:16 2024,500,-15.384,-15.384,-3.136,-3.136,-5.632,-1.964,14.542,5.941,2.848,13.107,8.405,-5.732,6.365,6.073,14.771,3.117,6.421
Fri Nov 22 21:06:16 2024,505,-15.376,-15.376,-3.213,-3.213,-5.756,-2.021,14.576,5.994,2.806,13.159,8.397,-5.728,6.447,6.092,14.876,3.092,6.508
Fri Nov 22 21:06:16 2024,510,-15.366,-15.366,-3.242,-3.242,-5.792,-2.046,14.593,6.006,2.787,13.214,8.436,-5.734,6.469,6.130,14.887,3.110,6.568
Fri Nov 22 21:06:16 2024,515,-15.344,-15.344,-3.181,-3.181,-5.656,-2.015,14.582,5.933,2.807,13.292,8.587,-5.759,6.380,6.219,14.710,3.220,6.594
Fri Nov 22 21:06:16 2024,520,-15.332,-15.332,-3.164,-3.164,-5.611,-2.010,14.583,5.907,2.810,13.340,8.660,-5.771,6.350,6.266,14.641,3.269,6.622
Fri Nov 22 21:06:16 2024,525,-15.341,-15.341,-3.213,-3.213,-5.589,-1.862,14.587,5.964,2.842,13.045,8.466,-5.744,6.172,6.096,14.726,3.169,6.556
Fri Nov 22 21:06:16 2024,530,-15.343,-15.343,-3.237,-3.237,-5.564,-1.775,14.587,5.990,2.861,12.887,8.375,-5.732,6.062,6.012,14.754,3.125,6.525
Fri Nov 22 21:06:16 2024,535,-15.344,-15.344,-3.230,-3.230,-5.648,-1.828,14.715,6.047,2.868,13.026,8.493,-5.686,6.214,6.110,14.812,3.121,6.579
Fri Nov 22 21:06:16 2024,540,-15.346,-15.346,-3.226,-3.226,-5.710,-1.858,14.812,6.094,2.876,13.114,8.574,-5.649,6.320,6.175,14.860,3.112,6.617
Fri Nov 22 21:06:16 2024,545,-15.337,-15.337,-3.244,-3.244,-5.733,-1.860,14.836,6.108,2.884,13.144,8.596,-5.659,6.318,6.176,14.844,3.112,6.578
Fri Nov 22 21:06:16 2024,550,-15.314,-15.314,-3.289,-3.289,-5.715,-1.826,14.775,6.087,2.892,13.107,8.549,-5.730,6.189,6.097,14.750,3.121,6.439
Fri Nov 22 21:06:16 2024,555,-15.301,-15.301,-3.316,-3.316,-5.713,-1.809,14.752,6.080,2.898,13.098,8.531,-5.768,6.125,6.059,14.700,3.124,6.361
Fri Nov 22 21:06:16 2024,560,-15.338,-15.338,-3.214,-3.214,-5.631,-1.810,14.836,6.042,2.899,13.120,8.569,-5.720,6.190,6.133,14.737,3.178,6.554
Fri Nov 22 21:06:16 2024,565,-15.360,-15.360,-3.155,-3.155,-5.574,-1.806,14.886,6.014,2.901,13.132,8.588,-5.701,6.211,6.170,14.744,3.214,6.660
Fri Nov 22 21:06:16 2024,570,-15.367,-15.367,-3.180,-3.180,-5.574,-1.822,14.833,6.125,2.938,13.190,8.687,-5.625,6.318,6.267,14.835,3.101,6.634
Fri Nov 22 21:06:16 2024,575,-15.376,-15.376,-3.194,-3.194,-5.568,-1.834,14.798,6.206,2.965,13.234,8.762,-5.566,6.400,6.342,14.902,3.020,6.626
Fri Nov 22 21:06:16 2024,580,-15.382,-15.382,-3.205,-3.205,-5.563,-1.843,14.772,6.268,2.986,13.267,8.820,-5.520,6.464,6.402,14.955,2.958,6.620
Fri Nov 22 21:06:16 2024,585,-15.385,-15.385,-3.211,-3.211,-5.561,-1.848,14.757,6.300,2.996,13.285,8.850,-5.497,6.498,6.432,14.982,2.925,6.618
Fri Nov 22 21:06:16 2024,590,-15.381,-15.381,-3.219,-3.219,-5.585,-1.828,14.802,6.237,3.005,13.288,8.817,-5.516,6.471,6.389,14.959,2.965,6.622
Fri Nov 22 21:06:16 2024,595,-15.370,-15.370,-3.238,-3.238,-5.648,-1.778,14.921,6.068,3.020,13.289,8.723,-5.573,6.393,6.268,14.890,3.080,6.634
Fri Nov 22 21:06:16 2024,600,-15.369,-15.369,-3.248,-3.248,-5.666,-1.765,14.950,6.034,3.032,13.300,8.712,-5.576,6.389,6.248,14.886,3.096,6.636
Fri Nov 22 21:06:16 2024,605,-15.396,-15.396,-3.223,-3.223,-5.661,-1.765,15.072,6.046,3.064,13.376,8.734,-5.571,6.407,6.246,14.901,3.110,6.621
Fri Nov 22 21:06:16 2024,610,-15.419,-15.419,-3.200,-3.200,-5.657,-1.765,15.178,6.057,3.094,13.444,8.752,-5.567,6.423,6.245,14.914,3.121,6.607
Fri Nov 22 21:06:16 2024,615,-15.410,-15.410,-3.224,-3.224,-5.674,-1.757,15.204,6.072,3.106,13.445,8.774,-5.574,6.412,6.244,14.916,3.110,6.598
Fri Nov 22 21:06:16 2024,620,-15.362,-15.362,-3.302,-3.302,-5.719,-1.739,15.154,6.095,3.108,13.380,8.806,-5.594,6.368,6.242,14.908,3.072,6.591
Fri Nov 22 21:06:16 2024,625,-15.334,-15.334,-3.349,-3.349,-5.747,-1.726,15.136,6.111,3.112,13.346,8.829,-5.606,6.341,6.241,14.905,3.050,6.585
Fri Nov 22 21:06:16 2024,630,-15.376,-15.376,-3.218,-3.218,-5.663,-1.714,15.096,6.063,3.104,13.196,8.664,-5.551,6.434,6.196,14.851,2.989,6.414
Fri Nov 22 21:06:16 2024,635,-15.394,-15.394,-3.151,-3.151,-5.620,-1.703,15.066,6.038,3.100,13.096,8.569,-5.521,6.483,6.170,14.817,2.945,6.309
Fri Nov 22 21:06:16 2024,640,-15.342,-15.342,-3.195,-3.195,-5.604,-1.736,14.958,6.023,3.093,13.125,8.672,-5.546,6.322,6.236,14.809,3.067,6.510
Fri Nov 22 21:06:16 2024,645,-15.294,-15.294,-3.229,-3.229,-5.585,-1.767,14.850,6.006,3.085,13.141,8.761,-5.566,6.173,6.296,14.796,3.179,6.693
Fri Nov 22 21:06:16 2024,650,-15.261,-15.261,-3.253,-3.253,-5.571,-1.788,14.775,5.995,3.079,13.153,8.823,-5.580,6.070,6.338,14.787,3.255,6.821
Fri Nov 22 21:06:16 2024,655,-15.384,-15.384,-3.181,-3.181,-5.581,-1.799,14.985,6.058,3.070,13.207,8.695,-5.575,6.347,6.292,14.906,3.073,6.697
Fri Nov 22 21:06:16 2024,660,-15.430,-15.430,-3.156,-3.156,-5.581,-1.811,15.053,6.082,3.063,13.236,8.659,-5.578,6.436,6.287,14.957,3.018,6.687
Fri Nov 22 21:06:16 2024,665,-15.389,-15.389,-3.299,-3.299,-5.657,-1.872,14.918,6.104,3.055,13.314,8.773,-5.547,6.487,6.384,14.972,3.108,6.849
Fri Nov 22 21:06:16 2024,670,-15.377,-15.377,-3.378,-3.378,-5.703,-1.911,14.853,6.123,3.048,13.368,8.833,-5.528,6.540,6.442,14.994,3.148,6.944
Fri Nov 22 21:06:16 2024,675,-15.327,-15.327,-3.344,-3.344,-5.750,-1.817,15.005,6.125,3.064,13.303,8.790,-5.532,6.462,6.358,14.952,3.045,6.675
Fri Nov 22 21:06:16 2024,680,-15.293,-15.293,-3.328,-3.328,-5.785,-1.758,15.100,6.128,3.074,13.265,8.767,-5.532,6.414,6.307,14.926,2.978,6.506
Fri Nov 22 21:06:16 2024,685,-15.259,-15.259,-3.312,-3.312,-5.820,-1.700,15.194,6.131,3.084,13.227,8.743,-5.533,6.367,6.256,14.900,2.911,6.340
Fri Nov 22 21:06:16 2024,690,-15.311,-15.311,-3.349,-3.349,-5.767,-1.811,14.901,6.079,3.074,13.208,8.694,-5.625,6.242,6.216,14.913,2.984,6.504
Fri Nov 22 21:06:16 2024,695,-15.324,-15.324,-3.362,-3.362,-5.753,-1.845,14.793,6.057,3.073,13.188,8.665,-5.667,6.171,6.183,14.910,2.998,6.532
Fri Nov 22 21:06:16 2024,700,-15.384,-15.384,-3.290,-3.290,-5.684,-1.917,14.848,6.202,3.001,13.111,8.726,-5.702,6.158,6.275,14.843,3.013,6.605
Fri Nov 22 21:06:16 2024,705,-15.424,-15.424,-3.249,-3.249,-5.638,-1.969,14.856,6.286,2.956,13.058,8.758,-5.734,6.133,6.322,14.802,3.026,6.657
Fri Nov 22 21:06:16 2024,710,-15.435,-15.435,-3.224,-3.224,-5.626,-1.923,14.914,6.192,3.016,13.215,8.738,-5.731,6.091,6.216,14.787,3.122,6.660
Fri Nov 22 21:06:16 2024,715,-15.446,-15.446,-3.201,-3.201,-5.613,-1.890,14.961,6.121,3.060,13.336,8.726,-5.732,6.055,6.136,14.772,3.200,6.666
Fri Nov 22 21:06:16 2024,720,-15.458,-15.458,-3.180,-3.180,-5.601,-1.858,15.005,6.055,3.103,13.449,8.713,-5.732,6.021,6.058,14.758,3.273,6.673
Fri Nov 22 21:06:16 2024,725,-15.395,-15.395,-3.169,-3.169,-5.599,-1.888,14.868,6.181,3.087,13.218,8.732,-5.760,5.987,6.143,14.724,3.073,6.490
Fri Nov 22 21:06:16 2024,730,-15.379,-15.379,-3.156,-3.156,-5.594,-1.902,14.795,6.230,3.079,13.137,8.752,-5.773,5.951,6.173,14.732,2.982,6.440
Fri Nov 22 21:06:16 2024,735,-15.414,-15.414,-3.148,-3.148,-5.589,-1.947,14.688,6.278,3.024,13.092,8.821,-5.777,5.899,6.232,14.847,2.898,6.558
Fri Nov 22 21:06:16 2024,740,-15.436,-15.436,-3.139,-3.139,-5.584,-1.981,14.599,6.320,2.982,13.048,8.874,-5.780,5.857,6.279,14.934,2.824,6.640
Fri Nov 22 21:06:16 2024,745,-15.394,-15.394,-3.123,-3.123,-5.536,-1.911,14.703,6.192,3.013,13.040,8.687,-5.780,5.922,6.150,14.816,2.989,6.561
Fri Nov 22 21:06:16 2024,750,-15.356,-15.356,-3.108,-3.108,-5.491,-1.848,14.792,6.077,3.041,13.031,8.520,-5.781,5.980,6.035,14.712,3.136,6.494
Fri Nov 22 21:06:16 2024,755,-15.343,-15.343,-3.118,-3.118,-5.494,-1.832,14.826,6.034,3.034,13.038,8.460,-5.788,5.991,5.994,14.669,3.175,6.458
Fri Nov 22 21:06:16 2024,760,-15.358,-15.358,-3.166,-3.166,-5.566,-1.877,14.789,6.079,2.976,13.073,8.536,-5.809,5.938,6.048,14.700,3.072,6.457
Fri Nov 22 21:06:16 2024,765,-15.365,-15.365,-3.198,-3.198,-5.610,-1.902,14.773,6.098,2.939,13.096,8.570,-5.824,5.908,6.073,14.710,3.016,6.448
Fri Nov 22 21:06:16 2024,770,-15.387,-15.387,-3.153,-3.153,-5.541,-1.852,14.849,6.159,3.038,13.040,8.641,-5.723,6.009,6.150,14.792,2.998,6.550
Fri Nov 22 21:06:16 2024,775,-15.400,-15.400,-3.132,-3.132,-5.509,-1.827,14.890,6.196,3.090,13.012,8.687,-5.668,6.062,6.198,14.840,2.978,6.607
Fri Nov 22 21:06:16 2024,780,-15.390,-15.390,-3.206,-3.206,-5.554,-1.837,14.749,6.113,3.068,12.970,8.639,-5.712,5.937,6.129,14.778,2.972,6.484
Fri Nov 22 21:06:16 2024,785,-15.380,-15.380,-3.276,-3.276,-5.597,-1.846,14.614,6.034,3.047,12.931,8.593,-5.755,5.818,6.064,14.719,2.966,6.368
Fri Nov 22 21:06:16 2024,790,-15.417,-15.417,-3.235,-3.235,-5.565,-1.863,14.633,6.027,3.012,12.941,8.565,-5.787,5.785,6.049,14.724,2.993,6.429
Fri Nov 22 21:06:16 2024,795,-15.469,-15.469,-3.148,-3.148,-5.502,-1.880,14.722,6.055,2.976,12.972,8.551,-5.810,5.797,6.062,14.760,3.032,6.566
Fri Nov 22 21:06:16 2024,800,-15.512,-15.512,-3.075,-3.075,-5.450,-1.894,14.795,6.078,2.948,12.998,8.540,-5.828,5.807,6.072,14.788,3.064,6.680
Fri Nov 22 21:06:16 2024,805,-15.468,-15.468,-3.130,-3.130,-5.521,-1.907,14.696,6.066,2.975,12.997,8.586,-5.777,5.942,6.156,14.778,2.982,6.532
Fri Nov 22 21:06:16 2024,810,-15.444,-15.444,-3.157,-3.157,-5.564,-1.920,14.638,6.062,2.990,13.002,8.618,-5.742,6.045,6.223,14.775,2.926,6.446
Fri Nov 22 21:06:16 2024,815,-15.412,-15.412,-3.178,-3.178,-5.563,-1.898,14.686,6.108,2.994,12.968,8.633,-5.762,5.948,6.194,14.793,2.928,6.500
Fri Nov 22 21:06:16 2024,820,-15.385,-15.385,-3.195,-3.195,-5.562,-1.877,14.731,6.150,2.996,12.937,8.645,-5.782,5.859,6.166,14.809,2.931,6.552
Fri Nov 22 21:06:16 2024,825,-15.394,-15.394,-3.219,-3.219,-5.575,-1.882,14.752,6.128,3.014,13.002,8.603,-5.786,5.882,6.099,14.756,2.971,6.490
Fri Nov 22 21:06:16 2024,830,-15.415,-15.415,-3.242,-3.242,-5.592,-1.896,14.762,6.086,3.036,13.093,8.546,-5.782,5.944,6.025,14.685,3.020,6.395
Fri Nov 22 21:06:16 2024,835,-15.436,-15.436,-3.264,-3.264,-5.609,-1.910,14.771,6.045,3.056,13.179,8.492,-5.779,6.002,5.955,14.616,3.066,6.304
Fri Nov 22 21:06:16 2024,840,-15.420,-15.420,-3.195,-3.195,-5.590,-1.888,14.850,6.074,3.043,13.152,8.594,-5.715,6.050,6.095,14.760,3.019,6.452
Fri Nov 22 21:06:16 2024,845,-15.413,-15.413,-3.145,-3.145,-5.578,-1.874,14.914,6.088,3.037,13.149,8.663,-5.664,6.100,6.191,14.858,2.990,6.550
Fri Nov 22 21:06:16 2024,850,-15.390,-15.390,-3.189,-3.189,-5.595,-1.878,14.963,6.116,3.009,13.183,8.703,-5.670,6.173,6.233,14.860,2.999,6.550
Fri Nov 22 21:06:16 2024,855,-15.370,-15.370,-3.228,-3.228,-5.610,-1.882,15.005,6.139,2.986,13.213,8.737,-5.676,6.234,6.267,14.860,3.008,6.548
Fri Nov 22 21:06:16 2024,860,-15.346,-15.346,-3.224,-3.224,-5.644,-1.878,15.063,6.164,3.017,13.262,8.737,-5.632,6.349,6.287,14.921,2.966,6.547
Fri Nov 22 21:06:16 2024,865,-15.324,-15.324,-3.205,-3.205,-5.679,-1.872,15.116,6.185,3.061,13.309,8.726,-5.577,6.463,6.299,14.993,2.912,6.547
Fri Nov 22 21:06:16 2024,870,-15.311,-15.311,-3.189,-3.189,-5.670,-1.880,15.096,6.163,3.064,13.326,8.729,-5.554,6.524,6.322,15.012,2.947,6.609
Fri Nov 22 21:06:16 2024,875,-15.312,-15.312,-3.182,-3.182,-5.616,-1.901,14.999,6.100,3.022,13.305,8.745,-5.573,6.508,6.349,14.966,3.070,6.724
Fri Nov 22 21:06:16 2024,880,-15.318,-15.318,-3.176,-3.176,-5.550,-1.925,14.884,6.027,2.968,13.274,8.765,-5.602,6.474,6.379,14.904,3.214,6.852
Fri Nov 22 21:06:16 2024,885,-15.308,-15.308,-3.211,-3.211,-5.531,-1.897,14.841,5.964,2.959,13.217,8.719,-5.616,6.405,6.330,14.864,3.258,6.844
Fri Nov 22 21:06:16 2024,890,-15.269,-15.269,-3.322,-3.322,-5.593,-1.773,14.918,5.908,3.033,13.102,8.547,-5.605,6.262,6.134,14.856,3.129,6.595
Fri Nov 22 21:06:16 2024,895,-15.278,-15.278,-3.338,-3.338,-5.608,-1.764,14.926,5.880,3.031,13.104,8.503,-5.613,6.267,6.096,14.836,3.130,6.532
Fri Nov 22 21:06:16 2024,900,-15.345,-15.345,-3.241,-3.241,-5.599,-1.883,14.910,5.917,2.962,13.270,8.601,-5.630,6.479,6.231,14.824,3.226,6.625
Fri Nov 22 21:06:16 2024,905,-15.390,-15.390,-3.181,-3.181,-5.597,-1.958,14.898,5.936,2.918,13.378,8.656,-5.643,6.616,6.312,14.814,3.288,6.674
Fri Nov 22 21:06:16 2024,910,-15.354,-15.354,-3.255,-3.255,-5.663,-1.909,14.891,5.904,2.912,13.228,8.605,-5.672,6.462,6.250,14.839,3.214,6.637
Fri Nov 22 21:06:16 2024,915,-15.335,-15.335,-3.299,-3.299,-5.708,-1.885,14.885,5.884,2.903,13.139,8.577,-5.694,6.372,6.217,14.855,3.170,6.618
Fri Nov 22 21:06:16 2024,920,-15.329,-15.329,-3.272,-3.272,-5.676,-1.902,14.893,5.836,2.870,13.130,8.477,-5.702,6.415,6.155,14.773,3.231,6.560
Fri Nov 22 21:06:16 2024,925,-15.332,-15.332,-3.212,-3.212,-5.611,-1.936,14.907,5.782,2.832,13.164,8.360,-5.703,6.516,6.090,14.654,3.334,6.492
Fri Nov 22 21:06:16 2024,930,-15.367,-15.367,-3.184,-3.184,-5.616,-1.916,14.942,5.819,2.854,13.169,8.351,-5.679,6.523,6.073,14.686,3.280,6.467
Fri Nov 22 21:06:16 2024,935,-15.421,-15.421,-3.169,-3.169,-5.652,-1.873,14.987,5.900,2.907,13.169,8.399,-5.642,6.492,6.084,14.789,3.154,6.469
Fri Nov 22 21:06:16 2024,940,-15.474,-15.474,-3.155,-3.155,-5.688,-1.831,15.028,5.980,2.959,13.166,8.449,-5.607,6.458,6.097,14.892,3.031,6.473
Fri Nov 22 21:06:16 2024,945,-15.383,-15.383,-3.186,-3.186,-5.634,-1.821,14.959,5.896,2.942,13.107,8.450,-5.670,6.355,6.116,14.751,3.137,6.468
Fri Nov 22 21:06:16 2024,950,-15.332,-15.332,-3.204,-3.204,-5.605,-1.808,14.920,5.854,2.939,13.067,8.458,-5.707,6.282,6.132,14.674,3.188,6.467
Fri Nov 22 21:06:16 2024,955,-15.352,-15.352,-3.180,-3.180,-5.567,-1.808,14.959,5.915,2.953,13.114,8.509,-5.718,6.292,6.134,14.709,3.222,6.508
Fri Nov 22 21:06:16 2024,960,-15.381,-15.381,-3.153,-3.153,-5.532,-1.809,15.003,5.981,2.968,13.166,8.558,-5.724,6.313,6.135,14.754,3.248,6.550
Fri Nov 22 21:06:16 2024,965,-15.394,-15.394,-3.129,-3.129,-5.521,-1.824,15.000,6.016,2.947,13.198,8.577,-5.720,6.360,6.156,14.802,3.247,6.610
Fri Nov 22 21:06:16 2024,970,-15.384,-15.384,-3.110,-3.110,-5.547,-1.859,14.925,5.995,2.870,13.191,8.545,-5.700,6.444,6.205,14.846,3.203,6.692
Fri Nov 22 21:06:16 2024,975,-15.379,-15.379,-3.091,-3.091,-5.565,-1.888,14.868,5.987,2.809,13.192,8.526,-5.685,6.518,6.246,14.889,3.169,6.767
Fri Nov 22 21:06:16 2024,980,-15.370,-15.370,-3.196,-3.196,-5.614,-1.864,14.942,6.052,2.835,13.199,8.608,-5.696,6.398,6.260,14.872,3.188,6.770
Fri Nov 22 21:06:16 2024,985,-15.362,-15.362,-3.260,-3.260,-5.648,-1.854,14.982,6.092,2.844,13.204,8.657,-5.702,6.332,6.274,14.866,3.196,6.780
Fri Nov 22 21:06:16 2024,990,-15.357,-15.357,-3.277,-3.277,-5.651,-1.831,15.015,6.130,2.879,13.180,8.683,-5.688,6.288,6.264,14.871,3.157,6.745
Fri Nov 22 21:06:16 2024,995,-15.354,-15.354,-3.225,-3.225,-5.610,-1.796,15.031,6.160,2.946,13.118,8.670,-5.652,6.281,6.221,14.889,3.056,6.651
Fri Nov 22 21:06:17 2024,0,-15.346,-15.346,-3.218,-3.218,-5.600,-1.770,15.049,6.197,2.991,13.089,8.696,-5.628,6.283,6.233,14.908,2.997,6.631
Fri Nov 22 21:06:17 2024,5,-15.324,-15.324,-3.268,-3.268,-5.635,-1.754,15.054,6.244,3.002,13.116,8.795,-5.620,6.349,6.377,14.944,3.002,6.770
Fri Nov 22 21:06:17 2024,10,-15.307,-15.307,-3.302,-3.302,-5.657,-1.738,15.061,6.285,3.021,13.129,8.870,-5.609,6.396,6.482,14.974,2.991,6.864
Fri Nov 22 21:06:17 2024,15,-15.374,-15.374,-3.220,-3.220,-5.626,-1.733,15.168,6.288,2.986,13.151,8.768,-5.653,6.311,6.358,14.913,3.014,6.755
Fri Nov 22 21:06:17 2024,20,-15.428,-15.428,-3.157,-3.157,-5.601,-1.728,15.256,6.293,2.960,13.170,8.689,-5.689,6.244,6.264,14.864,3.032,6.674
Fri Nov 22 21:06:17 2024,25,-15.405,-15.405,-3.184,-3.184,-5.642,-1.672,15.331,6.312,3.038,13.196,8.745,-5.677,6.227,6.234,14.904,2.981,6.606
Fri Nov 22 21:06:17 2024,30,-15.378,-15.378,-3.216,-3.216,-5.679,-1.628,15.377,6.326,3.105,13.213,8.801,-5.663,6.224,6.226,14.943,2.938,6.566
Fri Nov 22 21:06:17 2024,35,-15.345,-15.345,-3.255,-3.255,-5.725,-1.574,15.433,6.343,3.187,13.232,8.870,-5.645,6.221,6.216,14.992,2.885,6.517
Fri Nov 22 21:06:17 2024,40,-15.379,-15.379,-3.204,-3.204,-5.576,-1.662,15.239,6.401,3.089,13.164,8.936,-5.668,6.015,6.326,14.907,2.983,6.767
Fri Nov 22 21:06:17 2024,45,-15.389,-15.389,-3.186,-3.186,-5.509,-1.694,15.151,6.436,3.058,13.131,8.987,-5.677,5.906,6.382,14.873,3.021,6.887
Fri Nov 22 21:06:17 2024,50,-15.416,-15.416,-3.170,-3.170,-5.555,-1.813,15.211,6.437,3.025,13.255,8.939,-5.717,6.089,6.379,14.857,3.072,6.813
Fri Nov 22 21:06:17 2024,55,-15.435,-15.435,-3.158,-3.158,-5.580,-1.895,15.241,6.440,3.000,13.335,8.911,-5.745,6.202,6.382,14.844,3.110,6.773
Fri Nov 22 21:06:17 2024,60,-15.400,-15.400,-3.204,-3.204,-5.629,-1.849,15.274,6.392,3.015,13.288,8.865,-5.729,6.154,6.343,14.827,3.083,6.700
Fri Nov 22 21:06:17 2024,65,-15.352,-15.352,-3.264,-3.264,-5.682,-1.770,15.305,6.334,3.040,13.209,8.817,-5.702,6.063,6.295,14.810,3.039,6.622
Fri Nov 22 21:06:17 2024,70,-15.337,-15.337,-3.301,-3.301,-5.686,-1.777,15.198,6.310,3.017,13.118,8.767,-5.741,5.969,6.249,14.762,3.063,6.620
Fri Nov 22 21:06:17 2024,75,-15.344,-15.344,-3.318,-3.318,-5.664,-1.828,15.044,6.310,2.976,13.042,8.728,-5.806,5.896,6.215,14.708,3.117,6.659
Fri Nov 22 21:06:17 2024,80,-15.351,-15.351,-3.338,-3.338,-5.636,-1.888,14.857,6.309,2.925,12.949,8.680,-5.885,5.808,6.174,14.645,3.182,6.707
Fri Nov 22 21:06:17 2024,85,-15.407,-15.407,-3.202,-3.202,-5.510,-1.866,14.940,6.337,2.974,12.982,8.726,-5.836,5.841,6.217,14.703,3.121,6.749
Fri Nov 22 21:06:17 2024,90,-15.458,-15.458,-3.078,-3.078,-5.390,-1.854,14.994,6.362,3.013,13.001,8.762,-5.799,5.860,6.252,14.748,3.073,6.794
Fri Nov 22 21:06:17 2024,95,-15.444,-15.444,-3.119,-3.119,-5.437,-1.832,14.881,6.277,3.017,12.919,8.683,-5.836,5.732,6.164,14.727,3.024,6.682
Fri Nov 22 21:06:17 2024,100,-15.417,-15.417,-3.189,-3.189,-5.513,-1.808,14.743,6.175,3.015,12.821,8.586,-5.885,5.581,6.057,14.694,2.977,6.547
Fri Nov 22 21:06:17 2024,105,-15.406,-15.406,-3.187,-3.187,-5.554,-1.795,14.686,6.134,3.019,12.815,8.542,-5.882,5.554,6.002,14.713,2.920,6.470
Fri Nov 22 21:06:17 2024,110,-15.414,-15.414,-3.109,-3.109,-5.544,-1.798,14.739,6.172,3.029,12.908,8.568,-5.826,5.670,6.021,14.781,2.873,6.481
Fri Nov 22 21:06:17 2024,115,-15.423,-15.423,-3.033,-3.033,-5.534,-1.800,14.789,6.208,3.038,12.999,8.594,-5.772,5.782,6.039,14.846,2.827,6.491
Fri Nov 22 21:06:17 2024,120,-15.406,-15.406,-3.131,-3.131,-5.497,-1.804,14.616,6.143,3.016,12.910,8.558,-5.803,5.661,5.995,14.741,2.936,6.473
Fri Nov 22 21:06:17 2024,125,-15.393,-15.393,-3.198,-3.198,-5.468,-1.805,14.489,6.097,3.000,12.850,8.532,-5.822,5.578,5.964,14.668,3.016,6.460
Fri Nov 22 21:06:17 2024,130,-15.435,-15.435,-3.140,-3.140,-5.466,-1.781,14.559,6.162,2.976,12.817,8.512,-5.828,5.603,5.963,14.662,2.983,6.431
Fri Nov 22 21:06:17 2024,135,-15.486,-15.486,-3.057,-3.057,-5.470,-1.753,14.669,6.248,2.952,12.796,8.496,-5.829,5.652,5.970,14.673,2.927,6.402
Fri Nov 22 21:06:17 2024,140,-15.506,-15.506,-3.021,-3.021,-5.478,-1.749,14.760,6.293,2.943,12.828,8.508,-5.825,5.723,6.000,14.706,2.911,6.442
Fri Nov 22 21:06:17 2024,145,-15.482,-15.482,-3.054,-3.054,-5.493,-1.779,14.809,6.275,2.954,12.928,8.554,-5.814,5.814,6.059,14.763,2.953,6.572
Fri Nov 22 21:06:17 2024,150,-15.459,-15.459,-3.085,-3.085,-5.507,-1.808,14.856,6.258,2.965,13.024,8.600,-5.803,5.902,6.115,14.817,2.991,6.698
Fri Nov 22 21:06:17 2024,155,-15.454,-15.454,-3.027,-3.027,-5.434,-1.783,14.685,6.241,2.959,12.848,8.563,-5.793,5.820,6.125,14.790,2.987,6.710
Fri Nov 22 21:06:17 2024,160,-15.449,-15.449,-2.981,-2.981,-5.373,-1.763,14.542,6.225,2.956,12.705,8.535,-5.783,5.758,6.137,14.771,2.986,6.730
Fri Nov 22 21:06:17 2024,165,-15.440,-15.440,-3.004,-3.004,-5.412,-1.787,14.596,6.247,2.925,12.777,8.586,-5.776,5.827,6.196,14.794,2.964,6.742
Fri Nov 22 21:06:17 2024,170,-15.431,-15.431,-3.042,-3.042,-5.471,-1.817,14.694,6.276,2.893,12.895,8.648,-5.771,5.916,6.253,14.825,2.940,6.748
Fri Nov 22 21:06:17 2024,175,-15.418,-15.418,-3.083,-3.083,-5.493,-1.825,14.707,6.265,2.872,12.953,8.695,-5.755,5.952,6.295,14.851,2.959,6.798
Fri Nov 22 21:06:17 2024,180,-15.401,-15.401,-3.118,-3.118,-5.471,-1.806,14.625,6.213,2.867,12.935,8.716,-5.730,5.921,6.310,14.869,3.020,6.884
Fri Nov 22 21:06:17 2024,185,-15.384,-15.384,-3.152,-3.152,-5.450,-1.787,14.546,6.163,2.862,12.917,8.737,-5.705,5.892,6.325,14.885,3.078,6.969
Fri Nov 22 21:06:17 2024,190,-15.438,-15.438,-3.147,-3.147,-5.485,-1.817,14.648,6.261,2.878,12.969,8.739,-5.731,5.942,6.294,14.830,3.069,6.822
Fri Nov 22 21:06:17 2024,195,-15.486,-15.486,-3.144,-3.144,-5.516,-1.844,14.736,6.347,2.892,13.015,8.741,-5.754,5.986,6.268,14.781,3.064,6.695
Fri Nov 22 21:06:17 2024,200,-15.470,-15.470,-3.161,-3.161,-5.528,-1.865,14.734,6.310,2.866,13.067,8.707,-5.771,6.071,6.256,14.768,3.070,6.643
Fri Nov 22 21:06:17 2024,205,-15.435,-15.435,-3.183,-3.183,-5.531,-1.880,14.704,6.238,2.832,13.112,8.667,-5.783,6.156,6.252,14.770,3.079,6.624
Fri Nov 22 21:06:17 2024,210,-15.433,-15.433,-3.167,-3.167,-5.503,-1.891,14.700,6.222,2.831,13.157,8.677,-5.763,6.187,6.271,14.795,3.091,6.674
Fri Nov 22 21:06:17 2024,215,-15.467,-15.467,-3.112,-3.112,-5.444,-1.895,14.726,6.269,2.868,13.197,8.742,-5.709,6.158,6.314,14.842,3.103,6.794
Fri Nov 22 21:06:17 2024,220,-15.497,-15.497,-3.062,-3.062,-5.391,-1.899,14.749,6.311,2.902,13.232,8.801,-5.660,6.131,6.352,14.885,3.113,6.903
Fri Nov 22 21:06:17 2024,225,-15.506,-15.506,-3.057,-3.057,-5.447,-1.926,14.765,6.367,2.875,13.227,8.832,-5.676,6.231,6.395,14.915,3.046,6.841
Fri Nov 22 21:06:17 2024,230,-15.514,-15.514,-3.049,-3.049,-5.486,-1.947,14.778,6.414,2.857,13.226,8.859,-5.686,6.306,6.429,14.940,2.995,6.799
Fri Nov 22 21:06:17 2024,235,-15.499,-15.499,-3.075,-3.075,-5.481,-1.922,14.830,6.433,2.853,13.154,8.839,-5.694,6.258,6.398,14.942,2.981,6.779
Fri Nov 22 21:06:17 2024,240,-15.473,-15.473,-3.117,-3.117,-5.453,-1.875,14.899,6.435,2.857,13.050,8.795,-5.699,6.147,6.334,14.930,2.990,6.771
Fri Nov 22 21:06:17 2024,245,-15.452,-15.452,-3.150,-3.150,-5.429,-1.837,14.954,6.437,2.860,12.966,8.760,-5.704,6.058,6.282,14.921,2.997,6.765
Fri Nov 22 21:06:17 2024,250,-15.461,-15.461,-3.078,-3.078,-5.437,-1.886,14.769,6.420,2.854,13.014,8.742,-5.736,6.127,6.321,14.853,2.997,6.754
Fri Nov 22 21:06:17 2024,255,-15.462,-15.462,-3.040,-3.040,-5.437,-1.908,14.664,6.409,2.850,13.024,8.722,-5.757,6.149,6.334,14.807,2.997,6.745
Fri Nov 22 21:06:17 2024,260,-15.450,-15.450,-3.040,-3.040,-5.406,-1.915,14.579,6.338,2.842,13.016,8.718,-5.779,6.068,6.312,14.764,3.044,6.751
Fri Nov 22 21:06:17 2024,265,-15.417,-15.417,-3.073,-3.073,-5.334,-1.913,14.467,6.179,2.824,12.991,8.725,-5.812,5.859,6.250,14.702,3.154,6.770
Fri Nov 22 21:06:17 2024,270,-15.434,-15.434,-3.054,-3.054,-5.335,-1.854,14.544,6.170,2.883,13.012,8.728,-5.798,5.835,6.239,14.721,3.131,6.783
Fri Nov 22 21:06:17 2024,275,-15.464,-15.464,-3.023,-3.023,-5.357,-1.779,14.684,6.204,2.963,13.044,8.731,-5.769,5.862,6.241,14.768,3.070,6.793
Fri Nov 22 21:06:17 2024,280,-15.490,-15.490,-2.998,-2.998,-5.376,-1.717,14.799,6.233,3.030,13.068,8.734,-5.746,5.886,6.243,14.806,3.020,6.803
Fri Nov 22 21:06:17 2024,285,-15.508,-15.508,-3.096,-3.096,-5.420,-1.813,14.786,6.306,2.903,13.056,8.696,-5.801,5.932,6.196,14.741,3.103,6.732
Fri Nov 22 21:06:17 2024,290,-15.526,-15.526,-3.151,-3.151,-5.452,-1.858,14.804,6.358,2.841,13.053,8.674,-5.829,5.966,6.167,14.710,3.142,6.690
Fri Nov 22 21:06:17 2024,295,-15.524,-15.524,-3.151,-3.151,-5.451,-1.873,14.808,6.376,2.836,13.041,8.682,-5.832,5.970,6.183,14.723,3.135,6.682
Fri Nov 22 21:06:17 2024,300,-15.488,-15.488,-3.056,-3.056,-5.392,-1.852,14.792,6.354,2.921,13.003,8.748,-5.795,5.927,6.288,14.821,3.042,6.723
Fri Nov 22 21:06:17 2024,305,-15.500,-15.500,-3.102,-3.102,-5.456,-1.877,14.834,6.393,2.928,13.061,8.800,-5.792,5.981,6.322,14.837,3.011,6.698
Fri Nov 22 21:06:17 2024,310,-15.523,-15.523,-3.182,-3.182,-5.556,-1.913,14.896,6.448,2.923,13.152,8.858,-5.797,6.065,6.344,14.839,2.988,6.657
Fri Nov 22 21:06:17 2024,315,-15.544,-15.544,-3.258,-3.258,-5.650,-1.947,14.952,6.500,2.919,13.238,8.912,-5.800,6.143,6.364,14.840,2.966,6.619
Fri Nov 22 21:06:17 2024,320,-15.554,-15.554,-3.080,-3.080,-5.461,-1.979,14.871,6.454,2.935,13.322,8.876,-5.769,6.214,6.396,14.795,3.196,6.860
Fri Nov 22 21:06:17 2024,325,-15.563,-15.563,-2.985,-2.985,-5.361,-2.003,14.831,6.434,2.944,13.384,8.862,-5.752,6.267,6.418,14.767,3.328,6.998
Fri Nov 22 21:06:17 2024,330,-15.529,-15.529,-2.993,-2.993,-5.342,-1.930,14.838,6.362,2.963,13.304,8.847,-5.783,6.093,6.328,14.633,3.306,6.806
Fri Nov 22 21:06:17 2024,335,-15.498,-15.498,-3.002,-3.002,-5.324,-1.863,14.844,6.297,2.981,13.230,8.833,-5.812,5.932,6.245,14.510,3.280,6.628
Fri Nov 22 21:06:17 2024,340,-15.473,-15.473,-3.008,-3.008,-5.311,-1.809,14.848,6.244,2.996,13.170,8.822,-5.836,5.802,6.178,14.410,3.255,6.484
Fri Nov 22 21:06:17 2024,345,-15.475,-15.475,-3.166,-3.166,-5.451,-1.786,14.870,6.546,2.991,13.105,8.940,-5.850,5.896,6.360,14.642,3.067,6.702
Fri Nov 22 21:06:17 2024,350,-15.468,-15.468,-3.248,-3.248,-5.518,-1.756,14.882,6.682,2.993,13.052,8.996,-5.865,5.901,6.430,14.726,2.964,6.765
Fri Nov 22 21:06:17 2024,355,-15.436,-15.436,-3.134,-3.134,-5.478,-1.742,14.885,6.488,3.041,13.205,8.909,-5.812,5.907,6.291,14.614,3.119,6.630
Fri Nov 22 21:06:17 2024,360,-15.409,-15.409,-3.061,-3.061,-5.461,-1.724,14.890,6.363,3.079,13.314,8.852,-5.772,5.912,6.195,14.542,3.220,6.537
Fri Nov 22 21:06:17 2024,365,-15.392,-15.392,-3.016,-3.016,-5.450,-1.713,14.892,6.287,3.103,13.381,8.817,-5.748,5.916,6.136,14.499,3.282,6.479
Fri Nov 22 21:06:17 2024,370,-15.494,-15.494,-3.053,-3.053,-5.427,-1.778,14.880,6.381,3.015,13.200,8.785,-5.806,5.882,6.158,14.508,3.176,6.496
Fri Nov 22 21:06:17 2024,375,-15.522,-15.522,-3.050,-3.050,-5.416,-1.795,14.877,6.386,2.994,13.163,8.763,-5.817,5.872,6.145,14.496,3.162,6.482
Fri Nov 22 21:06:17 2024,380,-15.460,-15.460,-3.176,-3.176,-5.554,-1.812,15.025,6.470,3.056,13.304,8.864,-5.912,5.811,6.160,14.491,3.240,6.528
Fri Nov 22 21:06:17 2024,385,-15.437,-15.437,-3.244,-3.244,-5.626,-1.826,15.105,6.519,3.082,13.368,8.912,-5.969,5.774,6.165,14.485,3.279,6.550
Fri Nov 22 21:06:17 2024,390,-15.442,-15.442,-3.148,-3.148,-5.484,-1.775,14.986,6.401,3.118,13.274,8.847,-5.901,5.681,6.115,14.463,3.302,6.624
Fri Nov 22 21:06:17 2024,395,-15.443,-15.443,-3.084,-3.084,-5.383,-1.737,14.904,6.317,3.150,13.211,8.803,-5.857,5.602,6.077,14.445,3.326,6.685
Fri Nov 22 21:06:17 2024,400,-15.436,-15.436,-3.106,-3.106,-5.469,-1.702,15.020,6.421,3.170,13.160,8.805,-5.884,5.599,6.088,14.469,3.228,6.588
Fri Nov 22 21:06:17 2024,405,-15.428,-15.428,-3.134,-3.134,-5.571,-1.661,15.159,6.545,3.193,13.101,8.808,-5.917,5.596,6.103,14.497,3.111,6.473
Fri Nov 22 21:06:17 2024,410,-15.404,-15.404,-3.162,-3.162,-5.600,-1.644,15.212,6.554,3.183,13.087,8.777,-5.922,5.608,6.087,14.492,3.088,6.415
Fri Nov 22 21:06:17 2024,415,-15.342,-15.342,-3.196,-3.196,-5.523,-1.660,15.142,6.379,3.117,13.142,8.680,-5.886,5.649,6.015,14.434,3.209,6.429
Fri Nov 22 21:06:17 2024,420,-15.300,-15.300,-3.224,-3.224,-5.481,-1.666,15.110,6.273,3.074,13.172,8.613,-5.865,5.677,5.968,14.396,3.279,6.424
Fri Nov 22 21:06:17 2024,425,-15.327,-15.327,-3.206,-3.206,-5.452,-1.681,15.178,6.538,3.060,13.106,8.757,-5.786,5.816,6.183,14.501,3.256,6.653
Fri Nov 22 21:06:17 2024,430,-15.337,-15.337,-3.199,-3.199,-5.430,-1.691,15.211,6.671,3.047,13.073,8.827,-5.740,5.896,6.296,14.554,3.251,6.780
Fri Nov 22 21:06:17 2024,435,-15.326,-15.326,-3.167,-3.167,-5.484,-1.684,15.235,6.655,3.027,13.126,8.809,-5.735,5.981,6.290,14.531,3.285,6.743
Fri Nov 22 21:06:17 2024,440,-15.312,-15.312,-3.135,-3.135,-5.547,-1.675,15.255,6.609,3.009,13.190,8.774,-5.739,6.055,6.260,14.494,3.322,6.676
Fri Nov 22 21:06:17 2024,445,-15.288,-15.288,-3.122,-3.122,-5.568,-1.662,15.256,6.568,2.986,13.230,8.757,-5.733,6.119,6.248,14.453,3.374,6.648
Fri Nov 22 21:06:17 2024,450,-15.235,-15.235,-3.151,-3.151,-5.501,-1.638,15.218,6.528,2.947,13.230,8.775,-5.706,6.179,6.272,14.390,3.471,6.692
Fri Nov 22 21:06:17 2024,455,-15.198,-15.198,-3.167,-3.167,-5.462,-1.620,15.194,6.497,2.919,13.236,8.784,-5.688,6.227,6.286,14.344,3.541,6.716
Fri Nov 22 21:06:17 2024,460,-15.181,-15.181,-3.088,-3.088,-5.423,-1.670,15.058,6.446,2.912,13.256,8.770,-5.732,6.263,6.275,14.319,3.619,6.680
Fri Nov 22 21:06:17 2024,465,-15.163,-15.163,-3.032,-3.032,-5.386,-1.705,14.950,6.401,2.902,13.273,8.760,-5.762,6.299,6.269,14.291,3.691,6.658
Fri Nov 22 21:06:17 2024,470,-15.159,-15.159,-2.968,-2.968,-5.340,-1.713,14.870,6.403,2.914,13.295,8.790,-5.762,6.221,6.252,14.260,3.687,6.640
Fri Nov 22 21:06:17 2024,475,-15.158,-15.158,-2.907,-2.907,-5.296,-1.717,14.798,6.412,2.928,13.316,8.823,-5.759,6.131,6.235,14.231,3.672,6.623
Fri Nov 22 21:06:17 2024,480,-15.157,-15.157,-2.850,-2.850,-5.254,-1.721,14.731,6.420,2.941,13.336,8.854,-5.756,6.047,6.218,14.203,3.658,6.607
Fri Nov 22 21:06:17 2024,485,-15.144,-15.144,-2.927,-2.927,-5.340,-1.719,14.819,6.384,2.963,13.268,8.777,-5.808,6.067,6.155,14.246,3.577,6.545
Fri Nov 22 21:06:17 2024,490,-15.136,-15.136,-2.954,-2.954,-5.376,-1.719,14.849,6.366,2.978,13.237,8.744,-5.836,6.054,6.116,14.261,3.529,6.506
Fri Nov 22 21:06:17 2024,495,-15.143,-15.143,-3.000,-3.000,-5.452,-1.704,14.931,6.389,3.020,13.291,8.776,-5.792,6.049,6.133,14.293,3.516,6.497
Fri Nov 22 21:06:17 2024,500,-15.147,-15.147,-3.037,-3.037,-5.512,-1.694,14.994,6.402,3.052,13.324,8.794,-5.766,6.042,6.138,14.317,3.499,6.485
Fri Nov 22 21:06:17 2024,505,-15.172,-15.172,-3.013,-3.013,-5.515,-1.733,15.025,6.437,3.034,13.348,8.794,-5.775,6.096,6.148,14.251,3.552,6.488
Fri Nov 22 21:06:17 2024,510,-15.199,-15.199,-2.983,-2.983,-5.513,-1.776,15.050,6.473,3.011,13.371,8.791,-5.789,6.153,6.158,14.176,3.610,6.493
Fri Nov 22 21:06:17 2024,515,-15.208,-15.208,-2.988,-2.988,-5.518,-1.783,15.082,6.510,3.011,13.400,8.806,-5.782,6.205,6.184,14.152,3.625,6.496
Fri Nov 22 21:06:17 2024,520,-15.183,-15.183,-3.063,-3.063,-5.538,-1.720,15.134,6.557,3.054,13.452,8.856,-5.734,6.259,6.252,14.220,3.558,6.496
Fri Nov 22 21:06:17 2024,525,-15.165,-15.165,-3.126,-3.126,-5.556,-1.670,15.182,6.602,3.089,13.500,8.901,-5.693,6.313,6.314,14.270,3.505,6.497
Fri Nov 22 21:06:17 2024,530,-15.176,-15.176,-3.126,-3.126,-5.615,-1.677,15.204,6.624,3.040,13.413,8.853,-5.674,6.364,6.309,14.262,3.448,6.448
Fri Nov 22 21:06:17 2024,535,-15.183,-15.183,-3.138,-3.138,-5.668,-1.674,15.231,6.650,3.005,13.348,8.820,-5.650,6.417,6.317,14.264,3.391,6.408
Fri Nov 22 21:06:17 2024,540,-15.148,-15.148,-3.119,-3.119,-5.632,-1.669,15.203,6.666,2.990,13.253,8.819,-5.646,6.423,6.380,14.276,3.464,6.590
Fri Nov 22 21:06:17 2024,545,-15.108,-15.108,-3.094,-3.094,-5.578,-1.664,15.164,6.680,2.980,13.156,8.825,-5.647,6.419,6.451,14.289,3.561,6.811
Fri Nov 22 21:06:17 2024,550,-15.074,-15.074,-3.074,-3.074,-5.534,-1.660,15.131,6.692,2.972,13.075,8.830,-5.648,6.416,6.510,14.298,3.640,6.996
Fri Nov 22 21:06:17 2024,555,-15.084,-15.084,-3.125,-3.125,-5.655,-1.651,15.216,6.724,2.955,13.282,8.912,-5.646,6.510,6.498,14.366,3.472,6.714
Fri Nov 22 21:06:17 2024,560,-15.082,-15.082,-3.149,-3.149,-5.713,-1.644,15.258,6.744,2.944,13.380,8.960,-5.644,6.565,6.506,14.407,3.394,6.599
Fri Nov 22 21:06:17 2024,565,-15.070,-15.070,-3.192,-3.192,-5.712,-1.592,15.392,6.688,3.012,13.408,8.932,-5.651,6.437,6.405,14.336,3.479,6.588
Fri Nov 22 21:06:17 2024,570,-15.059,-15.059,-3.231,-3.231,-5.715,-1.546,15.510,6.640,3.070,13.439,8.912,-5.657,6.330,6.319,14.277,3.547,6.571
Fri Nov 22 21:06:17 2024,575,-15.099,-15.099,-3.221,-3.221,-5.726,-1.527,15.511,6.668,3.113,13.473,8.960,-5.680,6.243,6.285,14.257,3.504,6.489
Fri Nov 22 21:06:17 2024,580,-15.145,-15.145,-3.203,-3.203,-5.737,-1.515,15.489,6.707,3.148,13.504,9.014,-5.703,6.171,6.266,14.247,3.445,6.403
Fri Nov 22 21:06:17 2024,585,-15.167,-15.167,-3.207,-3.207,-5.751,-1.478,15.537,6.779,3.216,13.538,9.087,-5.693,6.185,6.315,14.313,3.392,6.465
Fri Nov 22 21:06:17 2024,590,-15.167,-15.167,-3.228,-3.228,-5.766,-1.428,15.628,6.863,3.298,13.567,9.160,-5.659,6.261,6.405,14.422,3.353,6.624
Fri Nov 22 21:06:17 2024,595,-15.167,-15.167,-3.249,-3.249,-5.781,-1.377,15.725,6.951,3.383,13.596,9.238,-5.624,6.340,6.500,14.537,3.311,6.794
Fri Nov 22 21:06:17 2024,600,-15.238,-15.238,-3.140,-3.140,-5.770,-1.328,15.800,6.910,3.498,13.628,9.214,-5.610,6.374,6.442,14.450,3.294,6.630
Fri Nov 22 21:06:17 2024,605,-15.295,-15.295,-3.054,-3.054,-5.761,-1.287,15.865,6.884,3.595,13.651,9.199,-5.597,6.406,6.401,14.389,3.276,6.512
Fri Nov 22 21:06:17 2024,610,-15.306,-15.306,-3.115,-3.115,-5.793,-1.229,15.890,6.944,3.700,13.617,9.290,-5.562,6.333,6.398,14.416,3.163,6.390
Fri Nov 22 21:06:17 2024,615,-15.303,-15.303,-3.193,-3.193,-5.825,-1.186,15.898,7.006,3.775,13.580,9.378,-5.533,6.257,6.405,14.456,3.061,6.307
Fri Nov 22 21:06:17 2024,620,-15.299,-15.299,-3.284,-3.284,-5.862,-1.135,15.905,7.078,3.863,13.535,9.481,-5.499,6.168,6.413,14.503,2.942,6.211
Fri Nov 22 21:06:17 2024,625,-15.418,-15.418,-3.089,-3.089,-5.679,-1.240,15.798,7.116,3.955,13.650,9.691,-5.545,6.213,6.599,14.641,3.091,6.709
Fri Nov 22 21:06:17 2024,630,-15.480,-15.480,-3.004,-3.004,-5.589,-1.285,15.742,7.151,4.022,13.699,9.824,-5.563,6.219,6.700,14.723,3.142,6.955
Fri Nov 22 21:06:17 2024,635,-15.538,-15.538,-2.969,-2.969,-5.606,-1.249,15.923,7.174,4.110,13.846,9.846,-5.452,6.465,6.792,14.859,3.079,6.950
Fri Nov 22 21:06:17 2024,640,-15.586,-15.586,-2.941,-2.941,-5.618,-1.220,16.070,7.192,4.181,13.958,9.864,-5.362,6.664,6.867,14.969,3.027,6.948
Fri Nov 22 21:06:17 2024,645,-15.616,-15.616,-2.944,-2.944,-5.628,-1.213,15.972,7.121,4.247,13.855,9.815,-5.309,6.590,6.825,15.009,2.981,6.886
Fri Nov 22 21:06:17 2024,650,-15.629,-15.629,-2.955,-2.955,-5.633,-1.215,15.832,7.046,4.289,13.721,9.763,-5.284,6.455,6.760,15.014,2.953,6.826
Fri Nov 22 21:06:17 2024,655,-15.643,-15.643,-2.968,-2.968,-5.639,-1.216,15.682,6.966,4.335,13.576,9.706,-5.258,6.311,6.690,15.020,2.923,6.763
Fri Nov 22 21:06:17 2024,660,-15.651,-15.651,-2.976,-2.976,-5.642,-1.217,15.583,6.914,4.365,13.481,9.668,-5.241,6.216,6.645,15.024,2.902,6.722
Fri Nov 22 21:06:17 2024,665,-15.734,-15.734,-2.795,-2.795,-5.548,-1.170,15.738,6.839,4.397,13.587,9.733,-5.267,6.289,6.729,15.073,2.852,6.812
Fri Nov 22 21:06:17 2024,670,-15.696,-15.696,-2.900,-2.900,-5.664,-1.199,15.775,6.710,4.434,13.655,9.660,-5.198,6.268,6.607,15.074,2.878,6.724
Fri Nov 22 21:06:17 2024,675,-15.668,-15.668,-2.982,-2.982,-5.759,-1.221,15.807,6.592,4.468,13.710,9.600,-5.139,6.247,6.503,15.079,2.896,6.650
Fri Nov 22 21:06:17 2024,680,-15.722,-15.722,-2.997,-2.997,-5.798,-1.250,15.838,6.558,4.466,13.771,9.611,-5.129,6.289,6.474,15.118,2.883,6.601
Fri Nov 22 21:06:17 2024,685,-15.781,-15.781,-2.989,-2.989,-5.810,-1.271,15.858,6.557,4.455,13.814,9.639,-5.136,6.335,6.474,15.153,2.865,6.576
Fri Nov 22 21:06:17 2024,690,-15.848,-15.848,-2.980,-2.980,-5.824,-1.296,15.881,6.555,4.442,13.863,9.671,-5.144,6.388,6.475,15.194,2.844,6.546
Fri Nov 22 21:06:17 2024,695,-15.877,-15.877,-2.956,-2.956,-5.819,-1.315,15.890,6.526,4.460,13.841,9.667,-5.141,6.342,6.461,15.197,2.816,6.512
Fri Nov 22 21:06:17 2024,700,-15.880,-15.880,-2.896,-2.896,-5.786,-1.340,15.886,6.440,4.527,13.711,9.617,-5.121,6.137,6.417,15.150,2.758,6.448
Fri Nov 22 21:06:17 2024,705,-15.877,-15.877,-2.946,-2.946,-5.928,-1.359,16.032,6.565,4.529,13.774,9.642,-5.056,6.365,6.469,15.328,2.602,6.406
Fri Nov 22 21:06:17 2024,710,-15.876,-15.876,-2.985,-2.985,-6.044,-1.375,16.152,6.667,4.532,13.825,9.662,-5.002,6.551,6.511,15.476,2.471,6.371
Fri Nov 22 21:06:17 2024,715,-15.874,-15.874,-3.021,-3.021,-6.150,-1.390,16.263,6.762,4.534,13.872,9.680,-4.952,6.723,6.550,15.613,2.350,6.339
Fri Nov 22 21:06:17 2024,720,-15.937,-15.937,-2.916,-2.916,-5.991,-1.495,15.845,6.583,4.467,13.816,9.622,-5.109,6.294,6.409,15.320,2.488,6.239
Fri Nov 22 21:06:17 2024,725,-15.936,-15.936,-2.892,-2.892,-5.974,-1.500,15.753,6.537,4.480,13.788,9.607,-5.113,6.206,6.372,15.288,2.476,6.194
Fri Nov 22 21:06:17 2024,730,-15.847,-15.847,-2.915,-2.915,-6.040,-1.358,15.873,6.520,4.624,13.711,9.612,-4.950,6.301,6.393,15.448,2.341,6.186
Fri Nov 22 21:06:17 2024,735,-15.773,-15.773,-2.932,-2.932,-6.093,-1.241,15.965,6.503,4.744,13.645,9.615,-4.816,6.375,6.408,15.579,2.229,6.178
Fri Nov 22 21:06:17 2024,740,-15.717,-15.717,-2.945,-2.945,-6.133,-1.152,16.033,6.490,4.835,13.594,9.618,-4.714,6.430,6.419,15.679,2.143,6.171
Fri Nov 22 21:06:17 2024,745,-15.868,-15.868,-2.963,-2.963,-6.072,-1.450,15.842,6.697,4.500,13.778,9.649,-5.083,6.240,6.418,15.440,2.260,6.139
Fri Nov 22 21:06:17 2024,750,-15.867,-15.867,-2.957,-2.957,-6.095,-1.423,15.955,6.814,4.514,13.791,9.705,-5.059,6.307,6.494,15.499,2.226,6.211
Fri Nov 22 21:06:17 2024,755,-15.846,-15.846,-2.941,-2.941,-6.133,-1.338,16.149,6.945,4.586,13.780,9.780,-4.964,6.435,6.602,15.618,2.168,6.325
Fri Nov 22 21:06:17 2024,760,-15.831,-15.831,-2.929,-2.929,-6.164,-1.269,16.306,7.051,4.645,13.771,9.841,-4.888,6.538,6.690,15.714,2.120,6.418
Fri Nov 22 21:06:17 2024,765,-15.780,-15.780,-2.961,-2.961,-6.172,-1.397,16.002,6.941,4.498,13.818,9.794,-4.952,6.542,6.667,15.725,2.171,6.466
Fri Nov 22 21:06:17 2024,770,-15.743,-15.743,-2.980,-2.980,-6.185,-1.464,15.840,6.894,4.415,13.844,9.779,-4.976,6.571,6.675,15.757,2.192,6.522
Fri Nov 22 21:06:17 2024,775,-15.749,-15.749,-2.971,-2.971,-6.141,-1.520,15.806,7.050,4.377,13.896,9.895,-5.002,6.662,6.793,15.775,2.213,6.601
Fri Nov 22 21:06:17 2024,780,-15.756,-15.756,-2.961,-2.961,-6.094,-1.578,15.774,7.216,4.339,13.951,10.018,-5.030,6.757,6.917,15.792,2.233,6.683
Fri Nov 22 21:06:17 2024,785,-15.761,-15.761,-2.953,-2.953,-6.057,-1.622,15.750,7.343,4.309,13.993,10.112,-5.051,6.830,7.012,15.806,2.249,6.746
Fri Nov 22 21:06:17 2024,790,-15.631,-15.631,-3.017,-3.017,-6.122,-1.581,15.840,7.307,4.249,13.930,9.992,-5.058,6.772,6.930,15.783,2.192,6.678
Fri Nov 22 21:06:17 2024,795,-15.577,-15.577,-3.042,-3.042,-6.138,-1.576,15.871,7.328,4.215,13.915,9.968,-5.068,6.768,6.922,15.777,2.173,6.668
Fri Nov 22 21:06:17 2024,800,-15.693,-15.693,-2.891,-2.891,-5.914,-1.573,15.654,7.314,4.227,13.832,9.964,-5.015,6.682,6.910,15.796,2.208,6.773
Fri Nov 22 21:06:17 2024,805,-15.773,-15.773,-2.778,-2.778,-5.742,-1.570,15.491,7.307,4.231,13.765,9.956,-4.975,6.614,6.899,15.810,2.232,6.852
Fri Nov 22 21:06:17 2024,810,-15.761,-15.761,-2.865,-2.865,-5.748,-1.564,15.402,7.286,4.168,13.715,9.956,-5.006,6.517,6.944,15.820,2.236,6.978
Fri Nov 22 21:06:17 2024,815,-15.751,-15.751,-2.939,-2.939,-5.748,-1.558,15.321,7.268,4.113,13.669,9.956,-5.031,6.431,6.983,15.830,2.239,7.091
Fri Nov 22 21:06:17 2024,820,-15.749,-15.749,-2.967,-2.967,-5.740,-1.535,15.255,7.212,4.104,13.600,9.917,-5.016,6.363,6.965,15.815,2.222,7.077
Fri Nov 22 21:06:17 2024,825,-15.758,-15.758,-2.913,-2.913,-5.707,-1.461,15.171,7.031,4.186,13.440,9.765,-4.898,6.281,6.811,15.734,2.143,6.779
Fri Nov 22 21:06:17 2024,830,-15.764,-15.764,-2.886,-2.886,-5.682,-1.408,15.098,6.902,4.235,13.319,9.658,-4.819,6.210,6.709,15.679,2.084,6.586
Fri Nov 22 21:06:17 2024,835,-15.787,-15.787,-2.881,-2.881,-5.688,-1.490,15.050,6.928,4.205,13.403,9.691,-4.900,6.159,6.732,15.727,2.139,6.748
Fri Nov 22 21:06:17 2024,840,-15.803,-15.803,-2.873,-2.873,-5.688,-1.538,15.004,6.924,4.193,13.439,9.694,-4.942,6.112,6.730,15.751,2.166,6.827
Fri Nov 22 21:06:17 2024,845,-15.816,-15.816,-2.867,-2.867,-5.688,-1.576,14.968,6.920,4.183,13.469,9.697,-4.976,6.075,6.728,15.769,2.188,6.889
Fri Nov 22 21:06:17 2024,850,-15.848,-15.848,-2.852,-2.852,-5.779,-1.465,15.263,6.892,4.263,13.462,9.565,-4.936,6.242,6.593,15.643,2.116,6.419
Fri Nov 22 21:06:17 2024,855,-15.868,-15.868,-2.844,-2.844,-5.818,-1.432,15.375,6.877,4.294,13.470,9.510,-4.933,6.300,6.534,15.595,2.093,6.244
Fri Nov 22 21:06:17 2024,860,-15.874,-15.874,-2.761,-2.761,-5.775,-1.539,15.200,6.849,4.175,13.509,9.469,-4.924,6.253,6.536,15.720,2.061,6.357
Fri Nov 22 21:06:17 2024,865,-15.882,-15.882,-2.701,-2.701,-5.749,-1.611,15.091,6.826,4.094,13.537,9.432,-4.916,6.228,6.528,15.803,2.033,6.413
Fri Nov 22 21:06:17 2024,870,-15.782,-15.782,-2.773,-2.773,-5.726,-1.512,15.158,6.909,4.212,13.463,9.515,-4.863,6.305,6.615,15.797,2.076,6.475
Fri Nov 22 21:06:17 2024,875,-15.715,-15.715,-2.813,-2.813,-5.708,-1.454,15.189,6.962,4.282,13.416,9.567,-4.826,6.354,6.673,15.803,2.101,6.524
Fri Nov 22 21:06:17 2024,880,-15.664,-15.664,-2.844,-2.844,-5.693,-1.410,15.212,7.003,4.335,13.380,9.606,-4.798,6.392,6.717,15.808,2.120,6.562
Fri Nov 22 21:06:17 2024,885,-15.684,-15.684,-2.873,-2.873,-5.760,-1.612,15.044,7.059,4.082,13.497,9.654,-4.877,6.431,6.787,15.766,2.101,6.516
Fri Nov 22 21:06:17 2024,890,-15.643,-15.643,-2.838,-2.838,-5.728,-1.630,14.988,7.018,4.030,13.520,9.634,-4.885,6.428,6.778,15.718,2.144,6.521
Fri Nov 22 21:06:17 2024,895,-15.573,-15.573,-2.737,-2.737,-5.637,-1.590,14.944,6.889,4.022,13.529,9.556,-4.875,6.386,6.705,15.639,2.233,6.537
Fri Nov 22 21:06:17 2024,900,-15.517,-15.517,-2.659,-2.659,-5.566,-1.561,14.908,6.789,4.013,13.538,9.495,-4.868,6.354,6.650,15.575,2.303,6.549
Fri Nov 22 21:06:17 2024,905,-15.494,-15.494,-2.650,-2.650,-5.530,-1.486,15.091,6.879,4.076,13.542,9.546,-4.908,6.343,6.664,15.544,2.347,6.575
Fri Nov 22 21:06:17 2024,910,-15.477,-15.477,-2.653,-2.653,-5.500,-1.401,15.321,7.006,4.155,13.543,9.619,-4.957,6.334,6.692,15.517,2.388,6.606
Fri Nov 22 21:06:17 2024,915,-15.468,-15.468,-2.642,-2.642,-5.484,-1.370,15.425,7.022,4.164,13.583,9.642,-4.959,6.395,6.725,15.496,2.453,6.679
Fri Nov 22 21:06:17 2024,920,-15.482,-15.482,-2.626,-2.626,-5.501,-1.406,15.436,6.912,4.072,13.715,9.632,-4.893,6.630,6.818,15.488,2.587,6.876
Fri Nov 22 21:06:17 2024,925,-15.485,-15.485,-2.614,-2.614,-5.503,-1.412,15.482,6.863,4.030,13.797,9.636,-4.862,6.770,6.877,15.475,2.678,7.002
Fri Nov 22 21:06:17 2024,930,-15.471,-15.471,-2.667,-2.667,-5.620,-1.355,15.648,6.727,4.172,13.778,9.502,-4.881,6.616,6.616,15.554,2.548,6.645
Fri Nov 22 21:06:17 2024,935,-15.464,-15.464,-2.695,-2.695,-5.689,-1.323,15.759,6.633,4.243,13.788,9.424,-4.884,6.564,6.478,15.596,2.497,6.471
Fri Nov 22 21:06:17 2024,940,-15.548,-15.548,-2.690,-2.690,-5.711,-1.380,15.802,6.627,4.221,13.898,9.513,-4.912,6.651,6.619,15.660,2.534,6.752
Fri Nov 22 21:06:17 2024,945,-15.614,-15.614,-2.691,-2.691,-5.740,-1.421,15.854,6.608,4.215,13.987,9.574,-4.935,6.714,6.711,15.719,2.553,6.956
Fri Nov 22 21:06:17 2024,950,-15.604,-15.604,-2.692,-2.692,-5.720,-1.352,15.878,6.542,4.286,13.945,9.557,-4.891,6.718,6.705,15.699,2.602,6.984
Fri Nov 22 21:06:17 2024,955,-15.587,-15.587,-2.694,-2.694,-5.695,-1.268,15.900,6.468,4.370,13.888,9.533,-4.838,6.719,6.690,15.670,2.658,7.002
Fri Nov 22 21:06:17 2024,960,-15.571,-15.571,-2.695,-2.695,-5.673,-1.193,15.919,6.401,4.445,13.836,9.511,-4.790,6.719,6.677,15.645,2.708,7.019
Fri Nov 22 21:06:17 2024,965,-15.616,-15.616,-2.649,-2.649,-5.658,-1.193,16.051,6.491,4.489,13.863,9.485,-4.799,6.694,6.491,15.581,2.663,6.652
Fri Nov 22 21:06:17 2024,970,-15.640,-15.640,-2.622,-2.622,-5.644,-1.175,16.135,6.530,4.533,13.865,9.465,-4.793,6.679,6.377,15.537,2.647,6.437
Fri Nov 22 21:06:17 2024,975,-15.657,-15.657,-2.603,-2.603,-5.635,-1.163,16.190,6.555,4.563,13.866,9.452,-4.790,6.668,6.302,15.507,2.636,6.296
Fri Nov 22 21:06:17 2024,980,-15.663,-15.663,-2.596,-2.596,-5.630,-1.158,16.215,6.566,4.576,13.866,9.446,-4.788,6.664,6.269,15.494,2.630,6.235
Fri Nov 22 21:06:17 2024,985,-15.664,-15.664,-2.593,-2.593,-5.628,-1.156,16.222,6.570,4.579,13.866,9.444,-4.788,6.662,6.260,15.491,2.628,6.218
Fri Nov 22 21:06:17 2024,990,-15.628,-15.628,-2.626,-2.626,-5.754,-1.152,16.336,6.232,4.515,14.157,9.613,-4.696,6.880,6.389,15.572,2.787,6.483
Fri Nov 22 21:06:17 2024,995,-15.627,-15.627,-2.626,-2.626,-5.776,-1.148,16.381,6.172,4.513,14.218,9.644,-4.675,6.922,6.386,15.578,2.816,6.485
Fri Nov 22 21:06:18 2024,0,-15.606,-15.606,-2.608,-2.608,-5.713,-1.209,16.414,6.415,4.487,14.164,9.621,-4.703,6.974,6.523,15.668,2.771,6.622
Fri Nov 22 21:06:18 2024,5,-15.595,-15.595,-2.599,-2.599,-5.684,-1.240,16.438,6.534,4.474,14.145,9.614,-4.714,7.009,6.594,15.717,2.752,6.695
Fri Nov 22 21:06:18 2024,10,-15.586,-15.586,-2.613,-2.613,-5.664,-1.302,16.203,6.416,4.424,14.182,9.610,-4.723,6.935,6.566,15.618,2.792,6.624
Fri Nov 22 21:06:18 2024,15,-15.580,-15.580,-2.622,-2.622,-5.648,-1.348,16.034,6.335,4.387,14.208,9.608,-4.730,6.883,6.548,15.548,2.821,6.574
Fri Nov 22 21:06:18 2024,20,-15.530,-15.530,-2.654,-2.654,-5.564,-1.350,15.852,6.249,4.376,14.148,9.592,-4.688,6.876,6.534,15.466,2.900,6.528
Fri Nov 22 21:06:18 2024,25,-15.482,-15.482,-2.685,-2.685,-5.479,-1.343,15.695,6.175,4.371,14.083,9.577,-4.644,6.878,6.522,15.395,2.977,6.490
Fri Nov 22 21:06:18 2024,30,-15.437,-15.437,-2.714,-2.714,-5.401,-1.337,15.547,6.106,4.367,14.020,9.563,-4.604,6.879,6.511,15.328,3.048,6.454
Fri Nov 22 21:06:18 2024,35,-15.577,-15.577,-2.626,-2.626,-5.492,-1.412,15.898,6.305,4.309,14.178,9.636,-4.720,6.911,6.495,15.378,2.965,6.442
Fri Nov 22 21:06:18 2024,40,-15.650,-15.650,-2.580,-2.580,-5.528,-1.454,16.070,6.408,4.274,14.256,9.676,-4.780,6.931,6.483,15.393,2.932,6.427
Fri Nov 22 21:06:18 2024,45,-15.684,-15.684,-2.499,-2.499,-5.388,-1.388,15.928,6.348,4.267,14.144,9.636,-4.786,6.708,6.398,15.350,2.985,6.527
Fri Nov 22 21:06:18 2024,50,-15.722,-15.722,-2.425,-2.425,-5.272,-1.337,15.820,6.306,4.257,14.054,9.606,-4.795,6.519,6.326,15.316,3.028,6.612
Fri Nov 22 21:06:18 2024,55,-15.765,-15.765,-2.358,-2.358,-5.172,-1.384,15.632,6.251,4.220,14.030,9.639,-4.782,6.422,6.329,15.279,3.051,6.604
Fri Nov 22 21:06:18 2024,60,-15.813,-15.813,-2.290,-2.290,-5.074,-1.460,15.415,6.192,4.173,14.023,9.690,-4.763,6.346,6.353,15.241,3.069,6.570
Fri Nov 22 21:06:18 2024,65,-15.851,-15.851,-2.238,-2.238,-4.999,-1.518,15.249,6.146,4.138,14.018,9.730,-4.749,6.288,6.372,15.211,3.082,6.545
Fri Nov 22 21:06:18 2024,70,-15.720,-15.720,-2.384,-2.384,-4.976,-1.363,15.349,6.185,4.217,13.925,9.778,-4.678,6.465,6.481,15.271,3.035,6.552
Fri Nov 22 21:06:18 2024,75,-15.637,-15.637,-2.475,-2.475,-4.939,-1.267,15.372,6.200,4.263,13.857,9.823,-4.624,6.577,6.566,15.306,3.005,6.550
Fri Nov 22 21:06:18 2024,80,-15.705,-15.705,-2.420,-2.420,-4.922,-1.260,15.468,6.228,4.277,13.849,9.758,-4.591,6.591,6.534,15.314,2.976,6.550
Fri Nov 22 21:06:18 2024,85,-15.753,-15.753,-2.382,-2.382,-4.906,-1.250,15.542,6.251,4.290,13.838,9.710,-4.562,6.607,6.514,15.322,2.952,6.549
Fri Nov 22 21:06:18 2024,90,-15.791,-15.791,-2.367,-2.367,-4.922,-1.277,15.491,6.263,4.271,13.830,9.705,-4.550,6.558,6.498,15.318,2.911,6.488
Fri Nov 22 21:06:18 2024,95,-15.817,-15.817,-2.367,-2.367,-4.956,-1.324,15.367,6.265,4.234,13.824,9.727,-4.547,6.476,6.485,15.307,2.862,6.397
Fri Nov 22 21:06:18 2024,100,-15.845,-15.845,-2.363,-2.363,-4.982,-1.364,15.271,6.270,4.204,13.817,9.741,-4.542,6.409,6.473,15.300,2.819,6.321
Fri Nov 22 21:06:18 2024,105,-15.894,-15.894,-2.327,-2.327,-4.936,-1.373,15.231,6.246,4.225,13.749,9.672,-4.632,6.139,6.301,15.183,2.814,6.219
Fri Nov 22 21:06:18 2024,110,-15.932,-15.932,-2.302,-2.302,-4.913,-1.388,15.184,6.231,4.232,13.704,9.631,-4.690,5.950,6.189,15.106,2.798,6.136
Fri Nov 22 21:06:18 2024,115,-15.930,-15.930,-2.342,-2.342,-4.943,-1.388,15.228,6.300,4.225,13.655,9.640,-4.686,5.952,6.216,15.124,2.752,6.120
Fri Nov 22 21:06:18 2024,120,-15.901,-15.901,-2.427,-2.427,-5.011,-1.376,15.334,6.428,4.208,13.604,9.688,-4.638,6.089,6.344,15.210,2.686,6.153
Fri Nov 22 21:06:18 2024,125,-15.905,-15.905,-2.433,-2.433,-5.024,-1.392,15.360,6.471,4.200,13.596,9.693,-4.641,6.113,6.379,15.243,2.656,6.166
Fri Nov 22 21:06:18 2024,130,-15.948,-15.948,-2.330,-2.330,-4.976,-1.457,15.316,6.438,4.191,13.664,9.664,-4.701,6.072,6.364,15.270,2.656,6.202
Fri Nov 22 21:06:18 2024,135,-15.970,-15.970,-2.282,-2.282,-4.956,-1.493,15.302,6.437,4.184,13.695,9.651,-4.732,6.060,6.366,15.294,2.646,6.224
Fri Nov 22 21:06:18 2024,140,-15.875,-15.875,-2.439,-2.439,-5.149,-1.522,15.421,6.432,4.184,13.859,9.681,-4.718,6.228,6.366,15.286,2.639,6.088
Fri Nov 22 21:06:18 2024,145,-15.820,-15.820,-2.527,-2.527,-5.265,-1.548,15.492,6.428,4.183,13.967,9.697,-4.716,6.330,6.367,15.285,2.633,6.008
Fri Nov 22 21:06:18 2024,150,-15.821,-15.821,-2.517,-2.517,-5.262,-1.510,15.633,6.522,4.221,13.979,9.732,-4.685,6.515,6.426,15.335,2.685,6.113
Fri Nov 22 21:06:18 2024,155,-15.832,-15.832,-2.492,-2.492,-5.240,-1.462,15.782,6.630,4.264,13.977,9.767,-4.651,6.706,6.494,15.392,2.744,6.243
Fri Nov 22 21:06:18 2024,160,-15.835,-15.835,-2.481,-2.481,-5.233,-1.433,15.887,6.701,4.292,13.983,9.792,-4.628,6.842,6.539,15.429,2.781,6.325
Fri Nov 22 21:06:18 2024,165,-15.821,-15.821,-2.487,-2.487,-5.188,-1.445,15.664,6.682,4.322,13.945,9.861,-4.592,6.773,6.585,15.471,2.690,6.237
Fri Nov 22 21:06:18 2024,170,-15.817,-15.817,-2.485,-2.485,-5.165,-1.440,15.599,6.698,4.345,13.930,9.901,-4.568,6.788,6.621,15.503,2.661,6.225
Fri Nov 22 21:06:18 2024,175,-15.805,-15.805,-2.497,-2.497,-5.204,-1.410,15.632,6.675,4.354,13.909,9.855,-4.607,6.712,6.560,15.509,2.648,6.204
Fri Nov 22 21:06:18 2024,180,-15.793,-15.793,-2.509,-2.509,-5.244,-1.381,15.665,6.652,4.363,13.887,9.808,-4.646,6.636,6.500,15.515,2.634,6.183
Fri Nov 22 21:06:18 2024,185,-15.781,-15.781,-2.521,-2.521,-5.283,-1.351,15.698,6.629,4.372,13.866,9.762,-4.685,6.561,6.439,15.520,2.621,6.163
Fri Nov 22 21:06:18 2024,190,-15.773,-15.773,-2.523,-2.523,-5.308,-1.326,15.723,6.612,4.379,13.848,9.725,-4.717,6.500,6.392,15.524,2.610,6.147
Fri Nov 22 21:06:18 2024,195,-15.778,-15.778,-2.481,-2.481,-5.274,-1.320,15.718,6.624,4.379,13.843,9.722,-4.721,6.498,6.396,15.522,2.608,6.154
Fri Nov 22 21:06:18 2024,200,-15.783,-15.783,-2.439,-2.439,-5.240,-1.315,15.713,6.635,4.379,13.837,9.720,-4.724,6.496,6.399,15.519,2.607,6.161
Fri Nov 22 21:06:18 2024,205,-15.788,-15.788,-2.397,-2.397,-5.206,-1.309,15.708,6.646,4.378,13.832,9.718,-4.728,6.494,6.403,15.516,2.606,6.167
Fri Nov 22 21:06:18 2024,210,-15.793,-15.793,-2.355,-2.355,-5.172,-1.303,15.703,6.657,4.378,13.826,9.716,-4.732,6.493,6.407,15.513,2.604,6.174
Fri Nov 22 21:06:18 2024,215,-15.798,-15.798,-2.313,-2.313,-5.138,-1.298,15.698,6.669,4.378,13.821,9.714,-4.736,6.491,6.411,15.511,2.603,6.181
Fri Nov 22 21:06:18 2024,220,-15.803,-15.803,-2.271,-2.271,-5.104,-1.292,15.693,6.680,4.378,13.816,9.712,-4.739,6.489,6.415,15.508,2.602,6.187
Fri Nov 22 21:06:18 2024,225,-15.807,-15.807,-2.230,-2.230,-5.070,-1.286,15.688,6.691,4.378,13.810,9.710,-4.743,6.487,6.419,15.505,2.601,6.194
Fri Nov 22 21:06:18 2024,230,-15.812,-15.812,-2.188,-2.188,-5.036,-1.281,15.683,6.702,4.378,13.805,9.708,-4.747,6.486,6.422,15.502,2.599,6.201
Fri Nov 22 21:06:18 2024,235,-15.817,-15.817,-2.146,-2.146,-5.002,-1.275,15.678,6.714,4.377,13.800,9.706,-4.751,6.484,6.426,15.499,2.598,6.207
Fri Nov 22 21:06:18 2024,240,-15.822,-15.822,-2.104,-2.104,-4.968,-1.270,15.673,6.725,4.377,13.794,9.704,-4.754,6.482,6.430,15.497,2.597,6.214
Fri Nov 22 21:06:18 2024,245,-15.827,-15.827,-2.062,-2.062,-4.934,-1.264,15.668,6.736,4.377,13.789,9.702,-4.758,6.480,6.434,15.494,2.595,6.221
Fri Nov 22 21:06:18 2024,250,-15.832,-15.832,-2.020,-2.020,-4.900,-1.258,15.663,6.747,4.377,13.784,9.699,-4.762,6.478,6.438,15.491,2.594,6.228
Fri Nov 22 21:06:18 2024,255,-15.837,-15.837,-1.978,-1.978,-4.866,-1.253,15.658,6.759,4.377,13.778,9.697,-4.766,6.477,6.442,15.488,2.593,6.234
Fri Nov 22 21:06:18 2024,260,-15.842,-15.842,-1.937,-1.937,-4.833,-1.247,15.653,6.770,4.376,13.773,9.695,-4.770,6.475,6.445,15.486,2.591,6.241
Fri Nov 22 21:06:18 2024,265,-15.847,-15.847,-1.895,-1.895,-4.799,-1.241,15.648,6.781,4.376,13.768,9.693,-4.773,6.473,6.449,15.483,2.590,6.248
Fri Nov 22 21:06:18 2024,270,-15.852,-15.852,-1.853,-1.853,-4.765,-1.236,15.643,6.792,4.376,13.762,9.691,-4.777,6.471,6.453,15.480,2.589,6.254
Fri Nov 22 21:06:18 2024,275,-15.857,-15.857,-1.811,-1.811,-4.731,-1.230,15.638,6.804,4.376,13.757,9.689,-4.781,6.470,6.457,15.477,2.587,6.261
Fri Nov 22 21:06:18 2024,280,-15.862,-15.862,-1.769,-1.769,-4.697,-1.224,15.633,6.815,4.376,13.751,9.687,-4.785,6.468,6.461,15.474,2.586,6.268
Fri Nov 22 21:06:18 2024,285,-15.867,-15.867,-1.727,-1.727,-4.663,-1.219,15.628,6.826,4.376,13.746,9.685,-4.788,6.466,6.465,15.472,2.585,6.274
Fri Nov 22 21:06:18 2024,290,-15.872,-15.872,-1.685,-1.685,-4.629,-1.213,15.623,6.837,4.375,13.741,9.683,-4.792,6.464,6.468,15.469,2.584,6.281
Fri Nov 22 21:06:18 2024,295,-15.876,-15.876,-1.644,-1.644,-4.595,-1.207,15.618,6.849,4.375,13.735,9.681,-4.796,6.463,6.472,15.466,2.582,6.288
Fri Nov 22 21:06:18 2024,300,-15.881,-15.881,-1.602,-1.602,-4.561,-1.202,15.613,6.860,4.375,13.730,9.679,-4.800,6.461,6.476,15.463,2.581,6.294
Fri Nov 22 21:06:18 2024,305,-15.886,-15.886,-1.560,-1.560,-4.527,-1.196,15.608,6.871,4.375,13.725,9.676,-4.804,6.459,6.480,15.461,2.580,6.301
Fri Nov 22 21:06:18 2024,310,-15.891,-15.891,-1.518,-1.518,-4.493,-1.191,15.603,6.883,4.375,13.719,9.674,-4.807,6.457,6.484,15.458,2.578,6.308
Fri Nov 22 21:06:18 2024,315,-15.896,-15.896,-1.476,-1.476,-4.459,-1.185,15.598,6.894,4.374,13.714,9.672,-4.811,6.455,6.488,15.455,2.577,6.314
Fri Nov 22 21:06:18 2024,320,-15.901,-15.901,-1.434,-1.434,-4.425,-1.179,15.593,6.905,4.374,13.709,9.670,-4.815,6.454,6.491,15.452,2.576,6.321
Fri Nov 22 21:06:18 2024,325,-15.906,-15.906,-1.392,-1.392,-4.391,-1.174,15.588,6.916,4.374,13.703,9.668,-4.819,6.452,6.495,15.449,2.574,6.328
Fri Nov 22 21:06:18 2024,330,-15.911,-15.911,-1.350,-1.350,-4.357,-1.168,15.583,6.928,4.374,13.698,9.666,-4.822,6.450,6.499,15.447,2.573,6.334
Fri Nov 22 21:06:18 2024,335,-15.916,-15.916,-1.309,-1.309,-4.323,-1.162,15.578,6.939,4.374,13.692,9.664,-4.826,6.448,6.503,15.444,2.572,6.341
Fri Nov 22 21:06:18 2024,340,-15.921,-15.921,-1.267,-1.267,-4.289,-1.157,15.573,6.950,4.374,13.687,9.662,-4.830,6.447,6.507,15.441,2.570,6.348
Fri Nov 22 21:06:18 2024,345,-15.926,-15.926,-1.225,-1.225,-4.255,-1.151,15.568,6.961,4.373,13.682,9.660,-4.834,6.445,6.511,15.438,2.569,6.354
Fri Nov 22 21:06:18 2024,350,-15.931,-15.931,-1.183,-1.183,-4.221,-1.145,15.563,6.973,4.373,13.676,9.658,-4.838,6.443,6.514,15.436,2.568,6.361
Fri Nov 22 21:06:18 2024,355,-15.936,-15.936,-1.141,-1.141,-4.187,-1.140,15.558,6.984,4.373,13.671,9.656,-4.841,6.441,6.518,15.433,2.567,6.368
Fri Nov 22 21:06:18 2024,360,-15.941,-15.941,-1.099,-1.099,-4.153,-1.134,15.553,6.995,4.373,13.666,9.653,-4.845,6.440,6.522,15.430,2.565,6.375
Fri Nov 22 21:06:18 2024,365,-15.945,-15.945,-1.057,-1.057,-4.119,-1.129,15.548,7.006,4.373,13.660,9.651,-4.849,6.438,6.526,15.427,2.564,6.381
Fri Nov 22 21:06:18 2024,370,-15.950,-15.950,-1.016,-1.016,-4.085,-1.123,15.543,7.018,4.372,13.655,9.649,-4.853,6.436,6.530,15.424,2.563,6.388
Fri Nov 22 21:06:18 2024,375,-15.955,-15.955,-0.974,-0.974,-4.051,-1.117,15.538,7.029,4.372,13.650,9.647,-4.856,6.434,6.534,15.422,2.561,6.395
Fri Nov 22 21:06:18 2024,380,-15.960,-15.960,-0.932,-0.932,-4.017,-1.112,15.533,7.040,4.372,13.644,9.645,-4.860,6.433,6.537,15.419,2.560,6.401
Fri Nov 22 21:06:18 2024,385,-15.965,-15.965,-0.890,-0.890,-3.983,-1.106,15.528,7.051,4.372,13.639,9.643,-4.864,6.431,6.541,15.416,2.559,6.408
Fri Nov 22 21:06:18 2024,390,-15.970,-15.970,-0.848,-0.848,-3.949,-1.100,15.523,7.063,4.372,13.634,9.641,-4.868,6.429,6.545,15.413,2.557,6.415
Fri Nov 22 21:06:18 2024,395,-15.975,-15.975,-0.806,-0.806,-3.915,-1.095,15.518,7.074,4.372,13.628,9.639,-4.871,6.427,6.549,15.411,2.556,6.421
Fri Nov 22 21:06:18 2024,400,-15.980,-15.980,-0.764,-0.764,-3.881,-1.089,15.513,7.085,4.371,13.623,9.637,-4.875,6.425,6.553,15.408,2.555,6.428
Fri Nov 22 21:06:18 2024,405,-15.985,-15.985,-0.723,-0.723,-3.847,-1.083,15.508,7.097,4.371,13.617,9.635,-4.879,6.424,6.557,15.405,2.553,6.435
Fri Nov 22 21:06:18 2024,410,-15.990,-15.990,-0.681,-0.681,-3.813,-1.078,15.503,7.108,4.371,13.612,9.633,-4.883,6.422,6.560,15.402,2.552,6.441
Fri Nov 22 21:06:18 2024,415,-15.995,-15.995,-0.639,-0.639,-3.779,-1.072,15.498,7.119,4.371,13.607,9.630,-4.887,6.420,6.564,15.400,2.551,6.448
Fri Nov 22 21:06:18 2024,420,-16.000,-16.000,-0.597,-0.597,-3.745,-1.067,15.493,7.130,4.371,13.601,9.628,-4.890,6.418,6.568,15.397,2.549,6.455
Fri Nov 22 21:06:18 2024,425,-16.005,-16.005,-0.555,-0.555,-3.711,-1.061,15.488,7.142,4.370,13.596,9.626,-4.894,6.417,6.572,15.394,2.548,6.461
Fri Nov 22 21:06:18 2024,430,-16.010,-16.010,-0.513,-0.513,-3.677,-1.055,15.483,7.153,4.370,13.591,9.624,-4.898,6.415,6.576,15.391,2.547,6.468
Fri Nov 22 21:06:18 2024,435,-16.014,-16.014,-0.471,-0.471,-3.643,-1.050,15.478,7.164,4.370,13.585,9.622,-4.902,6.413,6.580,15.388,2.546,6.475
Fri Nov 22 21:06:18 2024,440,-16.019,-16.019,-0.429,-0.429,-3.609,-1.044,15.473,7.175,4.370,13.580,9.620,-4.905,6.411,6.583,15.386,2.544,6.481
Fri Nov 22 21:06:18 2024,445,-16.024,-16.024,-0.388,-0.388,-3.575,-1.038,15.468,7.187,4.370,13.575,9.618,-4.909,6.410,6.587,15.383,2.543,6.488
Fri Nov 22 21:06:18 2024,450,-16.029,-16.029,-0.346,-0.346,-3.541,-1.033,15.463,7.198,4.370,13.569,9.616,-4.913,6.408,6.591,15.380,2.542,6.495
Fri Nov 22 21:06:18 2024,455,-16.034,-16.034,-0.304,-0.304,-3.507,-1.027,15.458,7.209,4.369,13.564,9.614,-4.917,6.406,6.595,15.377,2.540,6.502
Fri Nov 22 21:06:18 2024,460,-16.039,-16.039,-0.262,-0.262,-3.473,-1.021,15.453,7.220,4.369,13.558,9.612,-4.921,6.404,6.599,15.375,2.539,6.508
Fri Nov 22 21:06:18 2024,465,-16.044,-16.044,-0.220,-0.220,-3.439,-1.016,15.448,7.232,4.369,13.553,9.610,-4.924,6.402,6.603,15.372,2.538,6.515
Fri Nov 22 21:06:18 2024,470,-16.049,-16.049,-0.178,-0.178,-3.405,-1.010,15.443,7.243,4.369,13.548,9.607,-4.928,6.401,6.606,15.369,2.536,6.522
Fri Nov 22 21:06:18 2024,475,-16.054,-16.054,-0.136,-0.136,-3.371,-1.005,15.438,7.254,4.369,13.542,9.605,-4.932,6.399,6.610,15.366,2.535,6.528
Fri Nov 22 21:06:18 2024,480,-16.059,-16.059,-0.095,-0.095,-3.337,-0.999,15.433,7.265,4.369,13.537,9.603,-4.936,6.397,6.614,15.363,2.534,6.535
Fri Nov 22 21:06:18 2024,485,-16.064,-16.064,-0.053,-0.053,-3.303,-0.993,15.428,7.277,4.368,13.532,9.601,-4.939,6.395,6.618,15.361,2.532,6.542
Fri Nov 22 21:06:18 2024,490,-16.069,-16.069,-0.011,-0.011,-3.270,-0.988,15.423,7.288,4.368,13.526,9.599,-4.943,6.394,6.622,15.358,2.531,6.548
Fri Nov 22 21:06:18 2024,495,-16.074,-16.074,0.031,0.031,-3.236,-0.982,15.418,7.299,4.368,13.521,9.597,-4.947,6.392,6.626,15.355,2.530,6.555
Fri Nov 22 21:06:18 2024,500,-16.079,-16.079,0.073,0.073,-3.202,-0.976,15.413,7.310,4.368,13.516,9.595,-4.951,6.390,6.629,15.352,2.529,6.562
Fri Nov 22 21:06:18 2024,505,-16.083,-16.083,0.115,0.115,-3.168,-0.971,15.408,7.322,4.368,13.510,9.593,-4.955,6.388,6.633,15.350,2.527,6.568
Fri Nov 22 21:06:18 2024,510,-16.088,-16.088,0.157,0.157,-3.134,-0.965,15.403,7.333,4.367,13.505,9.591,-4.958,6.387,6.637,15.347,2.526,6.575
Fri Nov 22 21:06:18 2024,515,-16.093,-16.093,0.198,0.198,-3.100,-0.959,15.398,7.344,4.367,13.499,9.589,-4.962,6.385,6.641,15.344,2.525,6.582
Fri Nov 22 21:06:18 2024,520,-16.098,-16.098,0.240,0.240,-3.066,-0.954,15.393,7.356,4.367,13.494,9.587,-4.966,6.383,6.645,15.341,2.523,6.588
Fri Nov 22 21:06:18 2024,525,-16.103,-16.103,0.282,0.282,-3.032,-0.948,15.388,7.367,4.367,13.489,9.584,-4.970,6.381,6.649,15.338,2.522,6.595
Fri Nov 22 21:06:18 2024,530,-16.108,-16.108,0.324,0.324,-2.998,-0.943,15.383,7.378,4.367,13.483,9.582,-4.973,6.380,6.652,15.336,2.521,6.602
Fri Nov 22 21:06:18 2024,535,-16.113,-16.113,0.366,0.366,-2.964,-0.937,15.378,7.389,4.367,13.478,9.580,-4.977,6.378,6.656,15.333,2.519,6.608
Fri Nov 22 21:06:18 2024,540,-16.118,-16.118,0.408,0.408,-2.930,-0.931,15.373,7.401,4.366,13.473,9.578,-4.981,6.376,6.660,15.330,2.518,6.615
Fri Nov 22 21:06:18 2024,545,-16.123,-16.123,0.450,0.450,-2.896,-0.926,15.368,7.412,4.366,13.467,9.576,-4.985,6.374,6.664,15.327,2.517,6.622
Fri Nov 22 21:06:18 2024,550,-16.128,-16.128,0.492,0.492,-2.862,-0.920,15.363,7.423,4.366,13.462,9.574,-4.988,6.372,6.668,15.325,2.515,6.628
Fri Nov 22 21:06:18 2024,555,-16.133,-16.133,0.533,0.533,-2.828,-0.914,15.358,7.434,4.366,13.457,9.572,-4.992,6.371,6.672,15.322,2.514,6.635
Fri Nov 22 21:06:18 2024,560,-16.138,-16.138,0.575,0.575,-2.794,-0.909,15.353,7.446,4.366,13.451,9.570,-4.996,6.369,6.675,15.319,2.513,6.642
Fri Nov 22 21:06:18 2024,565,-16.143,-16.143,0.617,0.617,-2.760,-0.903,15.348,7.457,4.365,13.446,9.568,-5.000,6.367,6.679,15.316,2.511,6.649
Fri Nov 22 21:06:18 2024,570,-16.148,-16.148,0.659,0.659,-2.726,-0.897,15.343,7.468,4.365,13.441,9.566,-5.004,6.365,6.683,15.313,2.510,6.655
Fri Nov 22 21:06:18 2024,575,-16.152,-16.152,0.701,0.701,-2.692,-0.892,15.338,7.479,4.365,13.435,9.564,-5.007,6.364,6.687,15.311,2.509,6.662
Fri Nov 22 21:06:18 2024,580,-16.157,-16.157,0.743,0.743,-2.658,-0.886,15.333,7.491,4.365,13.430,9.561,-5.011,6.362,6.691,15.308,2.508,6.669
Fri Nov 22 21:06:18 2024,585,-16.162,-16.162,0.785,0.785,-2.624,-0.881,15.328,7.502,4.365,13.424,9.559,-5.015,6.360,6.695,15.305,2.506,6.675
Fri Nov 22 21:06:18 2024,590,-16.167,-16.167,0.826,0.826,-2.590,-0.875,15.323,7.513,4.365,13.419,9.557,-5.019,6.358,6.698,15.302,2.505,6.682
Fri Nov 22 21:06:18 2024,595,-16.172,-16.172,0.868,0.868,-2.556,-0.869,15.318,7.524,4.364,13.414,9.555,-5.022,6.357,6.702,15.300,2.504,6.689
Fri Nov 22 21:06:18 2024,600,-16.177,-16.177,0.910,0.910,-2.522,-0.864,15.313,7.536,4.364,13.408,9.553,-5.026,6.355,6.706,15.297,2.502,6.695
Fri Nov 22 21:06:18 2024,605,-16.182,-16.182,0.952,0.952,-2.488,-0.858,15.308,7.547,4.364,13.403,9.551,-5.030,6.353,6.710,15.294,2.501,6.702
Fri Nov 22 21:06:18 2024,610,-16.216,-16.216,0.907,0.907,-2.435,-0.844,15.055,7.611,4.208,13.274,9.662,-5.074,6.171,6.780,15.209,2.638,6.892
Fri Nov 22 21:06:18 2024,615,-16.219,-16.219,0.882,0.882,-2.411,-0.839,14.927,7.634,4.130,13.206,9.695,-5.113,6.073,6.798,15.162,2.704,6.972
Fri Nov 22 21:06:18 2024,620,-16.222,-16.222,0.866,0.866,-2.397,-0.836,14.844,7.648,4.081,13.161,9.715,-5.137,6.011,6.809,15.131,2.748,7.023
Fri Nov 22 21:06:18 2024,625,-16.226,-16.226,0.857,0.857,-2.389,-0.834,14.798,7.656,4.053,13.135,9.726,-5.150,5.977,6.815,15.114,2.772,7.051
Fri Nov 22 21:06:18 2024,630,-16.228,-16.228,0.852,0.852,-2.385,-0.833,14.776,7.660,4.040,13.124,9.732,-5.156,5.960,6.818,15.106,2.784,7.064
Fri Nov 22 21:06:18 2024,635,-16.190,-16.190,0.742,0.742,-2.672,-0.911,15.140,7.595,4.066,13.625,9.746,-4.936,6.610,6.962,15.188,2.794,7.016
Fri Nov 22 21:06:18 2024,640,-16.192,-16.192,0.738,0.738,-2.680,-0.913,15.146,7.595,4.064,13.638,9.748,-4.930,6.625,6.968,15.188,2.799,7.018
Fri Nov 22 21:06:18 2024,645,-16.196,-16.196,0.737,0.737,-2.683,-0.914,15.147,7.595,4.063,13.641,9.749,-4.929,6.628,6.970,15.189,2.800,7.018
Fri Nov 22 21:06:18 2024,650,-16.200,-16.200,0.737,0.737,-2.685,-0.914,15.146,7.597,4.064,13.641,9.750,-4.928,6.629,6.970,15.189,2.802,7.017
Fri Nov 22 21:06:18 2024,655,-16.204,-16.204,0.737,0.737,-2.685,-0.914,15.146,7.597,4.064,13.641,9.750,-4.928,6.628,6.971,15.189,2.803,7.017
Fri Nov 22 21:06:18 2024,660,-16.207,-16.207,0.737,0.737,-2.686,-0.914,15.145,7.599,4.065,13.641,9.751,-4.928,6.627,6.971,15.189,2.804,7.016
Fri Nov 22 21:06:18 2024,665,-16.211,-16.211,0.737,0.737,-2.686,-0.915,15.144,7.599,4.065,13.641,9.751,-4.928,6.627,6.971,15.189,2.805,7.015
Fri Nov 22 21:06:18 2024,670,-16.215,-16.215,0.738,0.738,-2.687,-0.915,15.144,7.600,4.066,13.640,9.752,-4.928,6.626,6.971,15.189,2.806,7.015
Fri Nov 22 21:06:18 2024,675,-16.219,-16.219,0.738,0.738,-2.688,-0.915,15.143,7.601,4.066,13.640,9.752,-4.928,6.626,6.972,15.189,2.807,7.014
Fri Nov 22 21:06:18 2024,680,-16.223,-16.223,0.738,0.738,-2.689,-0.915,15.142,7.602,4.067,13.640,9.753,-4.928,6.625,6.972,15.189,2.808,7.013
Fri Nov 22 21:06:18 2024,685,-16.227,-16.227,0.738,0.738,-2.690,-0.915,15.141,7.604,4.068,13.640,9.754,-4.928,6.624,6.972,15.189,2.810,7.012
Fri Nov 22 21:06:18 2024,690,-16.223,-16.223,0.909,0.909,-2.459,-0.952,14.918,7.808,3.846,13.436,9.732,-5.237,6.402,6.982,15.105,2.929,7.133
Fri Nov 22 21:06:18 2024,695,-16.225,-16.225,0.909,0.909,-2.460,-0.952,14.917,7.809,3.846,13.436,9.732,-5.237,6.401,6.982,15.105,2.930,7.132
Fri Nov 22 21:06:18 2024,700,-15.817,-15.817,0.319,-0.319,-2.938,-0.882,15.547,6.950,3.150,13.775,9.225,-5.683,7.184,6.551,14.876,3.890,7.183
Fri Nov 22 21:06:18 2024,705,-15.789,-15.789,0.344,-0.344,-2.974,-0.878,15.593,6.886,3.087,13.796,9.183,-5.726,7.243,6.519,14.855,3.966,7.191
Fri Nov 22 21:06:18 2024,710,-15.766,-15.766,0.380,-0.380,-3.006,-0.874,15.633,6.831,3.032,13.814,9.146,-5.764,7.294,6.492,14.837,4.031,7.198
Fri Nov 22 21:06:18 2024,715,-16.594,-16.594,1.092,1.092,-2.497,-1.220,14.941,7.896,3.725,13.692,9.712,-5.141,6.347,6.880,14.827,3.399,7.594
Fri Nov 22 21:06:18 2024,720,-16.342,-16.342,0.673,0.673,-2.669,-1.092,15.068,7.644,3.558,13.755,9.584,-5.266,6.887,6.935,15.002,3.527,7.613
Fri Nov 22 21:06:18 2024,725,-16.382,-16.382,0.661,0.661,-2.677,-1.089,14.994,7.639,3.555,13.727,9.555,-5.277,6.907,6.947,14.993,3.511,7.588
Fri Nov 22 21:06:18 2024,730,-16.478,-16.478,0.652,0.652,-2.688,-1.090,14.846,7.594,3.530,13.650,9.465,-5.331,6.844,6.891,14.894,3.500,7.454
Fri Nov 22 21:06:18 2024,735,-16.600,-16.600,0.681,0.681,-2.640,-1.066,14.679,7.512,3.501,13.558,9.368,-5.386,6.695,6.796,14.788,3.519,7.332
Fri Nov 22 21:06:18 2024,740,-16.659,-16.659,0.721,0.721,-2.565,-1.028,14.597,7.472,3.501,13.526,9.350,-5.384,6.623,6.775,14.800,3.548,7.359
Fri Nov 22 21:06:18 2024,745,-16.755,-16.755,0.719,0.719,-2.573,-0.966,14.664,7.497,3.557,13.529,9.353,-5.336,6.700,6.786,14.867,3.539,7.406
Fri Nov 22 21:06:18 2024,750,-16.861,-16.861,0.676,0.676,-2.664,-0.902,14.858,7.579,3.649,13.563,9.376,-5.257,6.899,6.824,14.966,3.493,7.457
Fri Nov 22 21:06:18 2024,755,-16.955,-16.955,0.638,0.638,-2.744,-0.845,15.029,7.652,3.732,13.591,9.397,-5.187,7.076,6.858,15.054,3.452,7.502
Fri Nov 22 21:06:18 2024,760,-16.990,-16.990,0.618,0.618,-2.725,-0.881,14.976,7.630,3.696,13.650,9.468,-5.231,6.976,6.920,15.028,3.592,7.722
Fri Nov 22 21:06:18 2024,765,-17.023,-17.023,0.600,0.600,-2.707,-0.914,14.926,7.608,3.664,13.706,9.536,-5.274,6.880,6.978,15.002,3.723,7.934
Fri Nov 22 21:06:18 2024,770,-17.068,-17.068,0.598,0.598,-2.699,-0.901,14.946,7.630,3.698,13.718,9.534,-5.255,6.942,6.980,14.980,3.758,7.906
Fri Nov 22 21:06:18 2024,775,-17.126,-17.126,0.602,0.602,-2.693,-0.868,14.995,7.671,3.761,13.714,9.507,-5.213,7.071,6.963,14.955,3.767,7.791
Fri Nov 22 21:06:18 2024,780,-17.154,-17.154,0.600,0.600,-2.702,-0.851,15.026,7.684,3.792,13.725,9.498,-5.193,7.130,6.958,14.958,3.766,7.762
Fri Nov 22 21:06:18 2024,785,-17.153,-17.153,0.582,0.582,-2.754,-0.848,15.058,7.651,3.793,13.781,9.518,-5.200,7.111,6.977,15.021,3.745,7.879
Fri Nov 22 21:06:18 2024,790,-17.165,-17.165,0.570,0.570,-2.782,-0.845,15.074,7.633,3.798,13.817,9.537,-5.198,7.097,6.991,15.044,3.741,7.940
Fri Nov 22 21:06:18 2024,795,-17.213,-17.213,0.556,0.556,-2.784,-0.839,15.062,7.629,3.812,13.846,9.581,-5.178,7.062,7.014,15.000,3.772,7.945
Fri Nov 22 21:06:18 2024,800,-17.269,-17.269,0.543,0.543,-2.781,-0.833,15.043,7.628,3.827,13.873,9.630,-5.154,7.021,7.038,14.943,3.809,7.939
Fri Nov 22 21:06:18 2024,805,-17.305,-17.305,0.542,0.542,-2.778,-0.794,15.038,7.627,3.858,13.856,9.629,-5.122,7.028,7.037,14.977,3.779,7.938
Fri Nov 22 21:06:18 2024,810,-17.332,-17.332,0.547,0.547,-2.776,-0.746,15.037,7.627,3.893,13.823,9.610,-5.088,7.051,7.027,15.043,3.726,7.940
Fri Nov 22 21:06:18 2024,815,-17.345,-17.345,0.534,0.534,-2.781,-0.724,15.039,7.631,3.910,13.806,9.605,-5.071,7.067,7.028,15.074,3.710,7.958
Fri Nov 22 21:06:18 2024,820,-17.329,-17.329,0.466,0.466,-2.809,-0.750,15.051,7.647,3.898,13.815,9.635,-5.084,7.078,7.060,15.040,3.777,8.031
Fri Nov 22 21:06:18 2024,825,-17.318,-17.318,0.419,0.419,-2.829,-0.767,15.060,7.660,3.890,13.819,9.657,-5.091,7.087,7.084,15.017,3.823,8.084
Fri Nov 22 21:06:18 2024,830,-17.436,-17.436,0.437,0.437,-2.849,-0.801,15.018,7.665,3.876,13.884,9.673,-5.136,7.049,7.085,15.017,3.809,8.080
Fri Nov 22 21:06:18 2024,835,-17.537,-17.537,0.453,0.453,-2.865,-0.829,14.982,7.669,3.865,13.938,9.687,-5.173,7.017,7.085,15.018,3.796,8.075
Fri Nov 22 21:06:18 2024,840,-17.590,-17.590,0.473,0.473,-2.834,-0.775,14.996,7.732,3.932,13.876,9.705,-5.132,7.016,7.068,15.017,3.780,8.011
Fri Nov 22 21:06:18 2024,845,-17.635,-17.635,0.497,0.497,-2.783,-0.684,15.028,7.825,4.036,13.764,9.728,-5.055,7.024,7.044,15.016,3.759,7.917
Fri Nov 22 21:06:18 2024,850,-17.693,-17.693,0.493,0.493,-2.776,-0.630,15.071,7.855,4.094,13.695,9.725,-5.017,7.033,7.024,15.038,3.731,7.878
Fri Nov 22 21:06:18 2024,855,-17.762,-17.762,0.452,0.452,-2.834,-0.634,15.129,7.791,4.080,13.696,9.687,-5.034,7.038,7.015,15.090,3.696,7.921
Fri Nov 22 21:06:18 2024,860,-17.823,-17.823,0.416,0.416,-2.884,-0.636,15.179,7.735,4.068,13.697,9.653,-5.049,7.044,7.007,15.136,3.665,7.958
Fri Nov 22 21:06:18 2024,865,-17.895,-17.895,0.412,0.412,-2.933,-0.644,15.188,7.780,4.083,13.775,9.696,-5.016,7.136,7.054,15.209,3.619,8.015
Fri Nov 22 21:06:18 2024,870,-17.964,-17.964,0.405,0.405,-2.981,-0.652,15.199,7.818,4.097,13.845,9.733,-4.986,7.221,7.097,15.279,3.576,8.068
Fri Nov 22 21:06:18 2024,875,-17.978,-17.978,0.377,0.377,-3.039,-0.651,15.227,7.813,4.100,13.897,9.751,-4.984,7.302,7.138,15.335,3.559,8.124
Fri Nov 22 21:06:18 2024,880,-17.944,-17.944,0.338,0.338,-3.102,-0.645,15.267,7.771,4.095,13.928,9.750,-5.006,7.373,7.176,15.375,3.566,8.178
Fri Nov 22 21:06:18 2024,885,-17.922,-17.922,0.315,0.315,-3.161,-0.640,15.302,7.740,4.091,13.961,9.753,-5.021,7.441,7.211,15.413,3.568,8.228
Fri Nov 22 21:06:18 2024,890,-17.898,-17.898,0.314,0.314,-3.092,-0.675,15.109,7.695,4.125,13.905,9.734,-5.011,7.270,7.138,15.299,3.651,8.194
Fri Nov 22 21:06:18 2024,895,-17.876,-17.876,0.308,0.308,-3.058,-0.699,14.981,7.655,4.148,13.874,9.722,-5.008,7.166,7.095,15.228,3.710,8.182
Fri Nov 22 21:06:18 2024,900,-17.891,-17.891,0.291,-0.291,-3.077,-0.714,15.040,7.715,4.136,13.896,9.778,-5.037,7.212,7.157,15.251,3.696,8.220
Fri Nov 22 21:06:18 2024,905,-17.905,-17.905,0.278,-0.278,-3.094,-0.728,15.090,7.768,4.127,13.916,9.828,-5.063,7.251,7.212,15.270,3.685,8.255
Fri Nov 22 21:06:18 2024,910,-17.939,-17.939,0.278,-0.278,-3.080,-0.675,15.090,7.767,4.184,13.878,9.851,-5.039,7.210,7.222,15.299,3.629,8.258
Fri Nov 22 21:06:18 2024,915,-17.970,-17.970,0.285,-0.093,-3.058,-0.613,15.071,7.745,4.249,13.831,9.855,-5.003,7.150,7.212,15.322,3.574,8.247
Fri Nov 22 21:06:18 2024,920,-18.005,-18.005,0.295,0.295,-3.034,-0.541,15.047,7.720,4.323,13.775,9.861,-4.962,7.081,7.199,15.349,3.510,8.234
Fri Nov 22 21:06:18 2024,925,-17.848,-17.848,0.287,-0.287,-3.031,-0.533,14.912,7.725,4.341,13.673,9.889,-4.982,7.099,7.258,15.285,3.568,8.235
Fri Nov 22 21:06:18 2024,930,-17.728,-17.728,0.295,-0.295,-3.023,-0.511,14.798,7.724,4.371,13.578,9.912,-4.989,7.099,7.304,15.239,3.601,8.233
Fri Nov 22 21:06:18 2024,935,-17.779,-17.779,0.305,-0.305,-2.989,-0.559,14.799,7.734,4.272,13.639,9.879,-5.057,7.068,7.288,15.242,3.632,8.294
Fri Nov 22 21:06:18 2024,940,-17.821,-17.821,0.325,0.325,-2.958,-0.600,14.798,7.742,4.186,13.691,9.849,-5.118,7.039,7.276,15.245,3.659,8.348
Fri Nov 22 21:06:18 2024,945,-17.822,-17.822,0.308,-0.308,-3.010,-0.605,14.792,7.731,4.194,13.668,9.829,-5.141,6.952,7.216,15.267,3.601,8.257
Fri Nov 22 21:06:18 2024,950,-17.803,-17.803,0.282,-0.282,-3.090,-0.592,14.786,7.713,4.244,13.616,9.817,-5.142,6.852,7.146,15.293,3.512,8.117
Fri Nov 22 21:06:18 2024,955,-17.798,-17.798,0.266,-0.266,-3.152,-0.577,14.789,7.715,4.297,13.567,9.819,-5.137,6.770,7.103,15.315,3.440,8.032
Fri Nov 22 21:06:18 2024,960,-17.842,-17.842,0.268,-0.268,-3.115,-0.559,14.820,7.789,4.332,13.558,9.868,-5.106,6.795,7.178,15.308,3.473,8.190
Fri Nov 22 21:06:18 2024,965,-17.880,-17.880,0.268,-0.268,-3.087,-0.543,14.847,7.852,4.365,13.547,9.911,-5.079,6.812,7.241,15.303,3.497,8.322
Fri Nov 22 21:06:18 2024,970,-17.844,-17.844,0.278,-0.278,-3.160,-0.516,14.898,7.784,4.396,13.558,9.851,-5.054,6.832,7.162,15.303,3.479,8.183
Fri Nov 22 21:06:18 2024,975,-17.806,-17.806,0.306,-0.306,-3.235,-0.490,14.945,7.712,4.424,13.569,9.789,-5.031,6.850,7.082,15.302,3.458,8.038
Fri Nov 22 21:06:18 2024,980,-17.813,-17.813,0.312,-0.312,-3.257,-0.526,14.913,7.709,4.414,13.594,9.801,-5.036,6.829,7.066,15.300,3.434,7.966
Fri Nov 22 21:06:18 2024,985,-17.850,-17.850,0.298,-0.298,-3.242,-0.603,14.828,7.755,4.376,13.627,9.863,-5.061,6.783,7.098,15.295,3.408,7.951
Fri Nov 22 21:06:18 2024,990,-17.853,-17.853,0.293,-0.293,-3.231,-0.651,14.777,7.786,4.358,13.640,9.903,-5.071,6.756,7.122,15.290,3.393,7.945
Fri Nov 22 21:06:18 2024,995,-17.728,-17.728,0.317,-0.317,-3.238,-0.602,14.839,7.774,4.400,13.585,9.868,-5.031,6.788,7.121,15.280,3.414,7.968
Fri Nov 22 21:06:19 2024,0,-17.631,-17.631,0.342,-0.342,-3.242,-0.565,14.886,7.764,4.432,13.542,9.840,-5.000,6.813,7.121,15.271,3.430,7.985
Fri Nov 22 21:06:19 2024,5,-17.642,-17.642,0.310,-0.310,-3.208,-0.546,14.910,7.738,4.444,13.520,9.785,-5.001,6.822,7.079,15.294,3.386,7.896
Fri Nov 22 21:06:19 2024,10,-17.672,-17.672,0.280,-0.280,-3.167,-0.532,14.929,7.709,4.453,13.501,9.724,-5.008,6.828,7.031,15.323,3.331,7.791
Fri Nov 22 21:06:19 2024,15,-17.686,-17.686,0.278,-0.278,-3.182,-0.536,14.964,7.703,4.437,13.555,9.731,-5.010,6.874,7.038,15.321,3.343,7.799
Fri Nov 22 21:06:19 2024,20,-17.689,-17.689,0.295,-0.295,-3.226,-0.550,15.007,7.710,4.410,13.646,9.774,-5.010,6.941,7.075,15.302,3.391,7.870
Fri Nov 22 21:06:19 2024,25,-17.693,-17.693,0.317,-0.317,-3.265,-0.562,15.043,7.716,4.386,13.724,9.812,-5.010,6.998,7.106,15.286,3.432,7.931
Fri Nov 22 21:06:19 2024,30,-17.665,-17.665,0.311,-0.311,-3.283,-0.603,15.062,7.689,4.402,13.688,9.805,-4.978,7.042,7.098,15.348,3.359,7.861
Fri Nov 22 21:06:19 2024,35,-17.645,-17.645,0.310,-0.310,-3.302,-0.636,15.081,7.669,4.409,13.674,9.805,-4.954,7.084,7.097,15.391,3.310,7.818
Fri Nov 22 21:06:19 2024,40,-17.628,-17.628,0.308,-0.308,-3.318,-0.663,15.097,7.653,4.416,13.661,9.805,-4.933,7.118,7.096,15.427,3.270,7.782
Fri Nov 22 21:06:19 2024,45,-17.621,-17.621,0.307,-0.307,-3.325,-0.675,15.104,7.646,4.419,13.655,9.805,-4.924,7.135,7.096,15.445,3.251,7.766
Fri Nov 22 21:06:19 2024,50,-17.755,-17.755,0.271,-0.271,-3.122,-0.657,15.072,7.672,4.360,13.650,9.806,-4.934,7.074,7.172,15.344,3.383,8.017
Fri Nov 22 21:06:19 2024,55,-17.788,-17.788,0.284,-0.284,-3.068,-0.662,15.068,7.673,4.346,13.644,9.806,-4.930,7.070,7.194,15.330,3.406,8.077
Fri Nov 22 21:06:19 2024,60,-17.825,-17.825,0.310,0.310,-3.008,-0.668,15.064,7.675,4.329,13.637,9.807,-4.925,7.065,7.219,15.312,3.432,8.145
Fri Nov 22 21:06:19 2024,65,-17.864,-17.864,0.305,0.305,-3.045,-0.634,15.034,7.592,4.351,13.669,9.734,-4.942,7.128,7.161,15.361,3.368,8.047
Fri Nov 22 21:06:19 2024,70,-17.897,-17.897,0.302,0.302,-3.069,-0.609,15.010,7.527,4.368,13.693,9.676,-4.954,7.177,7.116,15.400,3.318,7.973
Fri Nov 22 21:06:19 2024,75,-17.932,-17.932,0.313,0.313,-3.049,-0.593,14.952,7.518,4.382,13.612,9.659,-4.964,7.101,7.087,15.372,3.320,7.942
Fri Nov 22 21:06:19 2024,80,-17.975,-17.975,0.332,0.332,-3.004,-0.579,14.868,7.535,4.396,13.466,9.660,-4.974,6.950,7.063,15.306,3.349,7.927
Fri Nov 22 21:06:19 2024,85,-18.042,-18.042,0.344,0.344,-2.992,-0.578,14.875,7.556,4.402,13.443,9.677,-4.970,6.925,7.070,15.302,3.354,7.935
Fri Nov 22 21:06:19 2024,90,-18.190,-18.190,0.353,0.353,-3.032,-0.606,15.071,7.616,4.390,13.638,9.751,-4.932,7.114,7.152,15.407,3.326,8.008
Fri Nov 22 21:06:19 2024,95,-18.290,-18.290,0.371,0.371,-3.038,-0.615,15.172,7.643,4.394,13.732,9.790,-4.906,7.224,7.201,15.476,3.306,8.063
Fri Nov 22 21:06:19 2024,100,-18.300,-18.300,0.418,0.418,-2.972,-0.583,15.095,7.595,4.440,13.645,9.762,-4.894,7.208,7.189,15.491,3.298,8.096
Fri Nov 22 21:06:19 2024,105,-18.311,-18.311,0.471,0.471,-2.906,-0.553,15.021,7.548,4.486,13.561,9.734,-4.883,7.194,7.178,15.508,3.289,8.130
Fri Nov 22 21:06:19 2024,110,-18.384,-18.384,0.474,0.474,-2.887,-0.534,15.090,7.558,4.490,13.584,9.767,-4.894,7.135,7.164,15.523,3.265,8.111
Fri Nov 22 21:06:19 2024,115,-18.464,-18.464,0.465,0.465,-2.880,-0.520,15.183,7.579,4.485,13.628,9.810,-4.909,7.072,7.151,15.535,3.239,8.084
Fri Nov 22 21:06:19 2024,120,-18.506,-18.506,0.754,0.754,-2.643,-0.536,15.134,7.624,4.467,13.616,9.831,-4.908,6.995,7.161,15.556,3.218,8.151
Fri Nov 22 21:06:19 2024,125,-18.527,-18.527,1.323,1.323,-2.229,-0.574,14.984,7.688,4.439,13.566,9.838,-4.895,6.903,7.189,15.584,3.197,8.288
Fri Nov 22 21:06:19 2024,130,-18.547,-18.547,1.874,1.874,-1.844,-0.609,14.842,7.749,4.413,13.518,9.845,-4.883,6.815,7.216,15.611,3.177,8.416
Fri Nov 22 21:06:19 2024,135,-18.678,-18.678,3.454,3.454,-0.090,-0.775,14.630,7.992,4.316,13.529,9.888,-4.980,6.710,7.290,15.537,3.240,8.632
Fri Nov 22 21:06:19 2024,140,-18.773,-18.773,4.635,4.635,0.945,-0.897,14.463,8.171,4.245,13.532,9.919,-5.047,6.627,7.345,15.486,3.282,8.797
Fri Nov 22 21:06:19 2024,145,-18.880,-18.880,6.600,6.600,2.295,-0.857,14.058,8.459,4.218,13.255,10.007,-5.091,6.257,7.441,15.461,3.142,8.981
Fri Nov 22 21:06:19 2024,150,-18.975,-18.975,8.467,8.467,3.827,-0.789,13.658,8.728,4.203,12.947,10.094,-5.123,5.877,7.531,15.447,2.972,9.143
Fri Nov 22 21:06:19 2024,155,-19.190,-19.190,10.496,10.496,5.501,-0.764,13.313,9.038,4.176,12.720,10.186,-5.148,5.552,7.620,15.448,2.792,9.300
Fri Nov 22 21:06:19 2024,160,-19.697,-19.697,12.935,12.935,7.454,-0.841,13.104,9.452,4.112,12.698,10.286,-5.159,5.355,7.708,15.488,2.606,9.451
Fri Nov 22 21:06:19 2024,165,-20.125,-20.125,15.144,15.144,9.327,-0.898,12.897,9.814,4.058,12.650,10.376,-5.170,5.158,7.787,15.519,2.433,9.589
Fri Nov 22 21:06:19 2024,170,-20.694,-20.694,18.640,18.640,12.108,-0.955,12.864,10.172,4.001,12.661,10.320,-5.158,5.046,7.758,15.672,2.170,9.637
Fri Nov 22 21:06:19 2024,175,-21.094,-21.094,21.116,21.116,14.141,-0.995,12.836,10.425,3.961,12.667,10.284,-5.151,4.965,7.742,15.777,1.984,9.673
Fri Nov 22 21:06:19 2024,180,-21.425,-21.425,24.142,24.142,16.531,-1.187,12.554,10.450,3.887,12.714,10.203,-5.169,4.931,7.716,15.826,1.908,9.741
Fri Nov 22 21:06:19 2024,185,-21.673,-21.673,26.831,26.831,18.720,-1.392,12.238,10.388,3.818,12.765,10.124,-5.193,4.920,7.692,15.845,1.887,9.805
Fri Nov 22 21:06:19 2024,190,-22.135,-22.135,29.256,29.256,20.641,-1.411,11.878,10.281,3.857,12.704,10.127,-5.118,4.799,7.686,16.002,1.693,9.856
Fri Nov 22 21:06:19 2024,195,-22.806,22.806,30.850,30.850,21.819,-1.218,11.544,10.148,4.010,12.527,10.222,-4.947,4.575,7.700,16.283,1.347,9.880
Fri Nov 22 21:06:19 2024,200,-23.658,23.658,32.709,32.709,23.255,-1.008,11.169,10.004,4.179,12.332,10.326,-4.760,4.326,7.716,16.590,0.968,9.907
Fri Nov 22 21:06:19 2024,205,-24.644,24.644,33.709,33.709,24.003,-1.149,11.111,9.906,4.157,12.437,10.190,-4.755,4.263,7.584,16.455,1.011,9.673
Fri Nov 22 21:06:19 2024,210,-25.735,25.735,34.865,34.865,24.882,-1.263,11.023,9.803,4.154,12.517,10.071,-4.734,4.180,7.462,16.356,1.015,9.458
Fri Nov 22 21:06:19 2024,215,-26.743,26.743,35.565,35.565,25.287,-1.214,10.889,9.633,4.203,12.555,10.023,-4.722,4.118,7.402,16.278,1.054,9.337
Fri Nov 22 21:06:19 2024,220,-27.689,27.689,35.791,35.791,25.190,-0.987,10.695,9.380,4.311,12.554,10.050,-4.719,4.072,7.405,16.218,1.134,9.307
Fri Nov 22 21:06:19 2024,225,-28.683,28.683,35.740,35.740,24.929,-0.840,10.637,9.161,4.392,12.689,10.009,-4.609,4.246,7.407,16.269,1.246,9.290
Fri Nov 22 21:06:19 2024,230,-29.508,29.508,35.256,35.256,24.345,-0.735,10.700,8.983,4.454,12.917,9.933,-4.420,4.609,7.428,16.419,1.375,9.317
Fri Nov 22 21:06:19 2024,235,-30.293,30.293,34.771,34.771,23.760,-0.646,10.770,8.826,4.506,13.125,9.860,-4.244,4.956,7.450,16.563,1.482,9.347
Fri Nov 22 21:06:19 2024,240,-30.778,30.778,36.264,36.264,25.166,-0.545,10.798,8.617,4.651,12.903,9.916,-4.143,4.884,7.534,16.736,1.446,9.604
Fri Nov 22 21:06:19 2024,245,-31.390,31.390,37.580,37.580,26.373,-0.449,10.831,8.410,4.789,12.726,9.958,-4.031,4.859,7.613,16.907,1.422,9.839
Fri Nov 22 21:06:19 2024,250,-32.186,32.186,38.634,38.634,27.299,-0.374,10.566,8.307,4.856,12.282,10.006,-3.989,4.713,7.824,17.111,1.302,10.068
Fri Nov 22 21:06:19 2024,255,-32.982,32.982,39.429,39.429,27.943,-0.332,10.243,8.252,4.896,11.800,10.048,-3.974,4.549,8.046,17.299,1.171,10.264
Fri Nov 22 21:06:19 2024,260,-33.685,33.685,40.047,40.047,28.403,-0.317,9.978,8.205,4.931,11.396,10.080,-3.963,4.415,8.229,17.451,1.063,10.424
Fri Nov 22 21:06:19 2024,265,-34.755,34.755,38.726,38.726,27.770,-0.335,9.662,8.401,4.809,11.023,10.096,-4.021,4.482,8.398,17.408,1.060,10.340
Fri Nov 22 21:06:19 2024,270,-35.684,35.684,37.938,37.938,27.426,-0.349,9.384,8.526,4.738,10.660,10.114,-4.060,4.496,8.556,17.414,1.033,10.319
Fri Nov 22 21:06:19 2024,275,-36.168,36.168,37.412,37.412,27.340,0.409,9.390,8.586,4.878,10.413,10.217,-4.016,4.209,8.496,17.466,0.860,10.245
Fri Nov 22 21:06:19 2024,280,-36.647,36.647,36.923,36.923,27.255,0.555,9.381,8.644,5.000,10.183,10.307,-3.981,3.955,8.449,17.512,0.704,10.179
Fri Nov 22 21:06:19 2024,285,-37.195,37.195,36.308,36.308,27.010,0.678,9.472,8.706,5.078,10.038,10.347,-3.902,3.902,8.438,17.552,0.585,10.094
Fri Nov 22 21:06:19 2024,290,-37.818,37.818,35.593,35.593,26.678,0.799,9.607,8.776,5.147,9.914,10.373,-3.802,3.920,8.439,17.591,0.469,9.994
Fri Nov 22 21:06:19 2024,295,-38.246,38.246,34.981,34.981,26.386,0.894,9.664,8.809,5.171,9.809,10.390,-3.744,3.914,8.450,17.604,0.438,9.980
Fri Nov 22 21:06:19 2024,300,-38.482,38.482,34.163,34.163,25.988,0.985,9.566,8.772,5.098,9.672,10.401,-3.757,3.843,8.497,17.565,0.608,10.173
Fri Nov 22 21:06:19 2024,305,-38.691,38.691,33.509,33.509,25.664,1.059,9.492,8.745,5.043,9.560,10.410,-3.764,3.787,8.534,17.534,0.736,10.322
Fri Nov 22 21:06:19 2024,310,-38.938,38.938,32.467,32.467,25.036,1.227,9.587,8.645,5.014,9.561,10.387,-3.760,3.875,8.490,17.373,0.924,10.193
Fri Nov 22 21:06:19 2024,315,-39.162,39.162,31.602,31.602,24.513,1.366,9.657,8.565,4.988,9.556,10.368,-3.757,3.942,8.457,17.243,1.080,10.098
Fri Nov 22 21:06:19 2024,320,-39.330,39.330,30.747,30.747,23.984,1.460,9.722,8.584,4.946,9.449,10.398,-3.732,3.968,8.490,17.201,1.158,10.081
Fri Nov 22 21:06:19 2024,325,-39.458,39.458,29.990,29.990,23.507,1.519,9.779,8.654,4.900,9.298,10.448,-3.699,3.971,8.552,17.209,1.186,10.108
Fri Nov 22 21:06:19 2024,330,-39.586,39.586,29.264,29.264,23.094,1.541,9.791,8.694,4.824,9.216,10.510,-3.692,3.969,8.615,17.188,1.269,10.185
Fri Nov 22 21:06:19 2024,335,-39.689,39.689,28.633,28.633,22.858,1.472,9.692,8.655,4.668,9.305,10.599,-3.749,3.958,8.678,17.090,1.488,10.387
Fri Nov 22 21:06:19 2024,340,-39.779,39.779,28.004,28.004,22.582,1.429,9.639,8.633,4.541,9.363,10.676,-3.779,3.967,8.741,17.021,1.665,10.551
Fri Nov 22 21:06:19 2024,345,-39.712,39.712,27.510,27.510,22.262,1.474,9.768,8.652,4.526,9.364,10.698,-3.706,4.083,8.785,17.062,1.696,10.567
Fri Nov 22 21:06:19 2024,350,-39.619,39.619,27.033,27.033,21.922,1.537,9.938,8.680,4.533,9.353,10.710,-3.609,4.222,8.827,17.129,1.694,10.549
Fri Nov 22 21:06:19 2024,355,-39.519,39.519,26.900,26.900,21.876,1.560,9.992,8.703,4.497,9.412,10.764,-3.594,4.315,8.876,17.092,1.736,10.566
Fri Nov 22 21:06:19 2024,360,-39.405,39.405,26.855,26.855,21.914,1.572,10.018,8.728,4.441,9.501,10.842,-3.603,4.408,8.937,17.019,1.798,10.596
Fri Nov 22 21:06:19 2024,365,-39.277,39.277,26.686,26.686,21.840,1.594,10.072,8.746,4.389,9.562,10.915,-3.592,4.504,9.011,16.992,1.850,10.678
Fri Nov 22 21:06:19 2024,370,-39.130,39.130,26.327,26.327,21.587,1.626,10.167,8.750,4.346,9.573,10.977,-3.550,4.600,9.102,17.041,1.879,10.841
Fri Nov 22 21:06:19 2024,375,-38.988,38.988,25.953,25.953,21.319,1.659,10.266,8.754,4.302,9.583,11.041,-3.506,4.698,9.196,17.092,1.906,11.011
Fri Nov 22 21:06:19 2024,380,-38.800,38.800,25.690,25.690,21.185,1.668,10.247,8.800,4.280,9.540,11.113,-3.498,4.684,9.270,17.060,1.967,11.099
Fri Nov 22 21:06:19 2024,385,-38.538,38.538,25.477,25.477,21.146,1.660,10.118,8.895,4.275,9.439,11.207,-3.524,4.565,9.337,16.947,2.072,11.126
Fri Nov 22 21:06:19 2024,390,-38.295,38.295,25.297,25.297,21.112,1.666,10.042,8.937,4.238,9.379,11.240,-3.565,4.514,9.388,16.882,2.139,11.211
Fri Nov 22 21:06:19 2024,395,-38.005,38.005,25.212,25.212,21.166,1.681,9.966,8.936,4.168,9.338,11.198,-3.654,4.485,9.408,16.828,2.182,11.338
Fri Nov 22 21:06:19 2024,400,-37.788,37.788,25.125,25.125,21.190,1.691,9.907,8.944,4.117,9.301,11.179,-3.717,4.457,9.431,16.784,2.220,11.431
Fri Nov 22 21:06:19 2024,405,-37.641,37.641,24.827,24.827,20.982,1.778,10.113,9.026,4.148,9.167,11.144,-3.648,4.486,9.410,16.844,2.204,11.366
Fri Nov 22 21:06:19 2024,410,-37.491,37.491,24.581,24.581,20.825,1.847,10.259,9.090,4.162,9.058,11.114,-3.608,4.502,9.398,16.881,2.197,11.334
Fri Nov 22 21:06:19 2024,415,-37.215,37.215,24.611,24.611,20.864,1.739,10.264,9.232,4.106,9.134,11.179,-3.653,4.555,9.492,16.816,2.248,11.422
Fri Nov 22 21:06:19 2024,420,-36.929,36.929,24.632,24.632,20.898,1.630,10.274,9.380,4.048,9.208,11.245,-3.698,4.608,9.588,16.751,2.300,11.510
Fri Nov 22 21:06:19 2024,425,-36.673,36.673,24.753,24.753,21.025,1.602,10.357,9.517,4.021,9.178,11.256,-3.750,4.563,9.596,16.734,2.293,11.516
Fri Nov 22 21:06:19 2024,430,-36.364,36.364,25.016,25.016,21.288,1.644,10.544,9.689,4.013,9.036,11.213,-3.825,4.405,9.519,16.758,2.225,11.437
Fri Nov 22 21:06:19 2024,435,-36.139,36.139,25.199,25.199,21.471,1.671,10.673,9.815,4.004,8.940,11.188,-3.880,4.298,9.470,16.771,2.180,11.387
Fri Nov 22 21:06:19 2024,440,-35.799,35.799,25.550,25.550,21.630,1.710,10.898,9.867,4.004,8.962,11.040,-3.818,4.256,9.342,16.727,2.137,11.228
Fri Nov 22 21:06:19 2024,445,-35.579,35.579,25.776,25.776,21.742,1.738,11.042,9.910,4.003,8.965,10.951,-3.787,4.220,9.262,16.702,2.106,11.128
Fri Nov 22 21:06:19 2024,450,-35.485,35.485,26.102,26.102,21.993,1.635,11.209,10.100,3.910,9.031,10.926,-3.839,4.096,9.178,16.594,2.160,11.057
Fri Nov 22 21:06:19 2024,455,-35.432,35.432,26.395,26.395,22.225,1.533,11.356,10.280,3.819,9.095,10.912,-3.895,3.979,9.105,16.491,2.216,10.998
Fri Nov 22 21:06:19 2024,460,-35.300,35.300,26.717,26.717,22.440,1.573,11.553,10.450,3.856,8.991,10.879,-3.879,3.908,9.078,16.473,2.140,10.889
Fri Nov 22 21:06:19 2024,465,-35.162,35.162,27.009,27.009,22.621,1.660,11.739,10.593,3.932,8.842,10.844,-3.840,3.862,9.070,16.488,2.025,10.777
Fri Nov 22 21:06:19 2024,470,-35.027,35.027,27.315,27.315,22.811,1.754,11.931,10.743,4.011,8.685,10.807,-3.800,3.813,9.062,16.501,1.903,10.661
Fri Nov 22 21:06:19 2024,475,-35.086,35.086,28.216,28.216,23.459,1.651,11.789,10.679,3.948,8.701,10.716,-3.868,3.712,8.892,16.420,1.888,10.551
Fri Nov 22 21:06:19 2024,480,-35.128,35.128,28.950,28.950,23.972,1.582,11.701,10.648,3.907,8.696,10.642,-3.915,3.630,8.760,16.356,1.860,10.451
Fri Nov 22 21:06:19 2024,485,-34.911,34.911,30.188,30.188,24.686,1.604,11.863,10.747,4.011,8.816,10.593,-3.872,3.747,8.743,16.363,1.727,10.342
Fri Nov 22 21:06:19 2024,490,-34.571,32.162,30.318,30.318,24.643,1.453,11.815,10.740,4.020,8.934,10.526,-3.940,3.701,8.636,16.359,1.633,10.248
Fri Nov 22 21:06:19 2024,495,-34.230,29.413,30.447,30.447,24.599,1.302,11.767,10.734,4.029,9.052,10.460,-4.008,3.654,8.528,16.356,1.539,10.153
Fri Nov 22 21:06:19 2024,500,-33.890,26.664,30.577,30.577,24.556,1.151,11.720,10.727,4.037,9.170,10.393,-4.076,3.608,8.421,16.352,1.445,10.059
Fri Nov 22 21:06:19 2024,505,-33.550,23.915,30.706,30.706,24.513,1.000,11.672,10.721,4.046,9.288,10.327,-4.144,3.562,8.313,16.348,1.351,9.964
Fri Nov 22 21:06:19 2024,510,-33.209,21.165,30.836,30.836,24.470,0.848,11.624,10.714,4.055,9.405,10.260,-4.211,3.515,8.206,16.345,1.257,9.870
Fri Nov 22 21:06:19 2024,515,-32.869,18.416,30.965,30.965,24.426,0.697,11.576,10.707,4.064,9.523,10.193,-4.279,3.469,8.098,16.341,1.163,9.775
Fri Nov 22 21:06:19 2024,520,-32.529,15.667,31.095,31.095,24.383,0.546,11.528,10.701,4.073,9.641,10.127,-4.347,3.422,7.991,16.338,1.069,9.681
Fri Nov 22 21:06:19 2024,525,-32.188,12.918,31.224,31.224,24.340,0.395,11.480,10.694,4.081,9.759,10.060,-4.415,3.376,7.883,16.334,0.975,9.586
Fri Nov 22 21:06:19 2024,530,-31.848,10.169,31.354,31.354,24.297,0.244,11.433,10.688,4.090,9.877,9.994,-4.483,3.330,7.776,16.330,0.882,9.492
Fri Nov 22 21:06:19 2024,535,-31.507,7.420,31.484,31.484,24.253,0.093,11.385,10.681,4.099,9.995,9.927,-4.551,3.283,7.668,16.327,0.788,9.397
Fri Nov 22 21:06:19 2024,540,-31.167,4.671,31.613,31.613,24.210,-0.058,11.337,10.674,4.108,10.113,9.860,-4.619,3.237,7.561,16.323,0.694,9.303
Fri Nov 22 21:06:19 2024,545,-30.827,1.922,31.743,31.743,24.167,-0.209,11.289,10.668,4.117,10.231,9.794,-4.687,3.191,7.453,16.319,0.600,9.208
Fri Nov 22 21:06:19 2024,550,-30.486,-0.827,31.872,31.872,24.123,-0.360,11.241,10.661,4.125,10.348,9.727,-4.754,3.144,7.346,16.316,0.506,9.114
Fri Nov 22 21:06:19 2024,555,-30.146,-3.577,32.002,32.002,24.080,-0.511,11.193,10.655,4.134,10.466,9.661,-4.822,3.098,7.238,16.312,0.412,9.019
Fri Nov 22 21:06:19 2024,560,-29.806,-6.326,32.131,32.131,24.037,-0.663,11.146,10.648,4.143,10.584,9.594,-4.890,3.051,7.131,16.309,0.318,8.925
Fri Nov 22 21:06:19 2024,565,-29.465,-9.075,32.261,32.261,23.994,-0.814,11.098,10.642,4.152,10.702,9.528,-4.958,3.005,7.023,16.305,0.224,8.830
Fri Nov 22 21:06:19 2024,570,-29.125,-11.824,32.390,32.390,23.950,-0.965,11.050,10.635,4.161,10.820,9.461,-5.026,2.959,6.916,16.301,0.130,8.736
Fri Nov 22 21:06:19 2024,575,-28.785,-14.573,32.520,32.520,23.907,-1.116,11.002,10.628,4.169,10.938,9.394,-5.094,2.912,6.808,16.298,0.036,8.642
Fri Nov 22 21:06:19 2024,580,-28.444,-17.322,32.650,32.650,23.864,-1.267,10.954,10.622,4.178,11.056,9.328,-5.162,2.866,6.701,16.294,-0.058,8.547
Fri Nov 22 21:06:19 2024,585,-28.104,-20.071,32.779,32.779,23.821,-1.418,10.906,10.615,4.187,11.174,9.261,-5.230,2.820,6.593,16.290,-0.152,8.453
Fri Nov 22 21:06:19 2024,590,-27.764,-22.820,32.909,32.909,23.777,-1.569,10.859,10.609,4.196,11.291,9.195,-5.297,2.773,6.486,16.287,-0.246,8.358
Fri Nov 22 21:06:19 2024,595,-27.423,-25.570,33.038,33.038,23.734,-1.720,10.811,10.602,4.205,11.409,9.128,-5.365,2.727,6.378,16.283,-0.340,8.264
Fri Nov 22 21:06:19 2024,600,-27.294,-27.294,32.851,32.851,23.529,-1.861,10.817,10.661,4.199,11.559,9.107,-5.379,2.789,6.314,16.291,-0.410,8.179
Fri Nov 22 21:06:19 2024,605,-27.366,-27.366,29.148,29.148,20.437,-1.895,10.625,9.914,4.111,11.713,8.932,-5.537,2.854,6.276,16.125,-0.042,8.021
Fri Nov 22 21:06:19 2024,610,-27.461,-27.461,26.475,26.475,18.230,-1.990,10.586,9.468,4.062,11.912,8.858,-5.577,3.035,6.233,16.028,0.266,7.908
Fri Nov 22 21:06:19 2024,615,-27.530,-27.530,23.530,23.530,15.788,-2.122,10.604,8.968,4.028,12.158,8.804,-5.576,3.294,6.171,15.924,0.686,7.802
Fri Nov 22 21:06:19 2024,620,-27.578,-27.578,21.019,21.019,13.722,-2.251,10.647,8.534,4.008,12.382,8.769,-5.557,3.546,6.109,15.836,1.080,7.721
Fri Nov 22 21:06:19 2024,625,-27.632,-27.632,18.992,18.992,12.155,-2.360,10.680,8.167,3.990,12.571,8.741,-5.544,3.756,6.059,15.758,1.406,7.655
Fri Nov 22 21:06:19 2024,630,-27.484,-27.484,15.110,15.110,8.839,-2.329,10.976,7.809,4.142,12.822,8.772,-5.515,3.977,5.947,15.716,1.504,7.335
Fri Nov 22 21:06:19 2024,635,-27.398,-27.398,12.336,12.336,6.646,-2.375,11.120,7.524,4.194,13.010,8.817,-5.492,4.192,5.883,15.680,1.670,7.100
Fri Nov 22 21:06:19 2024,640,-27.254,-27.254,9.440,9.440,4.392,-2.460,11.215,7.312,4.207,13.188,8.939,-5.460,4.448,5.842,15.672,1.824,6.781
Fri Nov 22 21:06:19 2024,645,-27.141,-27.141,7.062,7.062,2.630,-2.527,11.300,7.127,4.222,13.336,9.035,-5.433,4.660,5.807,15.663,1.952,6.526
Fri Nov 22 21:06:19 2024,650,-27.067,-27.067,5.040,5.040,1.158,-2.576,11.359,6.870,4.177,13.472,9.180,-5.371,4.640,5.849,15.749,1.914,6.570
Fri Nov 22 21:06:19 2024,655,-27.014,-27.014,3.143,3.143,-0.527,-2.622,11.414,6.627,4.134,13.602,9.318,-5.312,4.623,5.889,15.830,1.880,6.609
Fri Nov 22 21:06:19 2024,660,-26.985,-26.985,1.722,1.722,-1.370,-2.658,11.456,6.441,4.101,13.701,9.425,-5.266,4.610,5.920,15.892,1.852,6.639
Fri Nov 22 21:06:19 2024,665,-27.223,-27.223,0.816,0.816,-1.822,-2.592,11.505,6.395,4.107,13.430,9.415,-5.344,4.387,5.909,15.779,1.772,6.371
Fri Nov 22 21:06:19 2024,670,-27.341,-27.341,0.384,-0.384,-2.366,-2.573,11.545,6.304,4.098,13.332,9.450,-5.366,4.273,5.915,15.745,1.721,6.251
Fri Nov 22 21:06:19 2024,675,-27.748,-27.748,0.562,-0.562,-2.436,-2.646,11.392,6.257,4.018,13.338,9.492,-5.356,4.174,5.939,15.669,1.692,6.323
Fri Nov 22 21:06:19 2024,680,-28.044,-28.044,-0.892,-0.892,-2.584,-2.688,11.302,6.210,3.966,13.322,9.526,-5.354,4.089,5.956,15.614,1.663,6.346
Fri Nov 22 21:06:19 2024,685,-28.304,-28.304,-1.206,-1.206,-2.732,-2.738,11.158,6.262,3.919,13.215,9.596,-5.388,3.966,6.047,15.606,1.621,6.410
Fri Nov 22 21:06:19 2024,690,-28.548,-28.548,-1.520,-1.520,-2.899,-2.798,10.955,6.405,3.875,13.016,9.706,-5.458,3.798,6.213,15.640,1.566,6.518
Fri Nov 22 21:06:19 2024,695,-28.755,-28.755,-1.782,-1.782,-3.034,-2.840,10.820,6.478,3.840,12.894,9.776,-5.498,3.684,6.312,15.650,1.528,6.584
Fri Nov 22 21:06:19 2024,700,-28.774,-28.774,-2.672,-2.672,-3.693,-2.737,10.972,6.282,3.875,12.946,9.657,-5.365,3.795,6.218,15.715,1.435,6.418
Fri Nov 22 21:06:19 2024,705,-28.864,-28.864,-3.265,-3.265,-4.100,-2.696,11.005,6.201,3.881,12.930,9.616,-5.306,3.814,6.204,15.755,1.370,6.350
Fri Nov 22 21:06:19 2024,710,-28.951,-28.951,-3.597,-3.597,-4.272,-2.719,11.015,6.316,3.826,12.861,9.739,-5.384,3.694,6.318,15.702,1.365,6.431
Fri Nov 22 21:06:19 2024,715,-29.022,-29.022,-3.917,-3.917,-4.457,-2.722,11.027,6.363,3.795,12.817,9.800,-5.415,3.629,6.380,15.681,1.348,6.463
Fri Nov 22 21:06:19 2024,720,-29.019,-29.019,-4.108,-4.108,-4.625,-2.663,10.965,6.209,3.817,12.772,9.739,-5.354,3.647,6.358,15.707,1.280,6.422
Fri Nov 22 21:06:19 2024,725,-29.023,-29.023,-4.304,-4.304,-4.791,-2.603,10.903,6.058,3.838,12.726,9.680,-5.294,3.664,6.338,15.733,1.211,6.382
Fri Nov 22 21:06:19 2024,730,-29.046,-29.046,-4.504,-4.504,-4.865,-2.630,10.740,6.012,3.829,12.660,9.684,-5.312,3.542,6.325,15.684,1.166,6.296
Fri Nov 22 21:06:19 2024,735,-29.073,-29.073,-4.681,-4.681,-4.902,-2.682,10.564,6.004,3.810,12.593,9.706,-5.352,3.390,6.316,15.616,1.134,6.204
Fri Nov 22 21:06:19 2024,740,-29.096,-29.096,-4.791,-4.791,-4.930,-2.708,10.481,6.007,3.795,12.546,9.719,-5.372,3.323,6.332,15.581,1.095,6.157
Fri Nov 22 21:06:19 2024,745,-29.127,-29.127,-4.774,-4.774,-4.946,-2.674,10.611,6.042,3.779,12.527,9.712,-5.338,3.454,6.420,15.624,1.023,6.212
Fri Nov 22 21:06:19 2024,750,-29.159,-29.159,-4.764,-4.764,-4.958,-2.647,10.719,6.071,3.766,12.509,9.706,-5.309,3.565,6.499,15.660,0.959,6.256
Fri Nov 22 21:06:19 2024,755,-29.148,-29.148,-4.781,-4.781,-4.919,-2.683,10.682,6.075,3.764,12.500,9.732,-5.387,3.350,6.427,15.574,0.972,6.216
Fri Nov 22 21:06:19 2024,760,-29.143,-29.143,-4.794,-4.794,-4.889,-2.711,10.654,6.077,3.762,12.494,9.752,-5.447,3.186,6.373,15.509,0.980,6.186
Fri Nov 22 21:06:19 2024,765,-29.102,-29.102,-4.867,-4.867,-4.947,-2.709,10.784,6.054,3.746,12.494,9.700,-5.483,3.154,6.312,15.424,0.959,6.090
Fri Nov 22 21:06:19 2024,770,-29.058,-29.058,-4.947,-4.947,-5.027,-2.695,10.946,6.026,3.727,12.496,9.632,-5.499,3.185,6.263,15.352,0.931,5.991
Fri Nov 22 21:06:19 2024,775,-29.018,-29.018,-5.022,-5.022,-5.100,-2.681,11.098,6.000,3.709,12.498,9.568,-5.513,3.215,6.218,15.283,0.904,5.899
Fri Nov 22 21:06:19 2024,780,-28.774,-28.774,-5.112,-5.112,-5.176,-2.649,10.983,5.972,3.786,12.476,9.655,-5.458,3.184,6.266,15.399,0.892,5.977
Fri Nov 22 21:06:19 2024,785,-28.617,-28.617,-5.181,-5.181,-5.236,-2.627,10.940,5.950,3.831,12.462,9.697,-5.426,3.171,6.287,15.458,0.878,6.008
Fri Nov 22 21:06:19 2024,790,-28.443,-28.443,-5.171,-5.171,-5.229,-2.714,10.923,5.898,3.753,12.488,9.660,-5.499,3.113,6.223,15.335,0.890,5.909
Fri Nov 22 21:06:19 2024,795,-28.275,-28.275,-5.161,-5.161,-5.221,-2.800,10.905,5.847,3.679,12.513,9.623,-5.570,3.055,6.160,15.216,0.901,5.813
Fri Nov 22 21:06:19 2024,800,-28.049,-28.049,-5.114,-5.114,-5.190,-2.799,11.027,5.912,3.682,12.524,9.657,-5.584,3.080,6.195,15.186,0.901,5.808
Fri Nov 22 21:06:19 2024,805,-27.793,-27.793,-5.047,-5.047,-5.146,-2.754,11.222,6.036,3.724,12.528,9.725,-5.570,3.146,6.281,15.200,0.896,5.847
Fri Nov 22 21:06:19 2024,810,-27.500,-27.500,-5.006,-5.006,-5.141,-2.712,11.403,6.086,3.779,12.571,9.750,-5.548,3.210,6.294,15.226,0.887,5.840
Fri Nov 22 21:06:19 2024,815,-27.157,-27.157,-5.029,-5.029,-5.227,-2.681,11.523,5.968,3.853,12.690,9.678,-5.511,3.258,6.150,15.275,0.873,5.737
Fri Nov 22 21:06:19 2024,820,-26.807,-26.807,-5.048,-5.048,-5.307,-2.648,11.653,5.856,3.928,12.804,9.610,-5.474,3.308,6.010,15.323,0.859,5.638
Fri Nov 22 21:06:19 2024,825,-26.369,-26.369,-5.052,-5.052,-5.378,-2.599,11.921,6.038,3.918,12.807,9.715,-5.437,3.462,6.140,15.284,0.879,5.702
Fri Nov 22 21:06:19 2024,830,-25.969,-25.969,-5.053,-5.053,-5.441,-2.554,12.167,6.208,3.908,12.807,9.812,-5.404,3.604,6.263,15.248,0.898,5.763
Fri Nov 22 21:06:19 2024,835,-25.576,-25.576,-5.061,-5.061,-5.482,-2.464,12.352,6.315,3.922,12.744,9.843,-5.392,3.670,6.307,15.227,0.914,5.755
Fri Nov 22 21:06:19 2024,840,-25.158,-25.158,-5.081,-5.081,-5.499,-2.301,12.465,6.339,3.974,12.584,9.784,-5.406,3.630,6.242,15.224,0.928,5.648
Fri Nov 22 21:06:19 2024,845,-24.826,-24.826,-5.094,-5.094,-5.518,-2.184,12.573,6.377,4.007,12.474,9.755,-5.411,3.620,6.212,15.218,0.940,5.584
Fri Nov 22 21:06:19 2024,850,-24.450,-24.450,-4.945,-4.945,-5.506,-2.049,12.753,6.365,3.993,12.599,9.712,-5.438,3.683,6.187,15.166,1.092,5.656
Fri Nov 22 21:06:19 2024,855,-24.102,-24.102,-4.831,-4.831,-5.498,-1.924,12.910,6.363,3.988,12.674,9.674,-5.459,3.728,6.162,15.123,1.211,5.699
Fri Nov 22 21:06:19 2024,860,-23.654,-23.654,-4.933,-4.933,-5.653,-1.637,13.233,6.414,4.033,12.642,9.687,-5.409,3.883,6.222,15.178,1.235,5.731
Fri Nov 22 21:06:19 2024,865,-23.284,-23.284,-5.015,-5.015,-5.779,-1.402,13.492,6.454,4.069,12.616,9.698,-5.368,4.009,6.271,15.223,1.254,5.758
Fri Nov 22 21:06:19 2024,870,-22.954,-22.954,-5.101,-5.101,-5.915,-1.249,13.722,6.495,4.056,12.644,9.692,-5.351,4.142,6.271,15.206,1.342,5.760
Fri Nov 22 21:06:19 2024,875,-22.743,-22.743,-5.165,-5.165,-6.019,-1.190,13.871,6.524,4.015,12.699,9.677,-5.354,4.242,6.238,15.155,1.450,5.745
Fri Nov 22 21:06:19 2024,880,-22.541,-22.541,-5.226,-5.226,-6.120,-1.133,14.017,6.553,3.975,12.753,9.662,-5.357,4.339,6.207,15.105,1.555,5.730
Fri Nov 22 21:06:19 2024,885,-22.382,-22.382,-5.180,-5.180,-6.115,-1.050,14.089,6.659,3.974,12.770,9.722,-5.304,4.467,6.304,15.160,1.566,5.813
Fri Nov 22 21:06:19 2024,890,-22.210,-22.210,-5.084,-5.084,-6.053,-0.926,14.140,6.829,3.988,12.759,9.833,-5.212,4.619,6.485,15.274,1.533,5.970
Fri Nov 22 21:06:19 2024,895,-22.037,-22.037,-5.196,-5.196,-6.096,-0.807,14.259,6.892,3.944,12.712,9.834,-5.203,4.605,6.488,15.223,1.609,6.021
Fri Nov 22 21:06:19 2024,900,-21.844,-21.844,-5.357,-5.357,-6.158,-0.671,14.400,6.948,3.885,12.645,9.819,-5.205,4.557,6.465,15.140,1.710,6.067
Fri Nov 22 21:06:19 2024,905,-21.697,-21.697,-5.480,-5.480,-6.205,-0.567,14.505,6.991,3.840,12.592,9.808,-5.206,4.520,6.448,15.077,1.787,6.102
Fri Nov 22 21:06:19 2024,910,-21.551,-21.551,-5.248,-5.248,-6.127,-0.392,14.700,7.062,3.888,12.686,9.885,-5.010,4.836,6.582,15.218,1.840,6.290
Fri Nov 22 21:06:19 2024,915,-21.426,-21.426,-5.171,-5.171,-6.100,-0.270,14.799,7.128,3.899,12.697,9.920,-4.932,4.945,6.624,15.258,1.872,6.360
Fri Nov 22 21:06:19 2024,920,-21.254,-21.254,-5.114,-5.114,-6.069,-0.130,14.809,7.261,3.910,12.633,9.954,-4.926,4.908,6.589,15.250,1.848,6.300
Fri Nov 22 21:06:19 2024,925,-21.105,-21.105,-5.062,-5.062,-6.041,0.096,14.808,7.384,3.920,12.572,9.986,-4.925,4.869,6.555,15.239,1.825,6.239
Fri Nov 22 21:06:19 2024,930,-21.013,-21.013,-4.964,-4.964,-5.933,0.143,14.740,7.406,3.881,12.585,10.049,-4.878,4.947,6.653,15.217,1.938,6.441
Fri Nov 22 21:06:19 2024,935,-20.944,-20.944,-4.875,-4.875,-5.830,0.183,14.672,7.411,3.841,12.607,10.108,-4.831,5.031,6.755,15.196,2.054,6.654
Fri Nov 22 21:06:19 2024,940,-20.842,-20.842,-4.772,-4.772,-5.730,0.233,14.610,7.438,3.821,12.616,10.146,-4.815,5.078,6.806,15.174,2.129,6.776
Fri Nov 22 21:06:19 2024,945,-20.703,-20.703,-4.660,-4.660,-5.646,0.290,14.568,7.502,3.843,12.598,10.140,-4.857,5.052,6.751,15.154,2.120,6.711
Fri Nov 22 21:06:19 2024,950,-20.590,-20.590,-4.554,-4.554,-5.563,0.345,14.523,7.557,3.856,12.586,10.143,-4.885,5.041,6.719,15.134,2.126,6.684
Fri Nov 22 21:06:19 2024,955,-20.541,-20.541,-4.265,-4.265,-5.310,0.415,14.447,7.550,3.903,12.590,10.165,-4.785,5.244,6.788,15.253,2.126,6.766
Fri Nov 22 21:06:19 2024,960,-20.494,-20.494,-4.028,-4.028,-5.104,0.478,14.380,7.553,3.941,12.590,10.182,-4.713,5.400,6.837,15.341,2.125,6.826
Fri Nov 22 21:06:19 2024,965,-20.565,-20.565,-3.622,-3.622,-4.759,0.532,14.312,7.588,3.963,12.555,10.182,-4.712,5.406,6.844,15.364,2.146,6.933
Fri Nov 22 21:06:19 2024,970,-20.771,-20.771,-3.015,-3.015,-4.242,0.573,14.243,7.658,3.965,12.478,10.162,-4.794,5.242,6.803,15.314,2.193,7.098
Fri Nov 22 21:06:19 2024,975,-20.967,-20.967,-2.482,-2.482,-3.791,0.583,14.141,7.673,3.960,12.441,10.103,-4.806,5.226,6.784,15.329,2.208,7.186
Fri Nov 22 21:06:19 2024,980,-21.194,-21.194,-1.964,-1.964,-3.359,0.558,14.011,7.648,3.942,12.427,10.003,-4.784,5.287,6.766,15.378,2.203,7.220
Fri Nov 22 21:06:19 2024,985,-21.435,-21.435,-1.448,-1.448,-2.929,0.537,13.882,7.626,3.924,12.410,9.906,-4.765,5.341,6.748,15.422,2.200,7.260
Fri Nov 22 21:06:19 2024,990,-21.759,-21.759,-0.404,-0.858,-2.456,0.540,13.811,7.672,4.033,12.467,9.965,-4.672,5.433,6.812,15.544,2.161,7.436
Fri Nov 22 21:06:19 2024,995,-22.218,-22.218,0.229,-0.016,-1.843,0.554,13.744,7.758,4.224,12.567,10.105,-4.524,5.567,6.928,15.730,2.097,7.718
Fri Nov 22 21:06:20 2024,0,-22.676,-22.676,1.296,1.296,-1.043,0.594,13.776,7.814,4.317,12.540,9.967,-4.410,5.664,6.875,15.745,2.081,7.784
Fri Nov 22 21:06:20 2024,5,-23.119,-23.119,2.572,2.572,0.836,0.635,13.817,7.866,4.399,12.507,9.818,-4.304,5.752,6.814,15.745,2.068,7.830
Fri Nov 22 21:06:20 2024,10,-23.523,-23.523,3.712,3.712,1.380,0.671,13.852,7.913,4.472,12.477,9.687,-4.210,5.831,6.759,15.746,2.058,7.871
Fri Nov 22 21:06:20 2024,15,-24.060,-24.060,6.485,6.485,3.175,0.535,13.668,8.211,4.473,12.607,9.765,-4.064,5.874,6.897,16.015,1.924,8.298
Fri Nov 22 21:06:20 2024,20,-24.532,-24.532,8.588,8.588,4.709,0.463,13.562,8.408,4.493,12.678,9.774,-3.946,5.924,6.968,16.180,1.838,8.577
Fri Nov 22 21:06:20 2024,25,-25.151,-25.151,11.689,11.689,7.107,0.334,13.219,8.697,4.323,12.573,9.834,-3.977,5.707,7.137,16.223,1.729,8.973
Fri Nov 22 21:06:20 2024,30,-25.847,-25.847,15.333,15.333,10.122,0.205,12.766,9.029,4.072,12.376,9.915,-4.069,5.371,7.348,16.217,1.607,9.423
Fri Nov 22 21:06:20 2024,35,-26.387,-26.387,18.878,18.878,13.041,0.225,12.162,9.529,4.000,12.017,10.004,-4.076,4.851,7.505,16.486,1.097,9.706
Fri Nov 22 21:06:20 2024,40,-26.797,-26.797,21.676,21.676,15.465,0.253,11.680,9.933,3.963,11.713,10.072,-4.078,4.422,7.618,16.726,0.650,9.901
Fri Nov 22 21:06:20 2024,45,-27.224,-27.224,24.556,24.556,18.012,0.282,11.198,10.334,3.926,11.407,10.142,-4.081,3.994,7.732,16.968,0.199,10.096
Fri Nov 22 21:06:20 2024,50,-27.830,-27.830,27.581,27.581,20.178,0.213,11.698,10.903,4.093,11.748,10.179,-3.898,4.317,7.844,17.083,0.095,10.301
Fri Nov 22 21:06:20 2024,55,-28.403,-28.403,30.499,30.499,22.481,-0.215,11.896,11.383,4.194,11.882,10.221,-3.780,4.412,7.949,17.222,-0.094,10.492
Fri Nov 22 21:06:20 2024,60,-28.570,-28.570,32.085,32.085,23.585,-0.394,11.087,10.975,4.126,11.621,10.243,-3.938,4.014,8.005,17.112,-0.025,10.419
Fri Nov 22 21:06:20 2024,65,-28.812,-28.812,33.662,33.662,24.766,-0.550,10.551,10.759,4.094,11.454,10.265,-4.030,3.750,8.058,17.056,-0.004,10.393
Fri Nov 22 21:06:20 2024,70,-29.040,-29.040,34.993,34.993,25.779,-0.679,10.116,10.587,4.069,11.317,10.283,-4.102,3.537,8.102,17.011,0.012,10.374
Fri Nov 22 21:06:20 2024,75,-30.681,30.681,34.831,34.831,24.937,-0.646,10.324,10.497,4.332,11.742,10.354,-3.701,3.778,7.809,17.242,-0.405,9.622
Fri Nov 22 21:06:20 2024,80,-32.004,32.004,35.305,35.305,24.884,-0.686,10.256,10.381,4.468,11.893,10.398,-3.522,3.810,7.672,17.342,-0.618,9.219
Fri Nov 22 21:06:20 2024,85,-31.879,31.879,35.794,35.794,25.270,-0.977,9.829,10.041,4.290,11.994,10.351,-3.710,3.774,7.692,16.969,-0.112,9.379
Fri Nov 22 21:06:20 2024,90,-32.225,32.225,36.291,36.291,25.580,-1.182,9.523,9.787,4.208,12.098,10.331,-3.786,3.757,7.669,16.749,0.166,9.379
Fri Nov 22 21:06:20 2024,95,-33.065,33.065,35.454,35.454,24.623,-0.936,9.856,9.560,4.401,12.292,10.222,-3.464,4.317,7.659,16.940,0.296,9.146
Fri Nov 22 21:06:20 2024,100,-33.866,33.866,34.767,34.767,23.804,-0.743,10.120,9.359,4.558,12.449,10.129,-3.200,4.787,7.650,17.090,0.406,8.952
Fri Nov 22 21:06:20 2024,105,-34.611,34.611,34.169,34.169,23.077,-0.583,10.345,9.185,4.693,12.575,10.050,-2.975,5.192,7.644,17.219,0.492,8.786
Fri Nov 22 21:06:20 2024,110,-35.004,35.004,33.870,33.870,22.707,-0.507,10.458,9.098,4.760,12.634,10.010,-2.864,5.396,7.640,17.282,0.532,8.704
Fri Nov 22 21:06:20 2024,115,-35.148,35.148,33.765,33.765,22.576,-0.481,10.498,9.066,4.783,12.655,9.995,-2.823,5.469,7.639,17.305,0.546,8.675
Fri Nov 22 21:06:20 2024,120,-34.748,34.748,38.034,38.034,26.625,-0.753,10.213,8.698,4.587,12.490,10.280,-2.804,5.160,7.940,17.778,0.344,9.515
Fri Nov 22 21:06:20 2024,125,-35.002,35.002,38.875,38.875,27.366,-0.767,10.218,8.555,4.585,12.490,10.321,-2.728,5.219,8.010,17.926,0.316,9.658
Fri Nov 22 21:06:20 2024,130,-35.442,35.442,39.520,39.520,27.972,-0.765,9.970,8.486,4.542,12.208,10.288,-2.742,5.120,8.096,18.053,0.264,9.800
Fri Nov 22 21:06:20 2024,135,-36.018,36.018,39.841,39.841,28.322,-0.747,9.467,8.508,4.464,11.632,10.174,-2.855,4.855,8.192,18.138,0.195,9.920
Fri Nov 22 21:06:20 2024,140,-36.471,36.471,40.214,40.214,28.667,-0.740,9.154,8.490,4.416,11.255,10.112,-2.909,4.702,8.266,18.223,0.145,10.027
Fri Nov 22 21:06:20 2024,145,-37.641,37.641,38.782,38.782,28.159,-0.678,8.683,8.681,4.395,10.691,10.288,-2.995,4.271,8.431,18.007,0.214,10.144
Fri Nov 22 21:06:20 2024,150,-38.451,38.451,38.120,38.120,27.992,-0.647,8.322,8.778,4.373,10.244,10.360,-3.058,3.986,8.544,17.921,0.230,10.243
Fri Nov 22 21:06:20 2024,155,-39.112,39.112,37.261,37.261,27.626,-0.204,8.630,9.114,4.512,9.853,10.344,-2.900,4.083,8.679,18.207,-0.073,10.337
Fri Nov 22 21:06:20 2024,160,-39.648,39.648,36.645,36.645,27.383,0.421,8.739,9.326,4.588,9.549,10.348,-2.821,4.088,8.777,18.357,-0.245,10.409
Fri Nov 22 21:06:20 2024,165,-39.977,39.977,35.859,35.859,26.945,0.452,8.855,9.394,4.601,9.521,10.431,-2.761,4.072,8.769,18.389,-0.324,10.357
Fri Nov 22 21:06:20 2024,170,-40.242,40.242,35.074,35.074,26.531,0.508,8.917,9.418,4.604,9.483,10.493,-2.707,4.059,8.773,18.408,-0.353,10.340
Fri Nov 22 21:06:20 2024,175,-40.463,40.463,34.266,34.266,26.121,0.574,8.947,9.411,4.597,9.447,10.547,-2.655,4.046,8.781,18.414,-0.349,10.342
Fri Nov 22 21:06:20 2024,180,-40.540,40.540,33.482,33.482,25.764,0.652,8.886,9.319,4.568,9.418,10.570,-2.616,4.036,8.801,18.386,-0.254,10.394
Fri Nov 22 21:06:20 2024,185,-40.597,40.597,32.777,32.777,25.420,0.728,8.875,9.269,4.532,9.388,10.589,-2.582,4.037,8.820,18.338,-0.154,10.442
Fri Nov 22 21:06:20 2024,190,-40.618,40.618,31.959,31.959,24.974,0.831,8.973,9.299,4.467,9.341,10.606,-2.548,4.067,8.846,18.227,0.003,10.495
Fri Nov 22 21:06:20 2024,195,-40.659,40.659,31.236,31.236,24.579,0.925,9.052,9.320,4.411,9.300,10.622,-2.517,4.092,8.869,18.132,0.138,10.542
Fri Nov 22 21:06:20 2024,200,-40.600,40.600,30.611,30.611,24.221,0.912,9.035,9.255,4.347,9.374,10.726,-2.562,4.121,8.916,18.078,0.197,10.537
Fri Nov 22 21:06:20 2024,205,-40.561,40.561,29.994,29.994,23.863,0.902,9.022,9.195,4.284,9.442,10.824,-2.604,4.148,8.961,18.024,0.256,10.534
Fri Nov 22 21:06:20 2024,210,-40.454,40.454,29.096,29.096,23.378,0.917,8.888,9.159,4.193,9.458,10.958,-2.603,4.154,9.077,18.018,0.383,10.696
Fri Nov 22 21:06:20 2024,215,-40.351,40.351,28.203,28.203,22.895,0.938,8.734,9.133,4.103,9.456,11.088,-2.588,4.152,9.202,18.025,0.512,10.890
Fri Nov 22 21:06:20 2024,220,-40.268,40.268,27.350,27.350,22.422,0.960,8.586,9.109,4.016,9.454,11.211,-2.575,4.150,9.322,18.030,0.632,11.078
Fri Nov 22 21:06:20 2024,225,-39.970,39.970,26.931,26.931,22.273,0.883,8.397,9.066,3.855,9.513,11.341,-2.593,4.281,9.477,17.950,0.823,11.308
Fri Nov 22 21:06:20 2024,230,-39.633,39.633,26.620,26.620,22.202,0.787,8.198,9.019,3.675,9.585,11.471,-2.618,4.444,9.640,17.849,1.028,11.548
Fri Nov 22 21:06:20 2024,235,-39.299,39.299,26.102,26.102,21.882,0.782,8.138,8.914,3.599,9.657,11.470,-2.648,4.525,9.657,17.788,1.122,11.535
Fri Nov 22 21:06:20 2024,240,-39.006,39.006,25.596,25.596,21.567,0.775,8.073,8.814,3.521,9.725,11.475,-2.677,4.605,9.680,17.727,1.217,11.534
Fri Nov 22 21:06:20 2024,245,-38.754,38.754,24.966,24.966,21.176,0.757,8.032,8.778,3.431,9.760,11.520,-2.700,4.712,9.755,17.684,1.323,11.622
Fri Nov 22 21:06:20 2024,250,-38.504,38.504,24.041,24.041,20.602,0.722,8.023,8.832,3.306,9.751,11.636,-2.715,4.879,9.924,17.658,1.459,11.859
Fri Nov 22 21:06:20 2024,255,-38.312,38.312,23.307,23.307,20.133,0.696,8.008,8.860,3.207,9.751,11.720,-2.732,5.008,10.049,17.631,1.567,12.031
Fri Nov 22 21:06:20 2024,260,-38.033,38.033,22.907,22.907,19.814,0.708,8.141,8.849,3.157,9.892,11.720,-2.761,5.142,10.032,17.567,1.662,11.986
Fri Nov 22 21:06:20 2024,265,-37.853,37.853,22.528,22.528,19.529,0.710,8.213,8.849,3.108,9.973,11.737,-2.780,5.244,10.048,17.525,1.737,11.995
Fri Nov 22 21:06:20 2024,270,-37.556,37.556,22.079,22.079,19.213,0.716,8.237,8.857,3.047,9.998,11.756,-2.805,5.292,10.074,17.473,1.834,12.072
Fri Nov 22 21:06:20 2024,275,-36.989,36.989,21.547,21.547,18.897,0.732,8.123,8.885,2.964,9.867,11.775,-2.835,5.183,10.121,17.402,1.973,12.316
Fri Nov 22 21:06:20 2024,280,-36.554,36.554,21.314,21.314,18.712,0.713,8.150,8.923,2.876,9.870,11.770,-2.905,5.207,10.153,17.319,2.075,12.379
Fri Nov 22 21:06:20 2024,285,-36.013,36.013,21.128,21.128,18.527,0.677,8.220,8.979,2.759,9.902,11.753,-3.011,5.263,10.191,17.207,2.197,12.413
Fri Nov 22 21:06:20 2024,290,-35.617,35.617,20.982,20.982,18.379,0.650,8.272,9.022,2.672,9.924,11.740,-3.092,5.304,10.219,17.122,2.289,12.438
Fri Nov 22 21:06:20 2024,295,-35.408,35.408,20.739,20.739,18.182,0.615,8.232,9.064,2.540,10.000,11.753,-3.165,5.352,10.179,16.991,2.443,12.421
Fri Nov 22 21:06:20 2024,300,-35.166,35.166,20.507,20.507,17.983,0.583,8.212,9.107,2.414,10.064,11.761,-3.242,5.400,10.153,16.867,2.587,12.413
Fri Nov 22 21:06:20 2024,305,-34.779,34.779,20.499,20.499,17.950,0.574,8.232,9.099,2.347,10.040,11.693,-3.310,5.343,10.076,16.850,2.632,12.504
Fri Nov 22 21:06:20 2024,310,-34.434,34.434,20.494,20.494,17.918,0.565,8.250,9.090,2.289,10.015,11.629,-3.372,5.288,10.005,16.838,2.668,12.589
Fri Nov 22 21:06:20 2024,315,-34.132,34.132,20.414,20.414,17.826,0.554,8.278,9.092,2.222,10.021,11.592,-3.438,5.238,9.948,16.782,2.727,12.619
Fri Nov 22 21:06:20 2024,320,-33.832,33.832,20.241,20.241,17.658,0.536,8.320,9.104,2.134,10.061,11.575,-3.517,5.182,9.896,16.672,2.818,12.596
Fri Nov 22 21:06:20 2024,325,-33.543,33.543,20.074,20.074,17.490,0.519,8.360,9.115,2.049,10.094,11.554,-3.596,5.126,9.843,16.570,2.904,12.584
Fri Nov 22 21:06:20 2024,330,-33.222,33.222,19.727,19.727,17.166,0.531,8.388,9.173,2.087,10.086,11.591,-3.585,5.271,9.927,16.686,2.853,12.647
Fri Nov 22 21:06:20 2024,335,-32.924,32.924,19.421,19.421,16.874,0.536,8.419,9.219,2.097,10.087,11.613,-3.595,5.369,9.978,16.750,2.832,12.691
Fri Nov 22 21:06:20 2024,340,-32.724,32.724,19.434,19.434,16.919,0.533,8.412,9.220,2.017,10.029,11.549,-3.654,5.348,9.973,16.654,2.918,12.748
Fri Nov 22 21:06:20 2024,345,-32.534,32.534,19.443,19.443,16.958,0.530,8.405,9.221,1.940,9.972,11.487,-3.711,5.328,9.968,16.563,3.000,12.803
Fri Nov 22 21:06:20 2024,350,-32.372,32.372,19.450,19.450,16.990,0.528,8.399,9.221,1.872,9.921,11.432,-3.761,5.310,9.964,16.481,3.072,12.852
Fri Nov 22 21:06:20 2024,355,-32.088,32.088,18.864,18.864,16.533,0.618,8.432,9.185,1.862,9.824,11.362,-3.740,5.334,9.918,16.510,3.040,12.773
Fri Nov 22 21:06:20 2024,360,-31.896,31.896,18.618,18.618,16.330,0.649,8.508,9.202,1.836,9.780,11.324,-3.740,5.391,9.915,16.502,3.052,12.750
Fri Nov 22 21:06:20 2024,365,-31.655,31.655,18.495,18.495,16.174,0.624,8.773,9.324,1.802,9.791,11.318,-3.732,5.594,9.971,16.493,3.091,12.736
Fri Nov 22 21:06:20 2024,370,-31.482,31.482,18.398,18.398,16.053,0.605,8.970,9.415,1.776,9.799,11.313,-3.727,5.745,10.012,16.486,3.118,12.724
Fri Nov 22 21:06:20 2024,375,-31.315,31.315,18.298,18.298,15.927,0.587,9.167,9.507,1.750,9.806,11.308,-3.722,5.896,10.054,16.478,3.145,12.713
Fri Nov 22 21:06:20 2024,380,-31.181,31.181,18.113,18.113,15.964,0.542,9.015,9.431,1.655,9.964,11.342,-3.854,5.774,9.936,16.373,3.276,12.780
Fri Nov 22 21:06:20 2024,385,-31.112,31.112,17.988,17.988,15.882,0.528,9.042,9.434,1.620,9.984,11.340,-3.877,5.753,9.902,16.336,3.316,12.748
Fri Nov 22 21:06:20 2024,390,10.381,31.138,17.864,17.864,15.721,0.534,9.105,9.437,1.618,9.908,11.307,-3.840,5.694,9.871,16.321,3.307,12.615
Fri Nov 22 21:06:20 2024,395,31.144,31.144,17.752,17.752,15.591,0.536,9.156,9.440,1.609,9.860,11.284,-3.819,5.647,9.842,16.303,3.308,12.516
Fri Nov 22 21:06:20 2024,400,-31.302,31.302,17.904,17.904,15.687,0.477,9.199,9.549,1.653,10.016,11.446,-3.763,5.924,10.046,16.447,3.219,12.717
Fri Nov 22 21:06:20 2024,405,-31.420,31.420,17.995,17.995,15.734,0.440,9.240,9.628,1.684,10.120,11.560,-3.718,6.118,10.192,16.548,3.152,12.844
Fri Nov 22 21:06:20 2024,410,-31.517,31.517,18.069,18.069,15.772,0.413,9.274,9.694,1.709,10.204,11.653,-3.681,6.276,10.309,16.631,3.096,12.948
Fri Nov 22 21:06:20 2024,415,-31.224,31.224,18.090,18.090,15.843,0.413,9.094,9.643,1.682,10.097,11.584,-3.753,5.953,10.219,16.576,3.095,12.850
Fri Nov 22 21:06:20 2024,420,-31.138,31.138,18.123,18.123,15.885,0.406,9.032,9.643,1.680,10.080,11.586,-3.770,5.874,10.221,16.580,3.076,12.844
Fri Nov 22 21:06:20 2024,425,-31.242,31.242,18.376,18.376,15.971,0.011,8.988,9.600,1.760,10.200,11.614,-3.755,5.868,10.203,16.644,3.008,12.764
Fri Nov 22 21:06:20 2024,430,-31.474,31.474,18.797,18.797,16.095,-0.394,8.947,9.526,1.903,10.415,11.660,-3.719,5.905,10.171,16.752,2.903,12.628
Fri Nov 22 21:06:20 2024,435,-31.818,31.818,19.164,19.164,16.511,-0.384,8.968,9.651,1.999,10.228,11.686,-3.662,5.788,10.186,16.851,2.766,12.631
Fri Nov 22 21:06:20 2024,440,-32.084,32.084,19.435,19.435,16.790,-0.382,8.976,9.728,2.074,10.116,11.706,-3.622,5.710,10.194,16.925,2.666,12.624
Fri Nov 22 21:06:20 2024,445,-32.349,32.349,19.687,19.687,17.047,-0.381,8.985,9.801,2.142,10.011,11.725,-3.586,5.636,10.201,16.992,2.572,12.618
Fri Nov 22 21:06:20 2024,450,-32.850,32.850,19.870,19.870,17.215,-0.410,8.870,9.775,2.258,10.102,11.683,-3.537,5.727,10.184,17.023,2.498,12.418
Fri Nov 22 21:06:20 2024,455,-33.344,33.344,20.267,20.267,17.574,-0.422,8.834,9.822,2.377,10.064,11.674,-3.476,5.684,10.181,17.123,2.350,12.338
Fri Nov 22 21:06:20 2024,460,-33.904,33.904,20.925,20.925,18.147,-0.412,8.839,9.912,2.522,9.964,11.678,-3.392,5.548,10.182,17.294,2.113,12.324
Fri Nov 22 21:06:20 2024,465,-34.493,34.493,21.490,21.490,18.626,-0.406,8.836,9.990,2.655,9.877,11.679,-3.318,5.433,10.182,17.442,1.902,12.298
Fri Nov 22 21:06:20 2024,470,-34.677,34.677,22.896,22.896,19.708,-0.411,8.908,10.153,2.811,9.842,11.603,-3.327,5.395,10.124,17.516,1.708,12.098
Fri Nov 22 21:06:20 2024,475,-34.921,34.921,23.846,23.846,20.430,-0.414,8.954,10.265,2.925,9.808,11.554,-3.324,5.359,10.088,17.577,1.559,11.968
Fri Nov 22 21:06:20 2024,480,-35.210,35.210,24.770,24.770,21.121,-0.418,9.000,10.375,3.037,9.773,11.506,-3.322,5.323,10.052,17.636,1.410,11.842
Fri Nov 22 21:06:20 2024,485,-35.979,35.979,26.209,26.209,21.849,-0.419,9.032,10.686,3.263,9.828,11.511,-3.427,5.099,9.969,17.896,1.071,11.772
Fri Nov 22 21:06:20 2024,490,-36.206,36.206,27.554,27.554,22.656,-0.412,9.050,10.820,3.429,9.824,11.454,-3.447,4.951,9.872,18.046,0.821,11.676
Fri Nov 22 21:06:20 2024,495,-36.018,36.018,29.184,29.184,23.679,-0.395,9.047,10.874,3.600,9.804,11.354,-3.430,4.782,9.730,18.188,0.555,11.565
Fri Nov 22 21:06:20 2024,500,-35.957,35.957,30.454,30.454,24.443,-0.386,9.047,10.922,3.736,9.786,11.278,-3.418,4.650,9.624,18.300,0.342,11.479
Fri Nov 22 21:06:20 2024,505,-35.234,35.234,32.276,32.276,25.573,-0.440,8.896,10.999,3.727,9.736,11.230,-3.518,4.456,9.618,18.365,0.204,11.560
Fri Nov 22 21:06:20 2024,510,-34.266,34.266,34.286,34.286,26.786,-0.542,8.679,11.087,3.649,9.673,11.199,-3.666,4.239,9.661,18.403,0.108,11.716
Fri Nov 22 21:06:20 2024,515,-33.756,33.756,35.368,35.368,27.259,-0.618,8.590,11.073,3.619,9.673,11.160,-3.776,4.149,9.664,18.473,0.081,11.890
Fri Nov 22 21:06:20 2024,520,-33.348,33.348,36.318,36.318,27.633,-0.694,8.516,11.042,3.590,9.683,11.122,-3.884,4.077,9.665,18.545,0.070,12.075
Fri Nov 22 21:06:20 2024,525,-33.024,33.024,37.223,37.223,27.991,-0.769,8.445,11.015,3.563,9.691,11.085,-3.986,4.007,9.665,18.612,0.058,12.249
Fri Nov 22 21:06:20 2024,530,-32.780,32.780,37.402,37.402,27.731,-0.698,9.059,11.001,3.897,10.384,11.069,-3.840,4.366,9.502,18.623,0.008,11.882
Fri Nov 22 21:06:20 2024,535,-32.613,32.613,37.762,37.762,27.681,-0.676,9.405,10.984,4.093,10.777,11.047,-3.779,4.562,9.404,18.649,-0.025,11.712
Fri Nov 22 21:06:20 2024,540,-32.527,32.527,38.011,38.011,27.650,-0.660,9.643,10.972,4.230,11.036,11.031,-3.736,4.697,9.336,18.667,-0.048,11.595
Fri Nov 22 21:06:20 2024,545,-31.654,31.654,38.084,38.084,27.435,-0.755,10.240,11.021,4.281,11.452,10.692,-3.714,4.754,8.722,18.514,-0.019,11.047
Fri Nov 22 21:06:20 2024,550,-31.376,31.376,37.844,37.844,27.047,-0.808,10.478,10.968,4.286,11.702,10.603,-3.695,4.829,8.546,18.386,0.061,10.818
Fri Nov 22 21:06:20 2024,555,-31.183,31.183,37.279,37.279,26.420,-0.881,10.610,10.860,4.213,11.920,10.568,-3.686,4.891,8.463,18.196,0.206,10.637
Fri Nov 22 21:06:20 2024,560,-31.084,31.084,36.934,36.934,26.015,-0.930,10.724,10.792,4.176,12.082,10.533,-3.677,4.937,8.386,18.071,0.298,10.499
Fri Nov 22 21:06:20 2024,565,-30.752,30.752,36.970,36.970,25.984,-1.176,10.396,10.573,4.161,11.748,10.304,-3.919,4.301,8.004,17.808,0.179,10.018
Fri Nov 22 21:06:20 2024,570,-30.526,30.526,36.906,36.906,25.871,-1.371,10.195,10.397,4.137,11.559,10.128,-4.095,3.860,7.709,17.574,0.101,9.630
Fri Nov 22 21:06:20 2024,575,-30.257,30.257,37.231,37.231,26.219,-1.529,10.193,10.473,4.093,11.683,10.216,-4.131,3.824,7.686,17.546,0.041,9.586
Fri Nov 22 21:06:20 2024,580,-30.067,30.067,37.458,37.458,26.456,-1.654,10.175,10.514,4.062,11.756,10.266,-4.170,3.765,7.648,17.509,-0.010,9.527
Fri Nov 22 21:06:20 2024,585,-29.876,29.876,37.702,37.702,26.710,-1.790,10.154,10.558,4.028,11.834,10.319,-4.213,3.702,7.608,17.468,-0.065,9.466
Fri Nov 22 21:06:20 2024,590,-29.856,29.856,37.519,37.519,26.603,-1.950,10.137,10.590,3.960,11.779,10.209,-4.286,3.610,7.561,17.577,-0.271,9.500
