Timestamp,Millis,thumb_tm_aa,thumb_tm_flex,thumb_mcp_aa,thumb_mcp_flex,thumb_ip,index_mcp_aa,index_mcp_flex,index_pip,middle_mcp_aa,middle_mcp_flex,middle_pip,ring_mcp_aa,ring_mcp_flex,ring_pip,little_mcp_aa,little_mcp_flex,little_pip
Fri Nov 22 19:30:02 2024,600,-25.507,-25.507,9.358,9.358,3.503,-0.582,18.239,6.160,6.178,26.875,9.794,-1.506,11.845,5.402,10.058,7.536,3.765
Fri Nov 22 19:30:02 2024,605,-25.629,-25.629,9.439,9.439,3.542,-0.600,18.288,6.155,6.187,26.914,9.766,-1.442,11.983,5.411,10.077,7.573,3.795
Fri Nov 22 19:30:02 2024,610,-25.761,-25.761,9.518,9.518,3.592,-0.627,18.313,6.159,6.187,26.940,9.752,-1.387,12.104,5.429,10.092,7.598,3.824
Fri Nov 22 19:30:02 2024,615,-25.858,-25.858,9.548,9.548,3.655,-0.670,18.228,6.197,6.148,26.899,9.800,-1.395,12.086,5.472,10.082,7.569,3.832
Fri Nov 22 19:30:02 2024,620,-25.944,-25.944,9.579,9.579,3.707,-0.704,18.168,6.224,6.120,26.873,9.832,-1.394,12.087,5.504,10.077,7.551,3.842
Fri Nov 22 19:30:02 2024,625,-26.038,-26.038,9.638,9.638,3.765,-0.688,18.218,6.203,6.142,26.905,9.796,-1.385,12.127,5.478,10.105,7.576,3.856
Fri Nov 22 19:30:02 2024,630,-26.124,-26.124,9.694,9.694,3.818,-0.669,18.270,6.180,6.166,26.940,9.758,-1.374,12.166,5.450,10.134,7.602,3.870
Fri Nov 22 19:30:02 2024,635,-26.181,-26.181,9.729,9.729,3.856,-0.686,18.293,6.180,6.166,26.941,9.742,-1.369,12.211,5.443,10.128,7.647,3.879
Fri Nov 22 19:30:02 2024,640,-26.218,-26.218,9.751,9.751,3.885,-0.734,18.291,6.201,6.148,26.916,9.743,-1.368,12.265,5.452,10.091,7.714,3.884
Fri Nov 22 19:30:02 2024,645,-26.253,-26.253,9.771,9.771,3.911,-0.771,18.292,6.216,6.134,26.898,9.742,-1.366,12.310,5.458,10.064,7.769,3.889
Fri Nov 22 19:30:02 2024,650,-26.260,-26.260,9.732,9.732,3.871,-0.796,18.253,6.160,6.115,26.918,9.725,-1.321,12.370,5.435,10.107,7.744,3.868
Fri Nov 22 19:30:02 2024,655,-26.268,-26.268,9.702,9.702,3.842,-0.818,18.222,6.116,6.099,26.934,9.711,-1.284,12.421,5.416,10.140,7.728,3.851
Fri Nov 22 19:30:02 2024,660,-26.282,-26.282,9.693,9.693,3.841,-0.827,18.208,6.089,6.093,26.946,9.711,-1.254,12.442,5.412,10.172,7.711,3.849
Fri Nov 22 19:30:02 2024,665,-26.314,-26.314,9.746,9.746,3.927,-0.798,18.240,6.107,6.117,26.946,9.749,-1.240,12.378,5.450,10.211,7.688,3.893
Fri Nov 22 19:30:02 2024,670,-26.337,-26.337,9.774,9.774,3.977,-0.784,18.255,6.108,6.129,26.950,9.772,-1.222,12.348,5.471,10.243,7.670,3.918
Fri Nov 22 19:30:02 2024,675,-26.369,-26.369,9.818,9.818,3.969,-0.827,18.241,6.057,6.083,26.922,9.671,-1.201,12.460,5.405,10.243,7.666,3.884
Fri Nov 22 19:30:02 2024,680,-26.395,-26.395,9.852,9.852,3.972,-0.853,18.233,6.024,6.054,26.904,9.606,-1.186,12.530,5.364,10.248,7.660,3.865
Fri Nov 22 19:30:02 2024,685,-26.418,-26.418,9.858,9.858,3.968,-0.874,18.219,6.009,6.035,26.887,9.577,-1.139,12.547,5.341,10.243,7.652,3.849
Fri Nov 22 19:30:02 2024,690,-26.449,-26.449,9.797,9.797,3.942,-0.889,18.179,6.032,6.029,26.860,9.616,-0.985,12.439,5.348,10.206,7.629,3.830
Fri Nov 22 19:30:02 2024,695,-26.476,-26.476,9.777,9.777,3.924,-0.898,18.165,6.038,6.031,26.862,9.616,-0.898,12.410,5.339,10.196,7.610,3.820
Fri Nov 22 19:30:02 2024,700,-26.495,-26.495,9.781,9.781,3.902,-0.885,18.184,6.050,6.070,26.919,9.608,-0.867,12.431,5.332,10.216,7.586,3.831
Fri Nov 22 19:30:02 2024,705,-26.518,-26.518,9.778,9.778,3.880,-0.878,18.195,6.061,6.100,26.963,9.601,-0.819,12.439,5.324,10.229,7.563,3.836
Fri Nov 22 19:30:02 2024,710,-26.527,-26.527,9.797,9.797,3.916,-0.905,18.199,6.087,6.074,26.934,9.597,-0.826,12.476,5.334,10.222,7.568,3.814
Fri Nov 22 19:30:02 2024,715,-26.538,-26.538,9.811,9.811,3.942,-0.925,18.203,6.109,6.058,26.916,9.594,-0.824,12.505,5.340,10.218,7.570,3.798
Fri Nov 22 19:30:02 2024,720,-26.546,-26.546,9.822,9.822,3.963,-0.942,18.206,6.126,6.045,26.902,9.591,-0.824,12.530,5.346,10.216,7.571,3.784
Fri Nov 22 19:30:02 2024,725,-26.513,-26.513,9.800,9.800,3.940,-0.936,18.146,6.118,6.025,26.854,9.599,-0.842,12.493,5.345,10.195,7.580,3.803
Fri Nov 22 19:30:02 2024,730,-26.495,-26.495,9.808,9.808,3.948,-0.924,18.114,6.117,6.021,26.830,9.602,-0.847,12.462,5.347,10.195,7.570,3.806
Fri Nov 22 19:30:02 2024,735,-26.472,-26.472,9.851,9.851,3.980,-0.876,18.086,6.111,6.047,26.827,9.604,-0.840,12.389,5.347,10.223,7.522,3.806
Fri Nov 22 19:30:02 2024,740,-26.455,-26.455,9.884,9.884,4.005,-0.838,18.060,6.106,6.067,26.825,9.606,-0.835,12.331,5.347,10.244,7.484,3.806
Fri Nov 22 19:30:02 2024,745,-26.409,-26.409,9.824,9.824,3.926,-0.842,18.068,6.129,6.078,26.842,9.622,-0.762,12.359,5.370,10.231,7.478,3.790
Fri Nov 22 19:30:02 2024,750,-26.375,-26.375,9.780,9.780,3.868,-0.844,18.074,6.146,6.086,26.855,9.633,-0.708,12.379,5.386,10.221,7.473,3.778
Fri Nov 22 19:30:02 2024,755,-26.340,-26.340,9.742,9.742,3.824,-0.838,18.078,6.156,6.091,26.877,9.652,-0.642,12.407,5.397,10.210,7.467,3.761
Fri Nov 22 19:30:02 2024,760,-26.334,-26.334,9.753,9.753,3.859,-0.812,18.073,6.137,6.080,26.910,9.679,-0.597,12.437,5.381,10.205,7.462,3.744
Fri Nov 22 19:30:02 2024,765,-26.322,-26.322,9.751,9.751,3.873,-0.792,18.070,6.126,6.074,26.939,9.702,-0.551,12.465,5.373,10.199,7.458,3.728
Fri Nov 22 19:30:02 2024,770,-26.314,-26.314,9.724,9.724,3.826,-0.815,18.097,6.136,6.056,26.888,9.672,-0.456,12.490,5.363,10.186,7.463,3.724
Fri Nov 22 19:30:02 2024,775,-26.308,-26.308,9.705,9.705,3.794,-0.830,18.116,6.142,6.042,26.854,9.654,-0.383,12.511,5.354,10.176,7.466,3.718
Fri Nov 22 19:30:02 2024,780,-26.307,-26.307,9.699,9.699,3.778,-0.823,18.122,6.150,6.033,26.825,9.642,-0.296,12.499,5.342,10.174,7.444,3.705
Fri Nov 22 19:30:02 2024,785,-26.317,-26.317,9.724,9.724,3.800,-0.767,18.099,6.164,6.039,26.804,9.647,-0.176,12.411,5.321,10.191,7.363,3.673
Fri Nov 22 19:30:02 2024,790,-26.303,-26.303,9.705,9.705,3.788,-0.758,18.070,6.170,6.022,26.768,9.660,0.017,12.391,5.325,10.191,7.323,3.664
Fri Nov 22 19:30:02 2024,795,-26.269,-26.269,9.648,9.648,3.753,-0.784,18.022,6.169,5.986,26.721,9.686,0.159,12.420,5.354,10.179,7.309,3.673
Fri Nov 22 19:30:02 2024,800,-26.239,-26.239,9.597,9.597,3.722,-0.809,17.982,6.167,5.954,26.681,9.709,0.231,12.449,5.380,10.168,7.301,3.683
Fri Nov 22 19:30:02 2024,805,-26.235,-26.235,9.574,9.574,3.678,-0.787,17.930,6.191,5.956,26.666,9.707,0.327,12.385,5.338,10.166,7.226,3.638
Fri Nov 22 19:30:02 2024,810,-26.222,-26.222,9.554,9.554,3.646,-0.769,17.885,6.208,5.945,26.632,9.708,0.419,12.339,5.313,10.161,7.172,3.609
Fri Nov 22 19:30:02 2024,815,-26.193,-26.193,9.535,9.535,3.632,-0.753,17.847,6.219,5.912,26.568,9.713,0.505,12.315,5.311,10.153,7.147,3.598
Fri Nov 22 19:30:02 2024,820,-26.154,-26.154,9.515,9.515,3.626,-0.737,17.811,6.227,5.864,26.484,9.721,0.591,12.304,5.322,10.142,7.138,3.597
Fri Nov 22 19:30:02 2024,825,-26.113,-26.113,9.500,9.500,3.631,-0.727,17.787,6.230,5.814,26.400,9.728,0.657,12.308,5.344,10.131,7.146,3.608
Fri Nov 22 19:30:02 2024,830,-26.133,-26.133,9.481,9.481,3.620,-0.758,17.749,6.246,5.762,26.376,9.716,0.726,12.384,5.340,10.160,7.126,3.600
Fri Nov 22 19:30:02 2024,835,-26.141,-26.141,9.465,9.465,3.612,-0.778,17.718,6.258,5.717,26.346,9.708,0.784,12.437,5.339,10.178,7.112,3.596
Fri Nov 22 19:30:02 2024,840,-26.140,-26.140,9.468,9.468,3.615,-0.787,17.719,6.283,5.689,26.322,9.725,0.842,12.481,5.356,10.200,7.096,3.599
Fri Nov 22 19:30:02 2024,845,-26.115,-26.115,9.522,9.522,3.644,-0.772,17.800,6.347,5.693,26.304,9.813,0.912,12.512,5.422,10.234,7.064,3.622
Fri Nov 22 19:30:02 2024,850,-26.096,-26.096,9.522,9.522,3.648,-0.770,17.810,6.370,5.678,26.270,9.836,0.963,12.516,5.450,10.246,7.051,3.630
Fri Nov 22 19:30:02 2024,855,-26.066,-26.066,9.467,9.467,3.622,-0.774,17.758,6.355,5.646,26.199,9.800,1.009,12.468,5.453,10.234,7.056,3.624
Fri Nov 22 19:30:02 2024,860,-26.040,-26.040,9.422,9.422,3.602,-0.776,17.715,6.345,5.620,26.140,9.774,1.050,12.430,5.458,10.224,7.058,3.620
Fri Nov 22 19:30:02 2024,865,-26.046,-26.046,9.433,9.433,3.600,-0.783,17.744,6.354,5.596,26.110,9.789,1.054,12.476,5.478,10.221,7.087,3.622
Fri Nov 22 19:30:02 2024,870,-26.052,-26.052,9.444,9.444,3.600,-0.788,17.770,6.362,5.576,26.088,9.804,1.056,12.517,5.496,10.221,7.112,3.622
Fri Nov 22 19:30:02 2024,875,-26.050,-26.050,9.442,9.442,3.598,-0.794,17.785,6.364,5.561,26.080,9.812,1.054,12.551,5.499,10.209,7.143,3.624
Fri Nov 22 19:30:02 2024,880,-26.035,-26.035,9.419,9.419,3.592,-0.797,17.781,6.357,5.553,26.100,9.814,1.045,12.576,5.477,10.179,7.188,3.624
Fri Nov 22 19:30:02 2024,885,-26.023,-26.023,9.401,9.401,3.587,-0.801,17.781,6.352,5.545,26.114,9.816,1.038,12.601,5.463,10.155,7.225,3.624
Fri Nov 22 19:30:02 2024,890,-26.062,-26.062,9.444,9.444,3.641,-0.825,17.795,6.382,5.506,26.052,9.852,1.108,12.695,5.538,10.226,7.203,3.673
Fri Nov 22 19:30:02 2024,895,-26.095,-26.095,9.479,9.479,3.688,-0.848,17.808,6.408,5.471,26.001,9.886,1.168,12.781,5.601,10.286,7.188,3.718
Fri Nov 22 19:30:02 2024,900,-26.092,-26.092,9.444,9.444,3.660,-0.854,17.831,6.386,5.488,26.019,9.867,1.175,12.762,5.577,10.290,7.182,3.694
Fri Nov 22 19:30:02 2024,905,-26.084,-26.084,9.399,9.399,3.621,-0.858,17.856,6.356,5.511,26.046,9.842,1.176,12.729,5.542,10.288,7.176,3.661
Fri Nov 22 19:30:02 2024,910,-26.077,-26.077,9.359,9.359,3.588,-0.862,17.878,6.330,5.531,26.071,9.819,1.177,12.701,5.512,10.286,7.171,3.633
Fri Nov 22 19:30:02 2024,915,-26.063,-26.063,9.423,9.423,3.616,-0.849,17.821,6.271,5.526,26.074,9.795,1.134,12.709,5.490,10.312,7.169,3.646
Fri Nov 22 19:30:02 2024,920,-26.051,-26.051,9.456,9.456,3.627,-0.841,17.787,6.224,5.528,26.083,9.772,1.105,12.707,5.468,10.329,7.166,3.646
Fri Nov 22 19:30:02 2024,925,-26.087,-26.087,9.474,9.474,3.665,-0.848,17.761,6.250,5.546,26.080,9.788,1.113,12.659,5.488,10.346,7.110,3.663
Fri Nov 22 19:30:02 2024,930,-26.122,-26.122,9.490,9.490,3.699,-0.856,17.739,6.277,5.563,26.077,9.804,1.122,12.616,5.508,10.362,7.058,3.678
Fri Nov 22 19:30:02 2024,935,-26.137,-26.137,9.494,9.494,3.713,-0.864,17.724,6.292,5.563,26.066,9.810,1.122,12.595,5.515,10.376,7.023,3.677
Fri Nov 22 19:30:02 2024,940,-26.114,-26.114,9.479,9.479,3.690,-0.880,17.717,6.289,5.527,26.026,9.796,1.104,12.615,5.497,10.399,7.009,3.643
Fri Nov 22 19:30:02 2024,945,-26.101,-26.101,9.469,9.469,3.676,-0.893,17.707,6.291,5.501,25.994,9.787,1.090,12.625,5.485,10.419,6.989,3.617
Fri Nov 22 19:30:02 2024,950,-26.123,-26.123,9.512,9.512,3.703,-0.862,17.778,6.268,5.531,26.046,9.748,1.072,12.586,5.440,10.395,6.995,3.576
Fri Nov 22 19:30:02 2024,955,-26.141,-26.141,9.550,9.550,3.724,-0.836,17.841,6.248,5.556,26.088,9.713,1.055,12.553,5.400,10.378,6.998,3.536
Fri Nov 22 19:30:02 2024,960,-26.115,-26.115,9.526,9.526,3.706,-0.824,17.827,6.234,5.579,26.114,9.722,1.049,12.534,5.386,10.387,7.000,3.526
Fri Nov 22 19:30:02 2024,965,-26.059,-26.059,9.460,9.460,3.662,-0.812,17.771,6.220,5.612,26.141,9.756,1.048,12.513,5.380,10.415,7.002,3.526
Fri Nov 22 19:30:02 2024,970,-26.032,-26.032,9.432,9.432,3.643,-0.813,17.743,6.214,5.624,26.151,9.774,1.058,12.516,5.384,10.432,7.005,3.531
Fri Nov 22 19:30:02 2024,975,-26.031,-26.031,9.440,9.440,3.650,-0.842,17.731,6.221,5.596,26.125,9.790,1.112,12.579,5.423,10.451,7.012,3.562
Fri Nov 22 19:30:02 2024,980,-26.028,-26.028,9.444,9.444,3.654,-0.865,17.721,6.226,5.577,26.107,9.802,1.153,12.624,5.452,10.467,7.017,3.584
Fri Nov 22 19:30:02 2024,985,-26.043,-26.043,9.460,9.460,3.659,-0.857,17.793,6.271,5.581,26.128,9.832,1.192,12.639,5.462,10.474,6.983,3.559
Fri Nov 22 19:30:02 2024,990,-26.056,-26.056,9.473,9.473,3.663,-0.847,17.860,6.309,5.588,26.150,9.856,1.223,12.647,5.468,10.480,6.951,3.535
Fri Nov 22 19:30:02 2024,995,-26.069,-26.069,9.476,9.476,3.662,-0.853,17.892,6.332,5.587,26.160,9.865,1.262,12.689,5.464,10.482,6.930,3.502
Fri Nov 22 19:30:03 2024,0,-26.075,-26.075,9.456,9.456,3.656,-0.892,17.846,6.313,5.572,26.142,9.838,1.297,12.775,5.446,10.477,6.940,3.471
Fri Nov 22 19:30:03 2024,5,-26.082,-26.082,9.440,9.440,3.650,-0.922,17.815,6.304,5.559,26.131,9.819,1.333,12.852,5.430,10.474,6.943,3.440
Fri Nov 22 19:30:03 2024,10,-26.114,-26.114,9.482,9.482,3.675,-0.922,17.871,6.304,5.554,26.140,9.842,1.383,12.835,5.473,10.512,6.939,3.496
Fri Nov 22 19:30:03 2024,15,-26.137,-26.137,9.508,9.508,3.692,-0.926,17.904,6.302,5.550,26.144,9.854,1.422,12.835,5.501,10.536,6.938,3.529
Fri Nov 22 19:30:03 2024,20,-26.160,-26.160,9.528,9.528,3.705,-0.949,17.903,6.284,5.533,26.140,9.855,1.435,12.857,5.506,10.548,6.954,3.550
Fri Nov 22 19:30:03 2024,25,-26.180,-26.180,9.535,9.535,3.711,-0.994,17.854,6.247,5.502,26.124,9.841,1.409,12.906,5.482,10.539,6.990,3.552
Fri Nov 22 19:30:03 2024,30,-26.199,-26.199,9.545,9.545,3.718,-1.026,17.825,6.220,5.478,26.114,9.833,1.397,12.941,5.469,10.537,7.017,3.560
Fri Nov 22 19:30:03 2024,35,-26.191,-26.191,9.490,9.490,3.704,-1.009,17.844,6.266,5.498,26.121,9.870,1.380,12.933,5.522,10.543,7.001,3.566
Fri Nov 22 19:30:03 2024,40,-26.191,-26.191,9.452,9.452,3.694,-1.005,17.850,6.293,5.506,26.124,9.896,1.364,12.934,5.558,10.548,6.996,3.574
Fri Nov 22 19:30:03 2024,45,-26.197,-26.197,9.443,9.443,3.688,-1.005,17.844,6.282,5.511,26.134,9.898,1.361,12.925,5.553,10.563,6.984,3.570
Fri Nov 22 19:30:03 2024,50,-26.217,-26.217,9.471,9.471,3.680,-1.011,17.815,6.203,5.518,26.166,9.865,1.380,12.888,5.478,10.609,6.948,3.542
Fri Nov 22 19:30:03 2024,55,-26.227,-26.227,9.478,9.478,3.674,-1.014,17.801,6.167,5.523,26.184,9.853,1.386,12.868,5.445,10.635,6.928,3.530
Fri Nov 22 19:30:03 2024,60,-26.272,-26.272,9.504,9.504,3.697,-1.063,17.875,6.228,5.527,26.200,9.801,1.360,13.000,5.442,10.676,6.940,3.506
Fri Nov 22 19:30:03 2024,65,-26.294,-26.294,9.517,9.517,3.706,-1.086,17.902,6.246,5.530,26.212,9.775,1.350,13.054,5.433,10.701,6.940,3.493
Fri Nov 22 19:30:03 2024,70,-26.273,-26.273,9.513,9.513,3.715,-1.072,17.911,6.187,5.559,26.261,9.765,1.330,13.060,5.398,10.739,6.929,3.491
Fri Nov 22 19:30:03 2024,75,-26.260,-26.260,9.512,9.512,3.721,-1.064,17.920,6.147,5.580,26.296,9.755,1.315,13.069,5.373,10.767,6.921,3.489
Fri Nov 22 19:30:03 2024,80,-26.260,-26.260,9.521,9.521,3.731,-1.050,17.913,6.153,5.600,26.308,9.782,1.290,13.036,5.395,10.759,6.915,3.510
Fri Nov 22 19:30:03 2024,85,-26.262,-26.262,9.531,9.531,3.740,-1.036,17.903,6.168,5.617,26.313,9.812,1.266,12.998,5.424,10.745,6.909,3.531
Fri Nov 22 19:30:03 2024,90,-26.264,-26.264,9.539,9.539,3.748,-1.025,17.895,6.180,5.630,26.317,9.836,1.247,12.969,5.447,10.734,6.905,3.549
Fri Nov 22 19:30:03 2024,95,-26.325,-26.325,9.554,9.554,3.793,-1.054,17.954,6.213,5.647,26.328,9.824,1.209,12.991,5.447,10.748,6.902,3.547
Fri Nov 22 19:30:03 2024,100,-26.369,-26.369,9.566,9.566,3.827,-1.072,17.993,6.239,5.661,26.336,9.820,1.178,13.001,5.452,10.755,6.899,3.549
Fri Nov 22 19:30:03 2024,105,-26.383,-26.383,9.557,9.557,3.784,-1.094,18.029,6.200,5.684,26.380,9.778,1.095,12.984,5.392,10.784,6.898,3.521
Fri Nov 22 19:30:03 2024,110,-26.395,-26.395,9.549,9.549,3.739,-1.117,18.062,6.159,5.707,26.424,9.735,1.011,12.965,5.331,10.813,6.898,3.492
Fri Nov 22 19:30:03 2024,115,-26.395,-26.395,9.527,9.527,3.732,-1.124,18.054,6.133,5.737,26.452,9.713,0.909,12.919,5.303,10.829,6.898,3.494
Fri Nov 22 19:30:03 2024,120,-26.391,-26.391,9.500,9.500,3.741,-1.125,18.030,6.114,5.769,26.474,9.700,0.803,12.863,5.289,10.839,6.898,3.508
Fri Nov 22 19:30:03 2024,125,-26.388,-26.388,9.475,9.475,3.749,-1.126,18.006,6.097,5.800,26.495,9.688,0.703,12.809,5.275,10.849,6.898,3.522
Fri Nov 22 19:30:03 2024,130,-26.446,-26.446,9.554,9.554,3.824,-1.116,18.031,6.105,5.806,26.495,9.656,0.599,12.760,5.244,10.858,6.873,3.502
Fri Nov 22 19:30:03 2024,135,-26.491,-26.491,9.615,9.615,3.885,-1.107,18.048,6.108,5.815,26.498,9.627,0.504,12.712,5.216,10.867,6.852,3.489
Fri Nov 22 19:30:03 2024,140,-26.512,-26.512,9.638,9.638,3.884,-1.118,18.051,6.067,5.834,26.540,9.582,0.448,12.735,5.180,10.879,6.834,3.449
Fri Nov 22 19:30:03 2024,145,-26.525,-26.525,9.653,9.653,3.873,-1.130,18.050,6.027,5.851,26.580,9.543,0.409,12.763,5.148,10.888,6.819,3.412
Fri Nov 22 19:30:03 2024,150,-26.542,-26.542,9.679,9.679,3.876,-1.136,18.059,5.997,5.852,26.602,9.501,0.376,12.826,5.130,10.918,6.806,3.398
Fri Nov 22 19:30:03 2024,155,-26.563,-26.563,9.725,9.725,3.907,-1.128,18.084,5.995,5.818,26.580,9.462,0.365,12.952,5.146,10.988,6.799,3.437
Fri Nov 22 19:30:03 2024,160,-26.580,-26.580,9.762,9.762,3.932,-1.122,18.104,5.991,5.791,26.564,9.430,0.354,13.054,5.158,11.045,6.792,3.466
Fri Nov 22 19:30:03 2024,165,-26.575,-26.575,9.745,9.745,3.891,-1.150,18.046,5.980,5.763,26.513,9.409,0.327,13.007,5.132,11.064,6.750,3.430
Fri Nov 22 19:30:03 2024,170,-26.571,-26.571,9.732,9.732,3.860,-1.172,18.003,5.971,5.742,26.475,9.393,0.310,12.973,5.113,11.078,6.719,3.404
Fri Nov 22 19:30:03 2024,175,-26.567,-26.567,9.719,9.719,3.830,-1.193,17.959,5.962,5.721,26.437,9.378,0.290,12.939,5.094,11.092,6.687,3.378
Fri Nov 22 19:30:03 2024,180,-26.583,-26.583,9.721,9.721,3.895,-1.240,17.910,6.045,5.691,26.368,9.434,0.270,12.906,5.174,11.023,6.737,3.438
Fri Nov 22 19:30:03 2024,185,-26.595,-26.595,9.724,9.724,3.912,-1.262,17.888,6.076,5.673,26.333,9.452,0.256,12.887,5.201,11.002,6.747,3.451
Fri Nov 22 19:30:03 2024,190,-26.615,-26.615,9.742,9.742,3.889,-1.238,17.944,6.050,5.681,26.368,9.428,0.264,12.913,5.173,11.034,6.724,3.414
Fri Nov 22 19:30:03 2024,195,-26.636,-26.636,9.761,9.761,3.864,-1.212,18.002,6.023,5.690,26.405,9.403,0.272,12.940,5.143,11.068,6.700,3.377
Fri Nov 22 19:30:03 2024,200,-26.658,-26.658,9.775,9.775,3.860,-1.206,18.023,6.034,5.700,26.432,9.417,0.266,12.922,5.145,11.094,6.678,3.374
Fri Nov 22 19:30:03 2024,205,-26.684,-26.684,9.786,9.786,3.879,-1.219,18.005,6.092,5.711,26.453,9.479,0.245,12.844,5.183,11.116,6.652,3.414
Fri Nov 22 19:30:03 2024,210,-26.702,-26.702,9.807,9.807,3.900,-1.224,17.996,6.112,5.716,26.455,9.486,0.240,12.822,5.193,11.131,6.632,3.433
Fri Nov 22 19:30:03 2024,215,-26.721,-26.721,9.861,9.861,3.955,-1.226,17.972,6.111,5.714,26.422,9.434,0.254,12.843,5.181,11.146,6.611,3.455
Fri Nov 22 19:30:03 2024,220,-26.739,-26.739,9.910,9.910,4.004,-1.228,17.950,6.111,5.714,26.394,9.388,0.265,12.859,5.171,11.159,6.590,3.476
Fri Nov 22 19:30:03 2024,225,-26.750,-26.750,9.886,9.886,3.982,-1.222,17.999,6.180,5.727,26.414,9.460,0.254,12.797,5.201,11.189,6.553,3.463
Fri Nov 22 19:30:03 2024,230,-26.760,-26.760,9.862,9.862,3.958,-1.217,18.046,6.245,5.740,26.434,9.530,0.243,12.738,5.230,11.217,6.518,3.452
Fri Nov 22 19:30:03 2024,235,-26.748,-26.748,9.835,9.835,3.928,-1.203,18.064,6.251,5.763,26.465,9.548,0.229,12.712,5.232,11.212,6.507,3.432
Fri Nov 22 19:30:03 2024,240,-26.698,-26.698,9.792,9.792,3.871,-1.169,18.053,6.182,5.812,26.526,9.507,0.207,12.721,5.201,11.165,6.521,3.391
Fri Nov 22 19:30:03 2024,245,-26.658,-26.658,9.754,9.754,3.823,-1.141,18.048,6.131,5.853,26.578,9.481,0.188,12.722,5.180,11.128,6.529,3.358
Fri Nov 22 19:30:03 2024,250,-26.663,-26.663,9.746,9.746,3.816,-1.134,18.088,6.209,5.806,26.561,9.573,0.136,12.737,5.245,11.183,6.557,3.432
Fri Nov 22 19:30:03 2024,255,-26.660,-26.660,9.732,9.732,3.802,-1.123,18.123,6.267,5.773,26.557,9.647,0.106,12.749,5.296,11.224,6.581,3.490
Fri Nov 22 19:30:03 2024,260,-26.658,-26.658,9.735,9.735,3.796,-1.104,18.140,6.274,5.793,26.578,9.658,-0.103,12.742,5.315,11.240,6.578,3.514
Fri Nov 22 19:30:03 2024,265,-26.660,-26.660,9.755,9.755,3.798,-1.071,18.147,6.234,5.876,26.633,9.608,-0.107,12.711,5.304,11.236,6.547,3.515
Fri Nov 22 19:30:03 2024,270,-26.661,-26.661,9.767,9.767,3.798,-1.049,18.156,6.215,5.925,26.667,9.585,-0.110,12.693,5.304,11.240,6.530,3.522
Fri Nov 22 19:30:03 2024,275,-26.651,-26.651,9.800,9.800,3.862,-1.056,18.116,6.256,5.896,26.645,9.622,-0.216,12.654,5.313,11.197,6.573,3.518
Fri Nov 22 19:30:03 2024,280,-26.646,-26.646,9.821,9.821,3.899,-1.056,18.094,6.276,5.888,26.639,9.639,-0.296,12.627,5.317,11.173,6.595,3.517
Fri Nov 22 19:30:03 2024,285,-26.612,-26.612,9.757,9.757,3.840,-1.048,18.102,6.278,5.896,26.635,9.652,-0.318,12.700,5.365,11.224,6.607,3.547
Fri Nov 22 19:30:03 2024,290,-26.583,-26.583,9.701,9.701,3.788,-1.041,18.110,6.279,5.903,26.633,9.662,-0.329,12.764,5.405,11.269,6.614,3.573
Fri Nov 22 19:30:03 2024,295,-26.559,-26.559,9.653,9.653,3.744,-1.035,18.117,6.279,5.909,26.631,9.670,-0.339,12.819,5.439,11.307,6.621,3.595
Fri Nov 22 19:30:03 2024,300,-26.528,-26.528,9.612,9.612,3.728,-0.997,18.086,6.280,5.920,26.624,9.694,-0.310,12.697,5.442,11.279,6.568,3.578
Fri Nov 22 19:30:03 2024,305,-26.502,-26.502,9.576,9.576,3.704,-0.974,18.069,6.281,5.928,26.620,9.709,-0.297,12.648,5.454,11.276,6.540,3.576
Fri Nov 22 19:30:03 2024,310,-26.511,-26.511,9.543,9.543,3.661,-0.942,18.117,6.302,5.952,26.658,9.720,-0.237,12.650,5.420,11.288,6.500,3.514
Fri Nov 22 19:30:03 2024,315,-26.514,-26.514,9.518,9.518,3.630,-0.919,18.147,6.315,5.969,26.683,9.730,-0.199,12.645,5.398,11.296,6.472,3.473
Fri Nov 22 19:30:03 2024,320,-26.501,-26.501,9.543,9.543,3.666,-0.898,18.116,6.294,5.980,26.681,9.727,-0.153,12.619,5.403,11.286,6.465,3.470
Fri Nov 22 19:30:03 2024,325,-26.486,-26.486,9.580,9.580,3.716,-0.882,18.069,6.265,5.988,26.672,9.721,-0.124,12.591,5.416,11.273,6.467,3.481
Fri Nov 22 19:30:03 2024,330,-26.473,-26.473,9.610,9.610,3.758,-0.869,18.030,6.241,5.994,26.663,9.716,-0.108,12.567,5.426,11.262,6.470,3.491
Fri Nov 22 19:30:03 2024,335,-26.452,-26.452,9.562,9.562,3.708,-0.884,18.052,6.262,5.958,26.623,9.709,-0.118,12.628,5.396,11.254,6.473,3.456
Fri Nov 22 19:30:03 2024,340,-26.435,-26.435,9.540,9.540,3.687,-0.891,18.056,6.269,5.936,26.595,9.703,-0.124,12.662,5.379,11.247,6.476,3.437
Fri Nov 22 19:30:03 2024,345,-26.424,-26.424,9.527,9.527,3.703,-0.850,18.092,6.307,5.960,26.625,9.758,-0.112,12.618,5.427,11.199,6.485,3.458
Fri Nov 22 19:30:03 2024,350,-26.412,-26.412,9.514,9.514,3.719,-0.809,18.128,6.346,5.985,26.655,9.814,0.110,12.574,5.477,11.150,6.494,3.480
Fri Nov 22 19:30:03 2024,355,-26.405,-26.405,9.512,9.512,3.726,-0.804,18.103,6.357,5.980,26.644,9.814,-0.112,12.568,5.480,11.129,6.532,3.513
Fri Nov 22 19:30:03 2024,360,-26.400,-26.400,9.516,9.516,3.730,-0.813,18.060,6.356,5.965,26.621,9.797,-0.124,12.574,5.469,11.120,6.576,3.547
Fri Nov 22 19:30:03 2024,365,-26.394,-26.394,9.519,9.519,3.734,-0.821,18.015,6.355,5.948,26.597,9.778,-0.144,12.581,5.456,11.110,6.622,3.583
Fri Nov 22 19:30:03 2024,370,-26.363,-26.363,9.516,9.516,3.740,-0.783,18.100,6.345,5.988,26.657,9.789,-0.112,12.581,5.432,11.095,6.625,3.520
Fri Nov 22 19:30:03 2024,375,-26.338,-26.338,9.514,9.514,3.746,-0.754,18.157,6.338,6.015,26.698,9.794,0.109,12.581,5.412,11.082,6.635,3.480
Fri Nov 22 19:30:03 2024,380,-26.319,-26.319,9.494,9.494,3.726,-0.748,18.140,6.360,6.029,26.710,9.826,0.110,12.551,5.422,11.082,6.641,3.492
Fri Nov 22 19:30:03 2024,385,-26.306,-26.306,9.474,9.474,3.703,-0.747,18.108,6.385,6.038,26.715,9.860,0.108,12.520,5.438,11.085,6.645,3.516
Fri Nov 22 19:30:03 2024,390,-26.289,-26.289,9.459,9.459,3.688,-0.746,18.084,6.403,6.042,26.719,9.887,-0.115,12.504,5.451,11.078,6.660,3.535
Fri Nov 22 19:30:03 2024,395,-26.267,-26.267,9.469,9.469,3.704,-0.748,18.094,6.390,6.026,26.724,9.883,-0.138,12.549,5.453,11.034,6.718,3.538
Fri Nov 22 19:30:03 2024,400,-26.247,-26.247,9.474,9.474,3.714,-0.750,18.097,6.382,6.014,26.729,9.884,-0.174,12.582,5.456,10.998,6.766,3.544
Fri Nov 22 19:30:03 2024,405,-26.221,-26.221,9.449,9.449,3.697,-0.725,18.122,6.373,6.027,26.749,9.888,-0.203,12.612,5.451,10.992,6.801,3.559
Fri Nov 22 19:30:03 2024,410,-26.193,-26.193,9.410,9.410,3.668,-0.688,18.157,6.362,6.052,26.776,9.892,-0.225,12.639,5.443,11.001,6.828,3.578
Fri Nov 22 19:30:03 2024,415,-26.178,-26.178,9.401,9.401,3.649,-0.681,18.198,6.354,6.052,26.796,9.879,-0.245,12.685,5.431,11.004,6.843,3.577
Fri Nov 22 19:30:03 2024,420,-26.179,-26.179,9.426,9.426,3.628,-0.708,18.267,6.346,6.026,26.814,9.837,-0.260,12.771,5.407,11.007,6.841,3.545
Fri Nov 22 19:30:03 2024,425,-26.177,-26.177,9.438,9.438,3.613,-0.723,18.315,6.339,6.011,26.829,9.810,-0.272,12.830,5.391,11.009,6.842,3.526
Fri Nov 22 19:30:03 2024,430,-26.172,-26.172,9.424,9.424,3.620,-0.687,18.322,6.336,6.095,26.899,9.824,-0.276,12.826,5.390,11.052,6.828,3.518
Fri Nov 22 19:30:03 2024,435,-26.168,-26.168,9.414,9.414,3.624,-0.658,18.338,6.332,6.167,26.965,9.831,-0.284,12.834,5.385,11.090,6.815,3.507
Fri Nov 22 19:30:03 2024,440,-26.170,-26.170,9.420,9.420,3.618,-0.689,18.352,6.334,6.137,26.954,9.837,-0.334,12.901,5.400,11.112,6.856,3.534
Fri Nov 22 19:30:03 2024,445,-26.173,-26.173,9.429,9.429,3.611,-0.728,18.363,6.338,6.095,26.933,9.842,-0.388,12.974,5.418,11.131,6.902,3.564
Fri Nov 22 19:30:03 2024,450,-26.160,-26.160,9.407,9.407,3.580,-0.749,18.372,6.326,6.060,26.908,9.844,-0.423,13.029,5.428,11.142,6.931,3.568
Fri Nov 22 19:30:03 2024,455,-26.120,-26.120,9.328,9.328,3.513,-0.719,18.373,6.284,6.058,26.884,9.836,-0.394,13.017,5.419,11.130,6.906,3.510
Fri Nov 22 19:30:03 2024,460,-26.081,-26.081,9.252,9.252,3.447,-0.693,18.374,6.245,6.053,26.858,9.830,-0.372,13.013,5.411,11.121,6.888,3.456
Fri Nov 22 19:30:03 2024,465,-26.083,-26.083,9.253,9.253,3.455,-0.716,18.331,6.293,6.041,26.859,9.869,-0.360,13.065,5.457,11.131,6.922,3.525
Fri Nov 22 19:30:03 2024,470,-26.084,-26.084,9.252,9.252,3.462,-0.739,18.287,6.342,6.028,26.859,9.910,-0.348,13.120,5.504,11.141,6.956,3.596
Fri Nov 22 19:30:03 2024,475,-26.085,-26.085,9.270,9.270,3.476,-0.742,18.292,6.365,6.020,26.854,9.924,-0.363,13.160,5.523,11.126,6.986,3.612
Fri Nov 22 19:30:03 2024,480,-26.085,-26.085,9.328,9.328,3.513,-0.719,18.366,6.364,6.010,26.840,9.909,-0.424,13.206,5.517,11.065,7.025,3.561
Fri Nov 22 19:30:03 2024,485,-26.084,-26.084,9.362,9.362,3.535,-0.707,18.406,6.366,6.004,26.831,9.902,-0.459,13.236,5.516,11.031,7.051,3.535
Fri Nov 22 19:30:03 2024,490,-26.068,-26.068,9.317,9.317,3.524,-0.660,18.461,6.373,6.022,26.875,9.942,-0.444,13.280,5.521,11.074,7.063,3.552
Fri Nov 22 19:30:03 2024,495,-26.044,-26.044,9.231,9.231,3.495,-0.597,18.520,6.380,6.051,26.946,10.005,-0.402,13.330,5.528,11.156,7.066,3.591
Fri Nov 22 19:30:03 2024,500,-26.044,-26.044,9.210,9.210,3.497,-0.614,18.506,6.410,6.046,26.952,10.064,-0.416,13.372,5.568,11.152,7.102,3.620
Fri Nov 22 19:30:03 2024,505,-26.053,-26.053,9.207,9.207,3.508,-0.662,18.460,6.454,6.028,26.936,10.130,-0.448,13.413,5.627,11.119,7.153,3.653
Fri Nov 22 19:30:03 2024,510,-26.042,-26.042,9.191,9.191,3.521,-0.677,18.431,6.485,6.018,26.921,10.171,-0.467,13.440,5.667,11.104,7.191,3.690
Fri Nov 22 19:30:03 2024,515,-26.006,-26.006,9.159,9.159,3.544,-0.666,18.404,6.518,6.010,26.898,10.202,-0.481,13.463,5.706,11.096,7.232,3.746
Fri Nov 22 19:30:03 2024,520,-25.972,-25.972,9.128,9.128,3.566,-0.656,18.378,6.550,6.002,26.876,10.232,-0.494,13.486,5.744,11.089,7.272,3.800
Fri Nov 22 19:30:03 2024,525,-25.981,-25.981,9.061,9.061,3.512,-0.642,18.470,6.575,6.026,26.943,10.261,-0.495,13.554,5.733,11.104,7.306,3.776
Fri Nov 22 19:30:03 2024,530,-25.990,-25.990,9.014,9.014,3.473,-0.632,18.538,6.592,6.043,26.993,10.280,-0.496,13.602,5.723,11.115,7.329,3.755
Fri Nov 22 19:30:03 2024,535,-25.996,-25.996,8.983,8.983,3.461,-0.628,18.595,6.603,6.061,27.040,10.298,-0.507,13.636,5.711,11.119,7.354,3.739
Fri Nov 22 19:30:03 2024,540,-25.988,-25.988,9.028,9.028,3.547,-0.650,18.582,6.586,6.072,27.046,10.304,-0.550,13.602,5.698,11.096,7.373,3.746
Fri Nov 22 19:30:03 2024,545,-25.985,-25.985,9.046,9.046,3.593,-0.661,18.586,6.580,6.081,27.059,10.312,-0.577,13.590,5.688,11.084,7.389,3.746
Fri Nov 22 19:30:03 2024,550,-26.036,-26.036,9.075,9.075,3.624,-0.682,18.670,6.620,6.065,27.044,10.299,-0.653,13.640,5.666,11.035,7.469,3.750
Fri Nov 22 19:30:03 2024,555,-26.075,-26.075,9.099,9.099,3.653,-0.699,18.732,6.651,6.053,27.034,10.290,-0.714,13.677,5.647,10.996,7.532,3.753
Fri Nov 22 19:30:03 2024,560,-26.108,-26.108,9.138,9.138,3.696,-0.722,18.761,6.652,6.068,27.051,10.275,-0.770,13.679,5.612,11.006,7.556,3.743
Fri Nov 22 19:30:03 2024,565,-26.138,-26.138,9.178,9.178,3.738,-0.743,18.782,6.647,6.088,27.073,10.259,-0.823,13.674,5.577,11.026,7.572,3.731
Fri Nov 22 19:30:03 2024,570,-26.153,-26.153,9.195,9.195,3.765,-0.763,18.792,6.650,6.093,27.077,10.253,-0.855,13.697,5.571,11.037,7.588,3.731
Fri Nov 22 19:30:03 2024,575,-26.143,-26.143,9.169,9.169,3.773,-0.790,18.783,6.673,6.066,27.036,10.266,-0.856,13.806,5.638,11.032,7.616,3.762
Fri Nov 22 19:30:03 2024,580,-26.137,-26.137,9.150,9.150,3.784,-0.816,18.777,6.693,6.044,27.002,10.276,-0.864,13.900,5.692,11.030,7.642,3.786
Fri Nov 22 19:30:03 2024,585,-26.208,-26.208,9.211,9.211,3.855,-0.888,18.714,6.759,5.992,26.947,10.321,-1.002,13.932,5.734,11.038,7.646,3.818
Fri Nov 22 19:30:03 2024,590,-26.265,-26.265,9.260,9.260,3.912,-0.945,18.663,6.813,5.949,26.902,10.356,-1.113,13.959,5.770,11.044,7.649,3.844
Fri Nov 22 19:30:03 2024,595,-26.296,-26.296,9.265,9.265,3.942,-0.950,18.661,6.846,5.914,26.850,10.364,-1.188,13.983,5.784,11.050,7.658,3.856
Fri Nov 22 19:30:03 2024,600,-26.305,-26.305,9.247,9.247,3.951,-0.926,18.686,6.859,5.893,26.808,10.355,-1.224,14.002,5.784,11.054,7.668,3.858
Fri Nov 22 19:30:03 2024,605,-26.314,-26.314,9.229,9.229,3.959,-0.903,18.709,6.872,5.872,26.767,10.347,-1.260,14.019,5.783,11.058,7.676,3.859
Fri Nov 22 19:30:03 2024,610,-26.357,-26.357,9.261,9.261,3.991,-0.977,18.682,6.892,5.854,26.761,10.352,-1.283,14.007,5.777,11.025,7.690,3.851
Fri Nov 22 19:30:03 2024,615,-26.390,-26.390,9.282,9.282,4.015,-1.027,18.662,6.908,5.838,26.752,10.354,-1.304,14.000,5.773,11.001,7.701,3.846
Fri Nov 22 19:30:03 2024,620,-26.413,-26.413,9.303,9.303,4.032,-1.063,18.620,6.871,5.811,26.734,10.315,-1.340,14.007,5.765,10.990,7.726,3.844
Fri Nov 22 19:30:03 2024,625,-26.434,-26.434,9.323,9.323,4.048,-1.096,18.573,6.820,5.781,26.714,10.266,-1.379,14.017,5.756,10.983,7.754,3.844
Fri Nov 22 19:30:03 2024,630,-26.453,-26.453,9.336,9.336,4.060,-1.114,18.548,6.804,5.761,26.695,10.247,-1.411,14.023,5.763,10.985,7.765,3.849
Fri Nov 22 19:30:03 2024,635,-26.468,-26.468,9.336,9.336,4.072,-1.098,18.574,6.884,5.765,26.670,10.308,-1.432,14.026,5.818,11.017,7.728,3.870
Fri Nov 22 19:30:03 2024,640,-26.482,-26.482,9.338,9.338,4.084,-1.088,18.590,6.944,5.764,26.647,10.354,-1.454,14.029,5.864,11.043,7.701,3.888
Fri Nov 22 19:30:03 2024,645,-26.497,-26.497,9.386,9.386,4.157,-1.092,18.616,6.990,5.677,26.539,10.318,-1.510,14.100,5.874,11.026,7.753,3.924
Fri Nov 22 19:30:03 2024,650,-26.508,-26.508,9.423,9.423,4.212,-1.094,18.635,7.022,5.611,26.457,10.290,-1.553,14.152,5.881,11.014,7.793,3.951
Fri Nov 22 19:30:03 2024,655,-26.534,-26.534,9.434,9.434,4.247,-1.110,18.625,7.041,5.545,26.385,10.281,-1.609,14.115,5.875,10.994,7.816,3.974
Fri Nov 22 19:30:03 2024,660,-26.565,-26.565,9.426,9.426,4.261,-1.134,18.597,7.044,5.492,26.334,10.287,-1.662,14.023,5.860,10.974,7.822,3.990
Fri Nov 22 19:30:03 2024,665,-26.590,-26.590,9.420,9.420,4.272,-1.153,18.575,7.048,5.449,26.292,10.292,-1.705,13.948,5.848,10.957,7.827,4.003
Fri Nov 22 19:30:03 2024,670,-26.580,-26.580,9.427,9.427,4.279,-1.166,18.563,7.040,5.415,26.235,10.234,-1.733,13.918,5.804,10.907,7.859,3.947
Fri Nov 22 19:30:03 2024,675,-26.574,-26.574,9.430,9.430,4.284,-1.176,18.553,7.035,5.389,26.194,10.194,-1.756,13.893,5.774,10.872,7.880,3.911
Fri Nov 22 19:30:03 2024,680,-26.595,-26.595,9.520,9.520,4.353,-1.203,18.523,7.032,5.391,26.200,10.174,-1.735,13.926,5.762,10.846,7.891,3.872
Fri Nov 22 19:30:03 2024,685,-26.622,-26.622,9.625,9.625,4.433,-1.232,18.491,7.029,5.402,26.220,10.162,-1.705,13.975,5.758,10.825,7.898,3.837
Fri Nov 22 19:30:03 2024,690,-26.647,-26.647,9.729,9.729,4.521,-1.256,18.471,7.041,5.396,26.212,10.138,-1.696,14.017,5.754,10.808,7.912,3.814
Fri Nov 22 19:30:03 2024,695,-26.660,-26.660,9.800,9.800,4.604,-1.264,18.484,7.082,5.350,26.132,10.091,-1.744,14.033,5.751,10.804,7.944,3.828
Fri Nov 22 19:30:03 2024,700,-26.674,-26.674,9.870,9.870,4.682,-1.272,18.492,7.118,5.312,26.065,10.048,-1.784,14.050,5.746,10.798,7.972,3.836
Fri Nov 22 19:30:03 2024,705,-26.718,-26.718,10.132,10.132,4.870,-1.299,18.449,7.125,5.257,26.027,10.093,-1.799,14.027,5.766,10.782,7.980,3.860
Fri Nov 22 19:30:03 2024,710,-26.765,-26.765,10.404,10.404,5.068,-1.328,18.404,7.132,5.200,25.986,10.138,-1.816,14.004,5.786,10.766,7.988,3.886
Fri Nov 22 19:30:03 2024,715,-26.786,-26.786,10.765,10.765,5.326,-1.346,18.384,7.150,5.164,25.959,10.123,-1.805,14.043,5.795,10.773,7.985,3.917
Fri Nov 22 19:30:03 2024,720,-26.784,-26.784,11.177,11.177,5.619,-1.354,18.388,7.176,5.152,25.945,10.056,-1.769,14.135,5.795,10.802,7.969,3.951
Fri Nov 22 19:30:03 2024,725,-26.785,-26.785,11.512,11.512,5.859,-1.362,18.389,7.198,5.138,25.932,10.007,-1.742,14.204,5.795,10.824,7.958,3.978
Fri Nov 22 19:30:03 2024,730,-26.822,-26.822,11.992,11.992,6.212,-1.385,18.309,7.149,5.115,25.876,9.905,-1.752,14.027,5.681,10.811,7.922,3.921
Fri Nov 22 19:30:03 2024,735,-26.848,-26.848,12.367,12.367,6.490,-1.402,18.252,7.119,5.096,25.837,9.828,-1.754,13.914,5.602,10.805,7.895,3.885
Fri Nov 22 19:30:03 2024,740,-26.872,-26.872,12.875,12.875,6.866,-1.428,18.246,7.121,5.069,25.806,9.748,-1.739,13.928,5.558,10.804,7.882,3.870
Fri Nov 22 19:30:03 2024,745,-26.890,-26.890,13.307,13.307,7.188,-1.451,18.248,7.129,5.045,25.784,9.684,-1.722,13.964,5.530,10.805,7.875,3.863
Fri Nov 22 19:30:03 2024,750,-26.887,-26.887,13.710,13.710,7.480,-1.480,18.227,7.124,5.020,25.757,9.626,-1.736,13.934,5.496,10.776,7.886,3.860
Fri Nov 22 19:30:03 2024,755,-26.863,-26.863,14.078,14.078,7.737,-1.513,18.184,7.109,4.992,25.727,9.575,-1.779,13.844,5.455,10.718,7.915,3.860
Fri Nov 22 19:30:03 2024,760,-26.842,-26.842,14.378,14.378,7.948,-1.540,18.147,7.095,4.969,25.701,9.534,-1.817,13.763,5.421,10.667,7.940,3.860
Fri Nov 22 19:30:03 2024,765,-26.873,-26.873,14.777,14.777,8.237,-1.589,18.093,7.118,4.892,25.628,9.476,-1.849,13.774,5.394,10.634,7.954,3.856
Fri Nov 22 19:30:03 2024,770,-26.903,-26.903,15.140,15.140,8.503,-1.635,18.045,7.141,4.821,25.561,9.424,-1.877,13.788,5.370,10.605,7.965,3.853
Fri Nov 22 19:30:03 2024,775,-26.934,-26.934,15.541,15.541,8.804,-1.656,17.996,7.193,4.755,25.475,9.397,-1.899,13.782,5.382,10.604,7.972,3.894
Fri Nov 22 19:30:03 2024,780,-26.961,-26.961,15.897,15.897,9.075,-1.662,17.955,7.252,4.703,25.394,9.387,-1.914,13.766,5.409,10.617,7.975,3.951
Fri Nov 22 19:30:03 2024,785,-26.988,-26.988,16.249,16.249,9.346,-1.668,17.914,7.311,4.652,25.315,9.378,-1.929,13.750,5.438,10.630,7.977,4.008
Fri Nov 22 19:30:03 2024,790,-26.958,-26.958,17.242,17.242,10.058,-1.685,17.832,7.340,4.578,25.217,9.300,-1.970,13.755,5.422,10.670,7.932,4.066
Fri Nov 22 19:30:03 2024,795,-26.939,-26.939,18.120,18.120,10.700,-1.700,17.754,7.373,4.506,25.122,9.234,-2.006,13.755,5.415,10.705,7.896,4.126
Fri Nov 22 19:30:03 2024,800,-26.936,-26.936,18.952,18.952,11.294,-1.695,17.716,7.490,4.485,25.060,9.214,-2.007,13.734,5.448,10.736,7.829,4.194
Fri Nov 22 19:30:03 2024,805,-26.948,-26.948,20.172,20.172,12.164,-1.669,17.695,7.745,4.501,25.004,9.231,-1.976,13.683,5.538,10.776,7.698,4.307
Fri Nov 22 19:30:03 2024,810,-26.956,-26.956,21.193,21.193,12.917,-1.653,17.667,7.932,4.502,24.952,9.232,-1.959,13.646,5.601,10.811,7.598,4.397
Fri Nov 22 19:30:03 2024,815,-26.752,-26.752,22.966,22.966,14.410,-1.463,17.824,8.224,4.561,24.943,9.187,-1.933,13.588,5.491,10.839,7.473,4.311
Fri Nov 22 19:30:03 2024,820,-26.638,-26.638,24.239,24.239,15.465,-1.350,17.904,8.436,4.594,24.928,9.162,-1.914,13.546,5.443,10.863,7.375,4.284
Fri Nov 22 19:30:03 2024,825,-26.375,-26.375,25.659,25.659,16.465,-1.208,17.918,8.643,4.648,24.913,9.161,-1.823,13.445,5.408,10.990,7.208,4.219
Fri Nov 22 19:30:03 2024,830,-26.095,-26.095,27.064,27.064,17.434,-1.063,17.913,8.841,4.705,24.900,9.164,-1.720,13.335,5.377,11.132,7.034,4.148
Fri Nov 22 19:30:03 2024,835,-25.909,-25.909,28.367,28.367,18.322,-0.980,17.985,9.062,4.779,24.958,9.198,-1.582,13.365,5.361,11.270,6.884,4.105
Fri Nov 22 19:30:03 2024,840,-25.812,-25.812,30.067,30.067,19.386,-0.977,18.281,9.446,4.935,25.182,9.320,-1.281,13.709,5.376,11.491,6.702,4.094
Fri Nov 22 19:30:03 2024,845,-25.754,-25.754,31.432,31.432,20.294,-0.952,18.462,9.724,5.044,25.329,9.398,-1.071,13.905,5.379,11.654,6.556,4.079
Fri Nov 22 19:30:03 2024,850,-25.396,-25.396,32.424,32.424,21.182,-1.283,16.957,9.230,4.652,15.326,9.425,-1.498,13.014,5.544,11.506,6.640,4.488
Fri Nov 22 19:30:03 2024,855,-25.136,-25.136,33.484,33.484,22.122,-1.513,15.799,8.903,4.387,15.568,9.459,-1.780,12.355,5.673,11.420,6.676,4.798
Fri Nov 22 19:30:03 2024,860,-25.387,-25.387,33.707,33.707,22.056,-1.615,15.788,8.925,4.423,15.526,9.516,-1.797,12.487,5.609,11.464,6.679,4.599
Fri Nov 22 19:30:03 2024,865,-26.059,26.059,33.468,33.468,21.460,-1.639,16.376,9.126,4.612,15.382,9.577,-1.673,13.020,5.450,11.572,6.662,4.158
Fri Nov 22 19:30:03 2024,870,-26.915,26.915,33.426,33.426,21.083,-1.681,16.754,9.271,4.758,15.196,9.635,-1.588,13.422,5.323,11.661,6.644,3.803
Fri Nov 22 19:30:03 2024,875,-27.322,27.322,33.604,33.604,21.091,-1.644,16.940,9.446,4.663,24.753,9.517,-1.678,13.771,5.235,11.781,6.711,3.917
Fri Nov 22 19:30:03 2024,880,-27.867,27.867,33.766,33.766,21.092,-1.631,17.119,9.578,4.639,24.783,9.461,-1.712,14.054,5.158,11.870,6.740,3.910
Fri Nov 22 19:30:03 2024,885,-28.799,28.799,32.514,32.514,19.822,-1.432,17.380,9.584,4.880,25.159,9.511,-1.416,14.462,5.291,12.247,6.695,3.937
Fri Nov 22 19:30:03 2024,890,-29.470,29.470,32.197,32.197,19.378,-1.288,17.548,9.561,5.071,25.445,9.544,-1.207,14.716,5.376,12.481,6.649,3.981
Fri Nov 22 19:30:03 2024,895,-29.963,29.963,32.668,32.668,19.584,-1.131,17.689,9.490,5.307,25.747,9.581,-0.985,14.916,5.454,12.676,6.613,4.066
Fri Nov 22 19:30:03 2024,900,-29.856,29.856,34.396,34.396,20.887,-1.019,17.716,9.357,5.526,25.941,9.611,-0.833,14.926,5.484,12.713,6.629,4.191
Fri Nov 22 19:30:03 2024,905,-29.807,29.807,35.963,35.963,22.023,-0.915,17.735,9.236,5.726,26.120,9.638,-0.693,14.933,5.513,12.747,6.643,4.306
Fri Nov 22 19:30:03 2024,910,-30.212,30.212,36.184,36.184,22.284,-0.879,17.467,9.071,5.745,25.969,9.903,-0.644,14.477,5.847,12.541,6.804,4.625
Fri Nov 22 19:30:03 2024,915,-30.670,30.670,36.542,36.542,22.640,-0.834,17.242,8.922,5.788,20.007,10.124,-0.583,14.100,6.130,12.376,6.936,4.908
Fri Nov 22 19:30:03 2024,920,-31.079,31.079,36.800,36.800,22.906,-0.800,17.071,8.811,5.824,14.116,10.287,-0.536,13.819,6.342,12.255,7.031,5.119
Fri Nov 22 19:30:03 2024,925,-31.444,31.444,36.639,36.639,22.793,-0.620,17.297,8.947,5.654,14.298,10.446,-0.287,14.026,6.672,12.015,7.344,5.375
Fri Nov 22 19:30:03 2024,930,-31.756,31.756,36.658,36.658,22.844,-0.543,17.327,8.965,5.602,14.365,10.555,-0.182,14.015,6.861,11.889,7.490,5.536
Fri Nov 22 19:30:03 2024,935,-31.908,31.908,36.027,36.027,22.535,-0.291,17.762,9.071,5.775,14.174,10.618,0.276,14.147,6.885,11.868,7.612,5.641
Fri Nov 22 19:30:03 2024,940,-32.134,32.134,35.613,35.613,22.347,-0.105,18.046,9.146,5.876,14.063,10.687,0.586,14.210,6.949,11.825,7.722,5.752
Fri Nov 22 19:30:03 2024,945,-32.279,32.279,34.489,34.489,21.737,0.034,18.112,9.165,5.956,13.995,10.846,0.822,14.089,7.076,11.762,7.850,5.835
Fri Nov 22 19:30:03 2024,950,-32.442,32.442,33.537,33.537,21.204,0.164,18.152,9.180,6.023,13.939,10.981,1.015,13.978,7.182,11.710,7.952,5.905
Fri Nov 22 19:30:03 2024,955,-32.510,32.510,32.687,32.687,20.666,0.246,18.299,9.207,6.064,13.890,11.061,1.170,13.996,7.247,11.640,8.067,5.900
Fri Nov 22 19:30:03 2024,960,-32.435,32.435,31.871,31.871,20.060,0.281,18.618,9.254,6.078,13.842,11.076,1.292,14.194,7.262,11.537,8.212,5.792
Fri Nov 22 19:30:03 2024,965,-32.429,32.429,31.086,31.086,19.484,0.326,18.869,9.294,6.097,13.789,11.107,1.414,14.333,7.288,11.449,8.337,5.715
Fri Nov 22 19:30:03 2024,970,-32.000,32.000,30.470,30.470,19.132,0.358,19.146,9.370,5.995,26.132,11.143,1.375,14.458,7.275,11.468,8.362,5.661
Fri Nov 22 19:30:03 2024,975,-31.746,31.746,29.956,29.956,18.808,0.386,19.326,9.425,5.934,26.093,11.171,1.368,14.558,7.271,11.468,8.392,5.616
Fri Nov 22 19:30:03 2024,980,-31.471,31.471,29.381,29.381,18.450,0.402,19.503,9.507,5.850,26.030,11.191,1.335,14.675,7.266,11.478,8.405,5.565
Fri Nov 22 19:30:03 2024,985,-31.160,31.160,28.690,28.690,18.029,0.384,19.612,9.655,5.710,25.908,11.188,1.232,14.828,7.256,11.519,8.371,5.502
Fri Nov 22 19:30:03 2024,990,-30.960,30.960,28.212,28.212,17.724,0.382,20.428,9.745,5.625,25.838,11.192,1.178,14.928,7.251,11.541,8.358,5.460
Fri Nov 22 19:30:03 2024,995,-30.596,30.596,27.888,27.888,17.511,0.324,20.538,9.806,5.454,25.684,11.065,1.130,15.090,7.164,11.608,8.308,5.401
Fri Nov 22 19:30:04 2024,0,-30.310,30.310,27.517,27.517,17.251,0.295,20.717,9.884,5.322,25.569,11.001,1.095,15.204,7.107,11.663,8.265,5.348
Fri Nov 22 19:30:04 2024,5,-30.056,30.056,27.156,27.156,16.980,0.289,20.907,9.975,5.214,25.482,10.983,1.082,15.267,7.063,11.714,8.221,5.298
Fri Nov 22 19:30:04 2024,10,-29.862,29.862,26.849,26.849,16.740,0.295,21.071,10.057,5.133,25.420,10.985,1.079,15.300,7.031,11.756,8.183,5.257
Fri Nov 22 19:30:04 2024,15,-29.637,29.637,26.492,26.492,16.464,0.284,21.234,10.128,5.042,25.353,10.974,1.066,15.347,6.996,11.802,8.142,5.215
Fri Nov 22 19:30:04 2024,20,-29.394,29.394,26.146,26.146,16.215,0.227,21.314,10.124,4.960,25.298,10.920,1.026,15.420,6.968,11.836,8.114,5.192
Fri Nov 22 19:30:04 2024,25,-29.231,29.231,25.882,25.882,16.018,0.193,21.393,10.136,4.897,25.257,10.889,1.001,15.469,6.946,11.863,8.090,5.171
Fri Nov 22 19:30:04 2024,30,-28.980,28.980,25.400,25.400,15.513,0.122,21.539,10.140,4.931,25.322,10.875,0.999,15.469,6.891,11.920,8.030,5.092
Fri Nov 22 19:30:04 2024,35,-28.803,28.803,25.034,25.034,15.134,0.068,21.652,10.145,4.948,25.364,10.862,0.995,15.474,6.850,11.962,7.986,5.036
Fri Nov 22 19:30:04 2024,40,-28.575,28.575,24.738,24.738,14.845,0.030,21.782,10.148,4.963,25.403,10.836,1.023,15.476,6.804,11.951,7.999,4.980
Fri Nov 22 19:30:04 2024,45,-28.324,28.324,24.511,24.511,14.638,0.000,21.915,10.152,4.975,25.437,10.803,1.074,15.474,6.757,11.901,8.055,4.929
Fri Nov 22 19:30:04 2024,50,-28.100,28.100,24.179,24.179,14.314,0.017,22.065,10.150,5.010,25.500,10.784,1.174,15.489,6.726,11.887,8.076,4.888
Fri Nov 22 19:30:04 2024,55,-27.918,27.918,23.809,23.809,13.940,0.050,22.211,10.143,5.061,25.579,10.779,1.314,15.516,6.714,11.896,8.073,4.860
Fri Nov 22 19:30:04 2024,60,-27.737,27.737,23.397,23.397,13.522,0.088,22.371,10.134,5.118,25.668,10.775,1.470,15.540,6.702,11.909,8.067,4.832
Fri Nov 22 19:30:04 2024,65,-27.515,27.515,23.124,23.124,13.244,0.093,22.531,10.150,5.185,25.757,10.772,1.633,15.559,6.743,11.864,8.122,4.879
Fri Nov 22 19:30:04 2024,70,-27.317,27.317,22.861,22.861,12.973,0.098,22.680,10.165,5.248,25.839,10.769,1.785,15.570,6.780,11.823,8.168,4.920
Fri Nov 22 19:30:04 2024,75,-27.274,27.274,22.588,22.588,12.681,0.140,22.845,10.160,5.411,26.059,10.758,2.043,15.541,6.733,11.857,8.139,4.893
Fri Nov 22 19:30:04 2024,80,-27.299,27.299,22.371,22.371,12.444,0.186,22.980,10.149,5.578,26.286,10.746,2.287,15.490,6.664,11.912,8.086,4.845
Fri Nov 22 19:30:04 2024,85,-27.326,27.326,22.142,22.142,12.196,0.235,23.123,10.138,5.754,26.524,10.733,2.542,15.420,6.592,11.970,8.030,4.796
Fri Nov 22 19:30:04 2024,90,27.148,27.148,21.733,21.733,11.765,0.304,23.307,10.125,5.916,26.703,10.694,2.736,15.410,6.588,11.993,8.007,4.755
Fri Nov 22 19:30:04 2024,95,27.036,27.036,21.402,21.402,11.414,0.362,23.462,10.115,6.062,26.870,10.664,2.917,15.380,6.572,12.020,7.980,4.717
Fri Nov 22 19:30:04 2024,100,26.901,26.901,21.223,21.223,11.237,0.358,23.611,10.135,6.159,27.024,10.658,3.082,15.360,6.553,12.069,7.929,4.713
Fri Nov 22 19:30:04 2024,105,26.804,26.804,21.136,21.136,11.158,0.341,23.712,10.157,6.215,27.126,10.660,3.191,15.347,6.539,12.107,7.889,4.719
Fri Nov 22 19:30:04 2024,110,26.713,26.713,21.051,21.051,11.081,0.324,23.810,10.178,6.269,27.226,10.662,3.297,15.330,6.525,12.144,7.849,4.724
Fri Nov 22 19:30:04 2024,115,26.617,26.617,20.784,20.784,10.758,0.369,23.867,10.143,6.438,27.405,10.725,3.431,15.147,6.526,12.267,7.727,4.652
Fri Nov 22 19:30:04 2024,120,26.539,26.539,20.604,20.604,10.544,0.392,23.924,10.126,6.551,27.536,10.764,3.536,15.033,6.524,12.349,7.644,4.610
Fri Nov 22 19:30:04 2024,125,26.479,26.479,20.443,20.443,10.406,0.400,23.990,10.179,6.594,27.604,10.823,3.618,14.987,6.560,12.449,7.541,4.649
Fri Nov 22 19:30:04 2024,130,26.432,26.432,20.304,20.304,10.316,0.399,24.054,10.258,6.601,27.637,10.887,3.683,14.975,6.611,12.548,7.436,4.720
Fri Nov 22 19:30:04 2024,135,26.374,26.374,20.200,20.200,10.236,0.438,24.086,10.293,6.659,27.673,10.912,3.769,14.866,6.616,12.629,7.357,4.712
Fri Nov 22 19:30:04 2024,140,26.321,26.321,20.129,20.129,10.182,0.489,24.099,10.309,6.722,27.699,10.918,3.849,14.737,6.604,12.692,7.299,4.678
Fri Nov 22 19:30:04 2024,145,26.278,26.278,20.070,20.070,10.137,0.531,24.111,10.323,6.775,27.721,10.923,3.917,14.627,6.595,12.746,7.249,4.649
Fri Nov 22 19:30:04 2024,150,26.284,26.284,20.156,20.156,10.214,0.554,24.067,10.500,6.809,27.721,11.076,3.998,14.492,6.685,12.954,7.043,4.654
Fri Nov 22 19:30:04 2024,155,26.283,26.283,20.208,20.208,10.262,0.576,24.039,10.627,6.842,27.725,11.186,4.065,14.379,6.748,13.109,6.889,4.653
Fri Nov 22 19:30:04 2024,160,26.352,26.352,20.319,20.319,10.367,0.649,24.046,10.732,6.949,27.791,11.281,4.151,14.219,6.806,13.302,6.696,4.628
Fri Nov 22 19:30:04 2024,165,26.421,26.421,20.430,20.430,10.471,0.722,24.052,10.836,7.056,27.856,11.377,4.237,14.059,6.865,13.495,6.504,4.602
Fri Nov 22 19:30:04 2024,170,26.490,26.490,20.542,20.542,10.576,0.795,24.059,10.941,7.164,27.922,11.472,4.323,13.899,6.923,13.687,6.312,4.577
Fri Nov 22 19:30:04 2024,175,26.789,26.789,20.647,20.647,10.667,0.869,23.900,11.021,7.255,27.974,11.604,4.348,13.706,6.911,13.949,6.049,4.538
Fri Nov 22 19:30:04 2024,180,27.009,27.009,20.741,20.741,10.749,0.932,23.798,11.095,7.339,28.024,11.711,4.382,13.542,6.913,14.162,5.835,4.506
Fri Nov 22 19:30:04 2024,185,27.120,27.120,21.062,21.062,11.098,1.004,23.786,11.188,7.414,28.036,11.748,4.498,13.378,6.936,14.272,5.724,4.472
Fri Nov 22 19:30:04 2024,190,27.246,27.246,21.382,21.382,11.447,1.078,23.771,11.282,7.490,28.053,11.788,4.614,13.212,6.958,14.387,5.606,4.438
Fri Nov 22 19:30:04 2024,195,-27.350,27.350,21.711,21.711,11.777,1.183,23.768,11.380,7.598,28.131,11.825,4.749,13.058,6.963,14.438,5.553,4.405
Fri Nov 22 19:30:04 2024,200,-27.450,27.450,22.063,22.063,12.111,1.313,23.775,11.484,7.729,28.246,11.860,4.902,12.903,6.960,14.454,5.535,4.371
Fri Nov 22 19:30:04 2024,205,-27.551,27.551,22.396,22.396,12.428,1.437,23.785,11.582,7.853,28.356,11.894,5.046,12.756,6.957,14.469,5.517,4.340
Fri Nov 22 19:30:04 2024,210,-27.784,27.784,23.026,23.026,13.048,1.538,23.714,11.594,7.990,28.449,11.848,5.197,12.584,6.882,14.466,5.513,4.226
Fri Nov 22 19:30:04 2024,215,-28.019,28.019,23.611,23.611,13.617,1.646,23.663,11.624,8.128,28.550,11.817,5.349,12.414,6.819,14.467,5.506,4.126
Fri Nov 22 19:30:04 2024,220,-28.149,28.149,24.167,24.167,14.114,1.749,23.611,11.695,8.233,28.623,11.796,5.442,12.295,6.784,14.545,5.422,4.096
Fri Nov 22 19:30:04 2024,225,-28.244,28.244,24.788,24.788,14.650,1.864,23.551,11.795,8.337,28.695,11.779,5.520,12.184,6.758,14.668,5.290,4.093
Fri Nov 22 19:30:04 2024,230,-28.379,28.379,25.353,25.353,15.134,1.969,23.505,11.882,8.434,28.764,11.762,5.596,12.078,6.731,14.774,5.176,4.084
Fri Nov 22 19:30:04 2024,235,-28.626,28.626,26.423,26.423,16.086,2.062,23.431,11.924,8.527,28.797,11.646,5.684,11.776,6.570,14.756,5.140,3.901
Fri Nov 22 19:30:04 2024,240,-28.835,28.835,27.162,27.162,16.719,2.139,23.383,11.967,8.602,28.835,11.576,5.751,11.578,6.471,14.769,5.086,3.794
Fri Nov 22 19:30:04 2024,245,-28.945,28.945,28.024,28.024,17.464,2.303,23.402,12.016,8.724,28.911,11.523,5.792,11.290,6.312,14.817,4.972,3.674
Fri Nov 22 19:30:04 2024,250,-29.089,29.089,28.889,28.889,18.193,2.472,23.436,12.066,8.848,11.006,11.472,5.830,10.991,6.148,14.866,4.845,3.552
Fri Nov 22 19:30:04 2024,255,-29.306,29.306,29.848,29.848,18.952,2.553,23.460,12.128,8.912,10.968,11.402,5.826,10.794,5.998,14.907,4.722,3.448
Fri Nov 22 19:30:04 2024,260,-29.737,29.737,31.408,31.408,20.113,2.556,23.473,12.242,8.921,10.977,11.271,5.760,10.642,5.789,14.959,4.544,3.315
Fri Nov 22 19:30:04 2024,265,-30.104,30.104,32.496,32.496,20.883,2.573,23.486,12.320,8.940,10.973,11.181,5.720,10.510,5.637,14.995,4.405,3.217
Fri Nov 22 19:30:04 2024,270,-30.718,30.718,34.347,34.347,22.024,2.454,23.284,12.421,8.885,11.046,11.117,5.310,10.562,5.476,15.018,4.214,3.207
Fri Nov 22 19:30:04 2024,275,-31.329,31.329,35.719,35.719,22.799,2.372,23.145,12.500,8.850,11.095,11.063,5.019,10.569,5.349,15.039,4.052,3.190
Fri Nov 22 19:30:04 2024,280,-31.929,31.929,36.847,36.847,23.382,2.303,23.029,12.566,8.821,11.134,11.017,4.774,10.567,5.243,15.057,3.908,3.178
Fri Nov 22 19:30:04 2024,285,-30.614,30.614,38.423,38.423,24.396,2.274,23.032,12.393,8.704,11.226,10.718,3.990,10.947,4.903,15.017,3.823,3.061
Fri Nov 22 19:30:04 2024,290,-30.321,30.321,39.069,39.069,24.768,2.266,23.025,12.312,8.648,11.259,10.549,3.564,11.090,4.700,15.006,3.718,2.980
Fri Nov 22 19:30:04 2024,295,-30.043,30.043,38.179,38.179,24.188,2.339,23.104,12.203,8.641,11.214,10.414,3.377,11.154,4.546,15.002,3.634,2.869
Fri Nov 22 19:30:04 2024,300,-29.940,29.940,37.390,37.390,23.570,2.402,23.172,12.096,8.628,28.834,10.270,3.149,11.226,4.389,14.997,3.540,2.761
Fri Nov 22 19:30:04 2024,305,-30.017,30.017,35.143,35.143,21.851,2.186,22.929,12.061,8.591,28.911,10.343,2.960,11.317,4.277,14.872,3.571,2.526
Fri Nov 22 19:30:04 2024,310,-30.177,30.177,33.233,33.233,20.288,2.007,22.729,12.034,8.563,28.993,10.408,2.808,11.391,4.192,14.769,3.597,2.341
Fri Nov 22 19:30:04 2024,315,-30.361,30.361,31.718,31.718,19.010,1.866,22.573,12.013,8.541,29.070,10.459,2.688,11.446,4.128,14.688,3.615,2.202
Fri Nov 22 19:30:04 2024,320,-29.954,29.954,32.278,32.278,19.497,1.305,22.289,11.745,8.222,28.817,10.450,2.503,11.816,4.342,14.622,3.700,2.366
Fri Nov 22 19:30:04 2024,325,-29.907,29.907,32.114,32.114,19.387,0.937,22.129,11.585,8.029,28.705,10.463,2.357,12.045,4.444,14.559,3.753,2.417
Fri Nov 22 19:30:04 2024,330,-30.448,30.448,32.759,32.759,20.061,0.579,21.520,11.569,7.864,28.342,10.403,1.833,11.599,4.442,14.487,3.707,2.607
Fri Nov 22 19:30:04 2024,335,-30.794,30.794,33.139,33.139,20.456,0.313,21.145,11.539,7.739,28.119,10.369,1.498,11.330,4.454,14.436,3.682,2.734
Fri Nov 22 19:30:04 2024,340,-31.131,31.131,33.501,33.501,20.825,0.059,20.818,11.511,7.623,27.920,10.337,1.184,11.061,4.465,14.390,3.657,2.856
Fri Nov 22 19:30:04 2024,345,-31.487,31.487,33.968,33.968,21.511,0.533,19.906,11.540,7.692,18.483,10.533,1.259,10.506,4.642,14.616,3.124,2.867
Fri Nov 22 19:30:04 2024,350,-31.770,31.770,34.325,34.325,21.953,0.664,19.325,11.545,7.683,12.257,10.613,1.185,10.150,4.730,14.708,2.858,2.918
Fri Nov 22 19:30:04 2024,355,-31.532,31.532,34.775,34.775,22.556,0.776,19.095,11.574,7.561,12.418,10.604,1.049,9.892,4.830,14.698,2.765,3.039
Fri Nov 22 19:30:04 2024,360,-30.506,10.230,35.575,35.575,23.692,0.918,18.693,11.649,7.223,12.771,10.464,0.762,9.639,4.994,14.538,2.872,3.317
Fri Nov 22 19:30:04 2024,365,-30.283,-30.283,35.772,35.772,24.066,1.023,18.605,11.804,7.151,12.826,10.386,0.635,9.694,5.039,14.563,2.827,3.389
Fri Nov 22 19:30:04 2024,370,-30.248,-30.248,35.304,35.304,23.796,1.110,20.608,12.208,7.260,12.724,10.221,0.560,10.394,4.952,14.735,2.769,3.288
Fri Nov 22 19:30:04 2024,375,-30.187,-30.187,34.888,34.888,23.550,1.144,21.344,12.336,7.249,12.708,10.152,0.490,10.683,4.922,14.818,2.726,3.254
Fri Nov 22 19:30:04 2024,380,-30.115,-30.115,33.981,33.981,22.864,1.109,21.658,12.301,7.176,12.738,10.131,0.428,10.917,4.879,14.902,2.680,3.198
Fri Nov 22 19:30:04 2024,385,-30.086,-30.086,33.290,33.290,22.376,1.093,22.044,12.306,7.123,20.001,10.099,0.368,11.152,4.843,14.982,2.635,3.152
Fri Nov 22 19:30:04 2024,390,-30.007,-30.007,32.310,32.310,21.730,0.972,21.949,11.980,6.980,20.138,9.980,0.088,11.145,4.770,14.845,2.703,3.088
Fri Nov 22 19:30:04 2024,395,-29.888,-29.888,30.761,30.761,20.735,0.735,21.510,11.322,6.723,13.148,9.760,-0.263,10.983,4.644,14.521,2.863,2.990
Fri Nov 22 19:30:04 2024,400,-29.864,-29.864,29.918,29.918,20.209,0.615,21.367,10.997,6.585,13.283,9.645,-0.422,10.937,4.577,14.376,2.931,2.937
Fri Nov 22 19:30:04 2024,405,-29.945,-29.945,28.390,28.390,19.060,0.103,21.466,10.620,6.324,26.568,9.536,-0.477,11.282,4.486,14.111,3.390,2.980
Fri Nov 22 19:30:04 2024,410,-29.991,-29.991,27.403,27.403,18.383,-0.180,21.543,10.319,6.148,26.457,9.441,-0.574,11.419,4.420,13.930,3.627,2.982
Fri Nov 22 19:30:04 2024,415,-29.947,-29.947,25.626,25.626,16.889,-0.396,21.809,10.155,6.103,26.470,9.496,-0.477,11.798,4.526,13.795,3.864,2.991
Fri Nov 22 19:30:04 2024,420,-29.937,-29.937,24.381,24.381,15.895,-0.593,22.006,9.985,6.033,26.455,9.504,-0.447,12.052,4.571,13.671,4.059,2.998
Fri Nov 22 19:30:04 2024,425,-29.944,-29.944,23.105,23.105,14.960,-0.728,22.054,9.810,5.876,26.338,9.509,-0.488,12.211,4.563,13.536,4.283,3.010
Fri Nov 22 19:30:04 2024,430,-29.957,-29.957,22.154,22.154,14.272,-0.834,22.104,9.677,5.761,26.255,9.512,-0.517,12.336,4.560,13.433,4.452,3.021
Fri Nov 22 19:30:04 2024,435,-29.977,-29.977,21.278,21.278,13.648,-0.935,22.154,9.552,5.651,26.179,9.516,-0.546,12.453,4.557,13.336,4.610,3.031
Fri Nov 22 19:30:04 2024,440,-30.093,-30.093,19.904,19.904,12.676,-1.037,22.089,9.363,5.615,26.149,9.588,-0.673,12.453,4.608,13.145,4.812,3.104
Fri Nov 22 19:30:04 2024,445,-30.170,-30.170,18.882,18.882,11.963,-1.125,22.076,9.219,5.561,26.111,9.629,-0.754,12.487,4.636,13.010,4.973,3.148
Fri Nov 22 19:30:04 2024,450,-30.204,-30.204,18.068,18.068,11.399,-1.208,22.090,9.122,5.496,26.062,9.670,-0.853,12.532,4.662,12.917,5.096,3.194
Fri Nov 22 19:30:04 2024,455,-30.169,-30.169,17.119,17.119,10.737,-1.335,22.167,9.060,5.362,25.958,9.739,-1.061,12.630,4.707,12.853,5.223,3.276
Fri Nov 22 19:30:04 2024,460,-30.179,-30.179,16.346,16.346,10.215,-1.427,22.209,8.984,5.277,25.895,9.787,-1.190,12.686,4.738,12.780,5.337,3.332
Fri Nov 22 19:30:04 2024,465,-30.284,-30.284,15.340,15.340,9.463,-1.483,22.175,8.936,5.239,25.893,9.938,-1.362,12.513,4.822,12.809,5.285,3.429
Fri Nov 22 19:30:04 2024,470,-30.311,-30.311,14.584,14.584,8.922,-1.542,22.163,8.890,5.168,25.832,10.019,-1.488,12.459,4.877,12.793,5.306,3.493
Fri Nov 22 19:30:04 2024,475,-30.242,-30.242,13.554,13.554,8.169,-1.620,22.095,8.838,4.992,25.612,10.093,-1.651,12.438,4.959,12.752,5.354,3.567
Fri Nov 22 19:30:04 2024,480,-30.203,-30.203,12.750,12.750,7.594,-1.682,22.060,8.795,4.862,25.452,10.155,-1.780,12.413,5.023,12.723,5.390,3.628
Fri Nov 22 19:30:04 2024,485,-30.152,-30.152,11.698,11.698,6.738,-1.692,22.082,8.768,4.817,25.453,10.308,-1.835,12.398,5.114,12.778,5.360,3.680
Fri Nov 22 19:30:04 2024,490,-30.110,-30.110,10.831,10.831,6.043,-1.699,22.101,8.746,4.781,25.456,10.436,-1.879,12.386,5.189,12.824,5.336,3.724
Fri Nov 22 19:30:04 2024,495,-30.030,-30.030,9.947,9.947,5.327,-1.682,22.091,8.713,4.763,25.442,10.525,-1.929,12.356,5.234,12.842,5.289,3.714
Fri Nov 22 19:30:04 2024,500,-29.938,-29.938,9.111,9.111,4.649,-1.652,22.068,8.675,4.756,25.420,10.589,-1.979,12.319,5.263,12.845,5.234,3.679
Fri Nov 22 19:30:04 2024,505,-29.850,-29.850,8.315,8.315,4.015,-1.625,22.046,8.640,4.750,25.400,10.650,-2.026,12.284,5.290,12.847,5.181,3.646
Fri Nov 22 19:30:04 2024,510,-29.739,-29.739,7.430,7.430,3.286,-1.694,22.122,8.639,4.662,25.333,10.761,-2.091,12.311,5.397,12.893,5.173,3.737
Fri Nov 22 19:30:04 2024,515,-29.650,-29.650,6.693,6.693,2.697,-1.738,22.172,8.632,4.600,25.283,10.847,-2.142,12.324,5.476,12.925,5.158,3.795
Fri Nov 22 19:30:04 2024,520,-29.527,-29.527,5.983,5.983,2.131,-1.756,22.225,8.551,4.579,25.251,10.842,-2.234,12.208,5.469,12.912,5.148,3.745
Fri Nov 22 19:30:04 2024,525,-29.406,-29.406,5.300,5.300,1.594,-1.771,22.277,8.468,4.563,25.220,10.830,-2.326,12.086,5.454,12.897,5.138,3.688
Fri Nov 22 19:30:04 2024,530,-29.300,-29.300,4.709,4.709,1.168,-1.781,22.323,8.387,4.552,25.196,10.809,-2.410,11.965,5.433,12.878,5.130,3.628
Fri Nov 22 19:30:04 2024,535,-29.126,-29.126,3.998,3.998,0.746,-1.779,22.278,8.296,4.448,25.026,10.859,-2.564,11.785,5.426,12.801,5.181,3.638
Fri Nov 22 19:30:04 2024,540,-29.010,-29.010,3.485,3.485,0.303,-1.779,22.261,8.228,4.387,24.927,10.882,-2.668,11.660,5.418,12.754,5.208,3.632
Fri Nov 22 19:30:04 2024,545,-28.873,-28.873,2.900,2.900,-0.972,-1.784,22.312,8.177,4.364,24.885,10.898,-2.689,11.648,5.434,12.747,5.208,3.596
Fri Nov 22 19:30:04 2024,550,-28.724,-28.724,2.286,2.286,-1.436,-1.794,22.434,8.146,4.383,24.906,10.902,-2.621,11.759,5.474,12.783,5.179,3.528
Fri Nov 22 19:30:04 2024,555,-28.623,-28.623,-0.536,1.860,-1.797,-1.799,22.502,8.118,4.383,24.902,10.909,-2.601,11.799,5.495,12.795,5.167,3.491
Fri Nov 22 19:30:04 2024,560,-28.464,-28.464,-1.315,1.315,-2.372,-1.927,22.519,7.959,4.366,24.920,10.924,-2.653,11.738,5.512,12.806,5.203,3.522
Fri Nov 22 19:30:04 2024,565,-28.354,-28.354,-0.912,0.912,-2.795,-1.995,22.552,7.868,4.357,24.928,10.934,-2.674,11.720,5.528,12.815,5.219,3.528
Fri Nov 22 19:30:04 2024,570,-28.164,-28.164,-0.513,0.513,-3.333,-2.026,22.622,7.820,4.421,24.997,10.898,-2.582,11.777,5.526,12.819,5.200,3.459
Fri Nov 22 19:30:04 2024,575,-27.999,-27.999,-0.454,0.104,-3.801,-2.053,22.684,7.778,4.477,25.058,10.865,-2.502,11.827,5.524,12.823,5.183,3.398
Fri Nov 22 19:30:04 2024,580,-27.889,-27.889,-0.653,-0.653,-4.122,-2.073,22.725,7.747,4.512,25.097,10.845,-2.451,11.858,5.524,12.825,5.173,3.360
Fri Nov 22 19:30:04 2024,585,-27.745,-27.745,-0.753,-0.753,-4.371,-2.176,22.756,7.689,4.563,25.142,10.813,-2.388,11.866,5.547,12.760,5.149,3.336
Fri Nov 22 19:30:04 2024,590,-27.614,-27.614,-0.916,-0.916,-4.625,-2.222,22.785,7.653,4.607,25.185,10.793,-2.321,11.893,5.563,12.744,5.131,3.316
Fri Nov 22 19:30:04 2024,595,-27.430,-27.430,-1.040,-1.040,-4.838,-2.216,22.795,7.643,4.665,25.236,10.791,-2.210,11.953,5.595,12.786,5.113,3.324
Fri Nov 22 19:30:04 2024,600,-27.280,-27.280,-1.157,-1.157,-5.029,-2.218,22.806,7.632,4.713,25.278,10.787,-2.121,11.999,5.620,12.814,5.098,3.327
Fri Nov 22 19:30:04 2024,605,-27.132,-27.132,-1.212,-1.212,-5.223,-2.223,22.849,7.618,4.760,25.319,10.742,-2.039,12.047,5.614,12.778,5.103,3.279
Fri Nov 22 19:30:04 2024,610,-26.972,-26.972,-1.241,-1.241,-5.437,-2.229,22.911,7.602,4.811,25.361,10.675,-1.952,12.101,5.592,12.707,5.119,3.203
Fri Nov 22 19:30:04 2024,615,-26.760,-26.760,-1.299,-1.299,-5.653,-2.157,22.957,7.655,4.825,25.387,10.652,-1.843,12.224,5.594,12.688,5.142,3.158
Fri Nov 22 19:30:04 2024,620,-26.560,-26.560,-1.353,-1.353,-5.842,-2.074,23.004,7.720,4.826,25.406,10.642,-1.741,12.349,5.600,12.680,5.166,3.123
Fri Nov 22 19:30:04 2024,625,-26.366,-26.366,-1.405,-1.405,-6.026,-1.993,23.056,7.783,4.828,25.425,10.631,-1.642,12.471,5.606,12.673,5.189,3.090
Fri Nov 22 19:30:04 2024,630,-26.122,-26.122,-1.291,-1.291,-6.106,-1.697,23.160,7.978,4.892,25.498,10.600,-1.439,12.585,5.543,12.539,5.351,3.091
Fri Nov 22 19:30:04 2024,635,-25.893,-25.893,-1.196,-1.196,-6.191,-1.435,23.308,8.153,4.947,25.562,10.572,-1.256,12.690,5.491,12.425,5.491,3.089
Fri Nov 22 19:30:04 2024,640,-25.665,-25.665,-1.185,-1.185,-6.288,-1.107,23.512,8.362,4.990,25.593,10.572,-1.106,12.758,5.455,12.289,5.618,3.077
Fri Nov 22 19:30:04 2024,645,-25.321,-25.321,-1.338,-1.338,-6.463,-0.474,23.932,8.753,5.030,25.581,10.627,-0.938,12.792,5.431,12.038,5.788,3.041
Fri Nov 22 19:30:04 2024,650,-25.080,-25.080,-1.406,-1.406,-6.578,-0.066,24.290,9.013,5.062,25.586,10.653,-0.808,12.828,5.408,11.873,5.911,3.019
Fri Nov 22 19:30:04 2024,655,-24.682,-24.682,-1.300,-1.300,-6.460,1.125,25.674,10.300,5.113,25.443,10.669,-0.599,12.568,5.367,11.579,6.114,3.003
Fri Nov 22 19:30:04 2024,660,-24.410,-24.410,-1.249,-1.249,-6.410,1.887,26.636,11.109,5.145,25.380,10.684,-0.460,12.419,5.338,11.381,6.251,2.992
Fri Nov 22 19:30:04 2024,665,-24.046,-24.046,-1.212,-1.212,-6.386,2.733,28.146,12.636,5.383,25.553,10.588,-0.353,12.294,5.172,11.055,6.480,2.927
Fri Nov 22 19:30:04 2024,670,-23.681,-23.681,-1.185,-1.185,-6.378,3.530,29.760,14.405,5.697,21.072,10.446,-0.278,12.198,4.958,10.703,6.727,2.850
Fri Nov 22 19:30:04 2024,675,-23.303,-23.303,-1.143,-1.143,-6.356,4.108,31.230,16.163,6.020,13.882,10.248,-0.180,12.121,4.779,10.428,6.879,2.733
Fri Nov 22 19:30:04 2024,680,-22.867,-22.867,-1.088,-1.088,-6.327,4.586,32.819,18.238,6.417,13.512,9.973,0.053,12.056,4.586,10.161,6.988,2.567
Fri Nov 22 19:30:04 2024,685,-22.510,-22.510,-1.042,-1.042,-6.300,5.017,34.156,20.018,6.739,13.208,9.753,0.212,11.996,4.428,9.934,7.082,2.440
Fri Nov 22 19:30:04 2024,690,-21.981,-21.981,-1.301,-1.301,-6.163,5.416,36.130,24.019,7.218,12.762,9.669,0.426,11.605,4.383,9.644,6.917,2.257
Fri Nov 22 19:30:04 2024,695,-21.509,-21.509,-1.502,-1.502,-6.046,5.820,37.907,27.634,7.636,12.359,9.572,0.622,11.279,4.323,9.376,6.782,2.096
Fri Nov 22 19:30:04 2024,700,-20.992,-20.992,-1.813,-1.813,-5.960,6.059,40.213,32.220,8.111,11.888,9.409,0.902,11.094,4.260,9.168,6.659,1.945
Fri Nov 22 19:30:04 2024,705,-20.463,-20.463,-2.321,-2.321,-5.958,5.862,43.364,38.246,8.652,11.345,9.118,1.332,11.254,4.197,9.135,6.609,1.836
Fri Nov 22 19:30:04 2024,710,-19.992,-19.992,-2.718,-2.718,-5.929,5.866,45.995,43.399,9.113,10.885,8.900,1.671,11.259,4.140,9.044,6.538,1.721
Fri Nov 22 19:30:04 2024,715,-19.695,-19.695,-3.108,-3.108,-5.541,6.565,52.281,51.362,9.086,10.883,8.434,1.963,11.891,4.049,9.072,6.919,1.922
Fri Nov 22 19:30:04 2024,720,-19.432,-19.432,-3.418,-3.418,-5.297,7.076,56.769,57.254,9.150,10.783,8.110,2.201,12.265,3.995,9.071,7.138,2.062
Fri Nov 22 19:30:04 2024,725,-19.263,-19.263,-3.881,-3.881,-5.074,7.830,59.636,61.834,8.968,10.976,8.315,2.206,12.148,4.005,8.883,7.303,2.162
Fri Nov 22 19:30:04 2024,730,-19.193,-19.193,-4.356,-4.356,-4.888,8.607,61.350,65.442,8.686,11.291,8.759,2.096,11.803,4.044,8.623,7.419,2.224
Fri Nov 22 19:30:04 2024,735,-19.192,-19.192,-4.293,-4.293,-4.481,9.452,62.418,68.034,8.584,11.406,9.131,1.987,11.509,4.181,8.459,7.353,2.271
Fri Nov 22 19:30:04 2024,740,-19.227,-19.227,-3.990,-3.990,-3.890,10.547,63.217,70.558,8.516,11.484,9.617,1.828,11.111,4.411,8.282,7.173,2.345
Fri Nov 22 19:30:04 2024,745,-19.269,-19.269,-3.718,-3.718,-3.350,11.577,63.969,72.838,8.454,11.545,10.063,1.684,10.740,4.633,8.122,6.996,2.443
Fri Nov 22 19:30:04 2024,750,-19.154,-19.154,-3.808,-3.808,-3.050,12.153,64.309,74.868,8.401,11.594,10.427,1.510,10.556,4.827,8.000,7.048,2.592
Fri Nov 22 19:30:04 2024,755,-19.076,-19.076,-3.841,-3.841,-2.754,12.729,64.669,76.664,8.354,11.637,10.760,1.361,10.365,5.008,7.888,7.061,2.734
Fri Nov 22 19:30:04 2024,760,-18.999,-18.999,-3.784,-3.784,-2.429,12.999,64.717,77.941,8.423,11.564,11.071,1.265,10.236,5.282,7.838,6.998,2.906
Fri Nov 22 19:30:04 2024,765,-18.920,-18.920,-3.695,-3.695,-2.098,13.150,64.646,79.011,8.535,11.450,11.369,1.190,10.132,5.589,7.810,6.907,3.096
Fri Nov 22 19:30:04 2024,770,-18.848,-18.848,-3.620,-3.620,-1.792,13.317,64.603,80.069,8.631,11.351,11.656,1.114,10.027,5.884,7.780,6.826,3.297
Fri Nov 22 19:30:04 2024,775,-18.569,-18.569,-3.341,-3.341,-1.502,13.477,65.252,80.906,8.833,11.162,11.769,1.165,10.114,6.016,7.879,6.761,3.387
Fri Nov 22 19:30:04 2024,780,-18.384,-18.384,-3.157,-3.157,-1.272,13.616,65.638,81.666,8.978,11.021,11.906,1.178,10.142,6.170,7.932,6.702,3.497
Fri Nov 22 19:30:04 2024,785,-18.070,-18.070,-3.176,-3.176,-1.227,13.618,66.239,82.518,9.071,10.929,11.950,1.238,10.169,6.190,8.040,6.602,3.529
Fri Nov 22 19:30:04 2024,790,-17.792,-17.792,-3.185,-3.185,-1.184,13.625,66.778,83.278,9.157,10.843,11.994,1.290,10.193,6.213,8.136,6.514,3.563
Fri Nov 22 19:30:04 2024,795,-17.517,-17.517,-3.189,-3.189,-1.164,13.667,67.449,84.028,9.229,10.762,12.039,1.350,10.256,6.221,8.236,6.434,3.585
Fri Nov 22 19:30:04 2024,800,-17.280,-17.280,-3.173,-3.173,-1.218,13.838,68.569,84.681,9.245,10.718,12.079,1.431,10.463,6.167,8.346,6.399,3.565
Fri Nov 22 19:30:04 2024,805,-17.083,-17.083,-3.163,-3.163,-1.244,13.950,69.370,85.203,9.270,10.661,12.113,1.490,10.596,6.138,8.431,6.360,3.559
Fri Nov 22 19:30:04 2024,810,-16.941,-16.941,-3.149,-3.149,-1.318,13.841,70.491,85.670,9.245,10.581,12.099,1.591,11.080,6.127,8.632,6.474,3.624
Fri Nov 22 19:30:04 2024,815,-16.819,-16.819,-3.138,-3.138,-1.376,13.769,71.414,86.054,9.224,29.516,12.092,1.670,11.456,6.117,8.790,6.552,3.674
Fri Nov 22 19:30:04 2024,820,-16.635,-16.635,-3.203,-3.203,-1.498,13.586,72.451,86.539,9.307,29.756,12.161,1.739,11.841,6.139,8.925,6.608,3.708
Fri Nov 22 19:30:04 2024,825,-16.398,-16.398,-3.331,-3.331,-1.676,13.319,73.600,87.102,9.474,30.118,12.294,1.804,12.239,6.188,9.045,6.650,3.731
Fri Nov 22 19:30:04 2024,830,-16.222,-16.222,-3.420,-3.420,-1.811,13.134,74.497,87.511,9.589,30.407,12.389,1.855,12.548,6.222,9.142,6.682,3.752
Fri Nov 22 19:30:04 2024,835,-16.031,-16.031,-3.381,-3.381,-1.886,13.081,75.623,87.917,9.571,30.600,12.508,1.995,12.864,6.372,9.264,6.652,3.858
Fri Nov 22 19:30:04 2024,840,-15.878,-15.878,-3.378,-3.378,-1.962,13.024,76.508,88.237,9.584,30.798,12.602,2.090,13.119,6.472,9.359,6.639,3.930
Fri Nov 22 19:30:04 2024,845,-15.666,-15.666,-3.386,-3.386,-2.027,13.096,77.585,88.606,9.620,31.060,12.809,2.213,13.484,6.670,9.432,6.662,4.056
Fri Nov 22 19:30:04 2024,850,-15.488,-15.488,-3.393,-3.393,-2.081,13.174,78.489,88.902,9.650,31.290,12.986,2.315,13.785,6.838,9.492,6.682,4.167
Fri Nov 22 19:30:04 2024,855,-15.327,-15.327,-3.400,-3.400,-2.131,13.257,79.312,89.163,9.676,31.507,13.149,2.406,14.052,6.994,9.547,6.700,4.271
Fri Nov 22 19:30:04 2024,860,-15.011,-15.011,-3.430,-3.430,-2.290,13.478,80.537,89.148,9.730,31.847,13.308,2.518,14.483,7.046,9.582,6.784,4.250
Fri Nov 22 19:30:04 2024,865,-14.781,-14.781,-3.449,-3.449,-2.399,13.658,81.503,89.210,9.767,32.121,13.454,2.608,14.801,7.126,9.619,6.837,4.271
Fri Nov 22 19:30:04 2024,870,-14.854,-14.854,-3.131,-3.131,-2.294,14.135,82.687,89.158,9.846,32.599,13.631,2.706,15.247,7.108,9.551,7.056,4.256
Fri Nov 22 19:30:04 2024,875,-14.873,-14.873,-2.943,-2.943,-2.255,14.472,83.552,89.126,9.895,32.943,13.765,2.775,15.543,7.107,9.514,7.198,4.250
Fri Nov 22 19:30:04 2024,880,-14.864,-14.864,-2.731,-2.731,-2.223,14.823,84.364,89.132,9.901,33.334,14.045,2.807,15.876,7.139,9.417,7.354,4.221
Fri Nov 22 19:30:04 2024,885,-14.837,-14.837,-2.552,-2.552,-2.202,15.101,84.947,89.164,9.876,33.673,14.364,2.805,16.150,7.186,9.301,7.483,4.181
Fri Nov 22 19:30:04 2024,890,-14.822,-14.822,-2.414,-2.414,-2.189,15.335,85.433,89.179,9.863,33.949,14.601,2.810,16.348,7.216,9.219,7.585,4.154
Fri Nov 22 19:30:04 2024,895,-14.806,-14.806,-2.192,-2.192,-2.159,15.683,86.352,89.296,9.956,34.442,14.810,2.819,16.608,7.216,9.178,7.704,4.100
Fri Nov 22 19:30:04 2024,900,-14.792,-14.792,-2.025,-2.025,-0.717,15.989,87.091,89.376,10.021,34.850,15.003,2.826,16.792,7.220,9.135,7.806,4.057
Fri Nov 22 19:30:04 2024,905,-14.776,-14.776,-1.908,-1.908,2.146,16.247,87.700,89.440,10.118,35.212,15.172,2.783,16.944,7.224,9.078,7.888,4.015
Fri Nov 22 19:30:04 2024,910,-14.751,-14.751,-1.800,-1.800,2.134,16.537,88.374,89.511,10.275,35.638,15.369,2.684,17.126,7.228,8.993,7.976,3.962
Fri Nov 22 19:30:04 2024,915,-14.734,-14.734,-1.721,-1.721,2.141,16.783,88.914,89.560,10.382,35.975,15.527,2.626,17.250,7.233,8.934,8.048,3.923
Fri Nov 22 19:30:04 2024,920,-14.777,-14.777,-1.598,-1.598,2.142,17.242,89.476,89.335,10.349,36.281,15.844,2.546,17.404,7.256,8.760,8.270,3.812
Fri Nov 22 19:30:04 2024,925,-14.797,-14.797,-1.526,-1.526,2.159,17.594,89.967,89.218,10.363,36.568,16.082,2.483,17.504,7.270,8.642,8.422,3.737
Fri Nov 22 19:30:04 2024,930,-14.766,-14.766,-1.486,-1.486,2.167,17.899,90.438,89.155,10.358,36.850,16.316,2.432,17.565,7.358,8.589,8.578,3.752
Fri Nov 22 19:30:04 2024,935,-14.715,-14.715,-1.456,-1.456,2.180,18.238,90.968,89.098,10.348,37.173,16.585,2.377,17.594,7.481,8.548,8.757,3.796
Fri Nov 22 19:30:04 2024,940,-14.692,-14.692,-1.442,-1.442,2.193,18.456,91.290,89.056,10.343,37.371,16.750,2.342,22.409,7.546,8.514,8.863,3.810
Fri Nov 22 19:30:04 2024,945,-14.672,-14.672,-1.412,1.412,2.222,18.909,91.775,88.981,10.292,37.557,16.993,2.480,22.589,7.529,8.368,8.953,3.671
Fri Nov 22 19:30:04 2024,950,-14.649,-14.649,-1.407,1.407,2.241,19.242,92.166,88.884,10.254,37.749,17.209,2.557,22.730,7.561,8.283,9.055,3.625
Fri Nov 22 19:30:04 2024,955,-14.613,-14.613,-1.398,1.398,2.228,19.548,92.542,88.637,10.185,37.966,17.478,2.706,23.002,7.636,8.220,9.192,3.660
Fri Nov 22 19:30:04 2024,960,-14.588,-14.588,-1.394,1.394,2.222,19.788,92.830,88.464,10.134,38.130,17.680,2.810,23.210,7.688,8.169,9.294,3.679
Fri Nov 22 19:30:04 2024,965,-14.639,-14.639,-1.401,1.401,2.215,20.220,93.289,88.267,10.057,38.427,17.922,2.927,23.438,7.688,8.154,9.352,3.600
Fri Nov 22 19:30:04 2024,970,-14.724,-14.724,-1.414,1.414,2.208,20.715,93.789,88.078,9.974,38.766,18.161,3.038,23.654,7.660,8.158,9.380,3.480
Fri Nov 22 19:30:04 2024,975,-14.804,-14.804,-1.451,1.451,2.221,21.070,94.140,87.948,9.878,38.974,18.327,3.119,23.830,7.632,8.123,9.421,3.402
Fri Nov 22 19:30:04 2024,980,-14.905,-14.905,-1.520,1.520,2.255,21.366,94.423,87.856,9.753,39.108,18.446,3.185,23.983,7.586,8.057,9.466,3.334
Fri Nov 22 19:30:04 2024,985,-14.975,-14.975,-1.574,1.574,2.279,21.587,94.633,87.786,9.668,39.213,18.538,3.233,24.096,7.555,8.013,9.498,3.284
Fri Nov 22 19:30:04 2024,990,-15.088,-15.088,-1.662,1.662,2.317,21.655,94.763,87.612,9.580,39.416,18.654,3.213,24.278,7.599,7.968,9.528,3.218
Fri Nov 22 19:30:04 2024,995,-15.194,-15.194,-1.754,1.754,2.355,21.746,94.902,87.455,9.493,39.607,18.768,3.201,24.461,7.634,7.924,9.559,3.155
Fri Nov 22 19:30:05 2024,0,-15.248,-15.248,-1.806,1.806,2.376,21.818,94.970,87.374,9.435,39.767,18.918,3.158,24.534,7.655,7.893,9.645,3.174
Fri Nov 22 19:30:05 2024,5,-15.272,-15.272,-1.833,1.833,2.386,21.880,94.997,87.337,9.394,39.907,19.087,3.097,24.544,7.668,7.872,9.759,3.237
Fri Nov 22 19:30:05 2024,10,-15.297,-15.297,-1.860,1.860,2.397,21.930,95.028,87.299,9.360,40.019,19.212,3.055,24.568,7.679,7.854,9.839,3.276
Fri Nov 22 19:30:05 2024,15,-15.346,-15.346,-1.967,1.967,2.473,21.989,95.158,87.223,9.375,40.238,19.200,3.026,24.780,7.806,7.701,9.966,3.276
Fri Nov 22 19:30:05 2024,20,-15.378,-15.378,-2.034,2.034,2.520,22.034,95.236,87.173,9.375,40.383,19.224,2.999,24.906,7.879,7.616,10.054,3.286
Fri Nov 22 19:30:05 2024,25,-15.411,-15.411,-2.114,2.114,2.576,22.177,95.330,87.148,9.427,40.522,19.322,3.057,24.980,7.908,7.577,10.081,3.280
Fri Nov 22 19:30:05 2024,30,-15.442,-15.442,-2.192,2.192,2.632,22.313,95.420,87.125,9.476,40.656,19.416,3.113,25.048,7.935,7.542,10.106,3.274
Fri Nov 22 19:30:05 2024,35,-15.411,-15.411,-2.268,2.268,2.675,22.393,95.484,87.108,9.542,40.766,19.467,3.192,25.145,7.960,7.550,10.064,3.261
Fri Nov 22 19:30:05 2024,40,-15.352,-15.352,-2.342,2.342,2.712,22.446,95.537,87.094,9.614,40.866,19.498,3.281,25.253,7.983,7.579,9.991,3.246
Fri Nov 22 19:30:05 2024,45,-15.305,-15.305,-2.401,2.401,2.741,22.488,95.579,87.083,9.671,40.945,19.523,3.352,25.339,8.001,7.602,9.933,3.233
Fri Nov 22 19:30:05 2024,50,-15.336,-15.336,-2.340,2.340,2.702,22.450,95.526,87.053,9.596,40.914,19.576,3.328,25.418,8.077,7.604,9.955,3.258
Fri Nov 22 19:30:05 2024,55,-15.356,-15.356,-2.296,2.296,2.673,22.424,95.486,87.024,9.538,40.898,19.627,3.320,25.503,8.149,7.609,9.966,3.279
Fri Nov 22 19:30:05 2024,60,-15.380,-15.380,-2.334,2.334,2.698,22.393,95.480,87.008,9.531,40.878,19.647,3.379,25.605,8.218,7.616,9.924,3.309
Fri Nov 22 19:30:05 2024,65,-15.416,-15.416,-2.435,2.435,2.763,22.349,95.492,86.992,9.549,40.845,19.656,3.501,25.759,8.317,7.626,9.834,3.357
Fri Nov 22 19:30:05 2024,70,-15.440,-15.440,-2.499,2.499,2.805,22.319,95.496,86.979,9.558,40.823,19.666,3.580,25.865,8.386,7.633,9.777,3.391
Fri Nov 22 19:30:05 2024,75,-15.371,-15.371,-2.435,2.435,2.746,22.237,95.350,87.017,9.547,40.781,19.676,3.630,25.958,8.447,7.655,9.771,3.397
Fri Nov 22 19:30:05 2024,80,-15.331,-15.331,-2.412,2.412,2.720,22.171,95.248,87.040,9.542,40.744,19.686,3.691,26.058,8.514,7.672,9.747,3.412
Fri Nov 22 19:30:05 2024,85,-15.262,-15.262,-2.397,2.397,2.743,21.959,95.030,87.097,9.508,40.605,19.598,3.715,26.056,8.545,7.632,9.699,3.415
Fri Nov 22 19:30:05 2024,90,-15.208,-15.208,-2.384,2.384,2.761,21.793,94.856,87.143,9.481,40.495,19.530,3.737,26.059,8.572,7.600,9.659,3.418
Fri Nov 22 19:30:05 2024,95,-15.114,-15.114,-2.335,2.335,2.738,21.574,94.613,87.149,9.448,40.364,19.414,3.752,26.088,8.598,7.586,9.630,3.420
Fri Nov 22 19:30:05 2024,100,-14.988,-14.988,-2.242,2.242,2.658,21.343,94.339,87.088,9.419,40.240,19.257,3.749,26.152,8.611,7.608,9.630,3.422
Fri Nov 22 19:30:05 2024,105,-14.870,-14.870,-2.162,2.162,2.599,21.120,94.073,87.045,9.388,40.115,19.112,3.752,26.207,8.628,7.620,9.622,3.424
Fri Nov 22 19:30:05 2024,110,-14.682,-14.682,-2.125,2.125,2.632,20.379,93.364,87.274,9.406,39.841,18.833,3.820,26.152,8.634,7.619,9.511,3.477
Fri Nov 22 19:30:05 2024,115,-14.553,-14.553,-2.094,2.094,2.646,19.904,92.892,87.411,9.413,39.658,18.646,3.863,26.124,8.640,7.620,9.441,3.509
Fri Nov 22 19:30:05 2024,120,-14.390,-14.390,-2.069,2.069,2.675,19.347,92.291,87.617,9.427,39.436,18.443,3.930,26.155,8.710,7.663,9.346,3.592
Fri Nov 22 19:30:05 2024,125,-14.168,-14.168,-2.063,2.063,2.735,18.660,91.462,87.962,9.456,39.154,18.234,4.046,26.324,8.931,7.807,9.206,3.788
Fri Nov 22 19:30:05 2024,130,-13.986,-13.986,-2.050,2.050,2.779,18.099,90.783,88.226,9.476,38.920,18.048,4.134,26.428,9.078,7.902,9.096,3.927
Fri Nov 22 19:30:05 2024,135,-13.634,-13.634,-1.852,1.852,2.688,17.264,89.533,88.355,9.441,38.642,17.713,4.141,26.414,9.226,7.938,8.986,4.112
Fri Nov 22 19:30:05 2024,140,-13.342,-13.342,-1.723,1.723,2.638,16.569,88.471,88.510,9.422,38.386,17.433,4.171,26.434,9.372,7.989,8.879,4.281
Fri Nov 22 19:30:05 2024,145,-12.914,-12.914,-1.497,1.497,2.419,15.778,87.233,88.466,9.449,38.108,17.116,4.241,26.506,9.546,8.135,8.725,4.444
Fri Nov 22 19:30:05 2024,150,-12.458,-12.458,-1.352,1.352,2.208,14.978,85.937,88.384,9.481,37.823,16.790,4.316,26.586,9.728,8.297,8.559,4.611
Fri Nov 22 19:30:05 2024,155,-12.261,-12.261,-1.318,1.318,2.109,14.291,84.599,88.180,9.455,37.517,16.505,4.274,26.604,9.836,8.369,8.491,4.648
Fri Nov 22 19:30:05 2024,160,-12.215,-12.215,-1.281,1.281,2.042,13.619,83.100,87.856,9.391,37.168,16.219,4.152,26.586,9.907,8.392,8.479,4.603
Fri Nov 22 19:30:05 2024,165,-12.160,-12.160,-1.259,-1.259,1.979,13.060,81.786,87.552,9.336,36.865,15.969,4.055,26.579,9.976,8.419,8.460,4.574
Fri Nov 22 19:30:05 2024,170,-12.188,-12.188,-1.251,-1.251,1.937,12.734,80.295,87.147,9.159,36.264,15.562,3.848,26.297,9.942,8.330,8.520,4.625
Fri Nov 22 19:30:05 2024,175,-12.244,-12.244,-1.246,-1.246,1.901,12.501,78.739,86.694,8.942,35.565,15.107,3.603,25.927,9.875,8.203,8.606,4.702
Fri Nov 22 19:30:05 2024,180,-12.332,-12.332,-1.172,-0.485,1.848,12.186,77.381,85.491,8.873,35.081,14.704,3.419,25.650,9.733,8.116,8.676,4.618
Fri Nov 22 19:30:05 2024,185,-12.578,-12.578,-0.952,0.952,1.734,11.512,75.226,81.914,8.972,34.471,13.996,3.151,25.204,9.296,7.981,8.810,4.203
Fri Nov 22 19:30:05 2024,190,-12.617,-12.617,-0.814,0.814,1.712,10.855,73.754,79.091,9.030,34.118,13.462,3.062,25.024,8.992,8.020,8.921,3.947
Fri Nov 22 19:30:05 2024,195,-12.414,-12.414,-0.642,-0.642,-1.961,9.881,72.771,75.917,9.144,34.065,12.960,3.217,25.170,8.689,8.320,9.026,3.723
Fri Nov 22 19:30:05 2024,200,-12.275,-12.275,-0.690,-0.690,-2.457,9.027,71.758,72.754,9.247,33.972,12.469,3.334,25.267,8.391,8.582,9.100,3.497
Fri Nov 22 19:30:05 2024,205,-11.946,-11.946,-0.620,-0.620,-3.141,7.519,68.755,65.851,9.743,33.890,11.755,3.724,25.246,7.983,8.657,9.031,3.032
Fri Nov 22 19:30:05 2024,210,-11.676,-11.676,-0.602,-0.602,-3.791,6.378,66.270,59.954,10.168,33.850,11.148,4.060,25.274,7.630,8.723,8.970,2.630
Fri Nov 22 19:30:05 2024,215,-11.389,-11.389,-0.644,-0.644,-4.549,5.247,61.405,52.770,10.386,33.577,10.837,4.106,24.970,7.377,8.788,8.858,2.540
Fri Nov 22 19:30:05 2024,220,-11.157,-11.157,-0.694,-0.694,-5.194,4.531,56.668,46.707,10.468,33.270,10.721,4.017,24.607,7.229,8.838,8.748,2.616
Fri Nov 22 19:30:05 2024,225,-10.899,-10.899,-0.753,-0.753,-5.941,3.929,51.488,40.599,10.565,32.946,10.589,3.918,24.245,7.065,8.896,8.622,2.715
Fri Nov 22 19:30:05 2024,230,-10.851,-10.851,-0.766,-0.766,-6.281,3.580,47.955,34.599,10.154,32.356,10.523,3.671,23.796,6.705,8.821,8.825,2.510
Fri Nov 22 19:30:05 2024,235,-10.787,-10.787,-0.818,-0.818,-6.640,3.314,44.654,29.545,9.861,31.872,10.452,3.476,16.503,6.418,8.771,8.959,2.375
Fri Nov 22 19:30:05 2024,240,-10.757,-10.757,-0.705,-0.705,-6.781,2.476,41.169,24.204,9.456,31.339,10.293,3.659,16.339,6.194,9.009,9.045,2.260
Fri Nov 22 19:30:05 2024,245,-10.745,-10.745,-0.631,-0.631,-6.835,1.811,38.726,20.513,9.152,30.957,10.160,3.867,16.133,6.053,9.230,9.080,2.205
Fri Nov 22 19:30:05 2024,250,-10.731,-10.731,-0.613,-0.613,-6.898,1.098,35.949,16.551,8.802,30.513,9.999,4.108,15.889,5.891,9.477,9.104,2.169
Fri Nov 22 19:30:05 2024,255,-10.809,-10.809,-0.529,-0.529,-7.073,0.197,33.675,14.071,8.492,30.304,9.937,4.622,15.373,5.877,9.895,8.783,2.061
Fri Nov 22 19:30:05 2024,260,-10.856,-10.856,-0.489,-0.489,-7.178,-0.538,31.995,12.141,8.261,30.110,9.873,4.941,15.052,5.840,10.162,8.609,2.005
Fri Nov 22 19:30:05 2024,265,-10.991,-10.991,-0.447,-0.447,-7.251,-0.934,30.574,10.687,8.027,29.871,9.857,5.258,14.733,5.906,10.455,8.388,1.990
Fri Nov 22 19:30:05 2024,270,-11.167,-11.167,-0.412,-0.412,-7.283,-1.332,29.656,9.884,7.840,29.651,9.881,5.507,14.480,6.032,10.707,8.179,2.010
Fri Nov 22 19:30:05 2024,275,-11.289,-11.289,-0.386,-0.386,-7.319,-1.651,28.895,9.162,7.691,29.487,9.886,5.705,14.278,6.105,10.899,8.022,2.015
Fri Nov 22 19:30:05 2024,280,-11.493,-11.493,-0.356,-0.356,-7.317,-2.074,28.242,8.813,7.528,29.237,9.906,5.818,14.157,6.196,11.152,7.804,2.037
Fri Nov 22 19:30:05 2024,285,-11.627,-11.627,-0.337,-0.337,-7.325,-2.354,27.774,8.476,7.414,29.078,9.916,5.922,14.047,6.257,11.321,7.662,2.049
Fri Nov 22 19:30:05 2024,290,-11.767,-11.767,-0.297,-0.297,-7.295,-2.514,27.180,8.128,7.283,28.874,9.913,6.009,13.953,6.350,11.516,7.477,2.091
Fri Nov 22 19:30:05 2024,295,-11.896,-11.896,-0.264,0.264,-7.272,-2.670,26.676,7.821,7.166,28.694,9.911,6.091,13.864,6.430,11.689,7.314,2.126
Fri Nov 22 19:30:05 2024,300,-12.030,-12.030,-0.235,0.235,-7.243,-2.818,26.244,7.614,7.039,28.539,9.907,6.082,13.868,6.479,11.843,7.187,2.162
Fri Nov 22 19:30:05 2024,305,-12.153,-12.153,-0.213,0.213,-7.213,-2.946,25.905,7.496,6.916,28.417,9.903,6.012,13.938,6.500,11.969,7.099,2.196
Fri Nov 22 19:30:05 2024,310,-12.280,-12.280,-0.188,0.188,-7.184,-3.077,25.571,7.357,6.794,28.289,9.898,5.958,13.990,6.529,12.100,7.000,2.231
Fri Nov 22 19:30:05 2024,315,-12.366,-12.366,-0.219,0.219,-7.123,-3.006,25.292,7.254,7.026,28.807,10.051,5.971,13.977,6.499,12.259,6.825,2.236
Fri Nov 22 19:30:05 2024,320,-12.468,-12.468,-0.277,0.277,-7.071,-2.991,25.004,7.142,7.162,29.158,10.160,5.964,13.983,6.486,12.412,6.669,2.248
Fri Nov 22 19:30:05 2024,325,-12.528,-12.528,-0.335,0.335,-7.016,-2.927,24.800,7.093,7.318,29.572,10.250,5.883,14.064,6.402,12.489,6.577,2.202
Fri Nov 22 19:30:05 2024,330,-12.594,-12.594,-0.398,0.398,-6.949,-2.838,24.578,7.051,7.511,30.089,10.350,5.767,14.183,6.284,12.562,6.482,2.133
Fri Nov 22 19:30:05 2024,335,-12.648,-12.648,-0.434,0.434,-6.951,-2.766,24.422,7.010,7.722,30.648,10.444,5.696,14.262,6.180,12.639,6.376,2.056
Fri Nov 22 19:30:05 2024,340,-12.676,-12.676,-0.433,0.433,-7.044,-2.704,24.365,6.984,7.970,31.296,10.531,5.668,14.306,6.076,12.708,6.262,1.953
Fri Nov 22 19:30:05 2024,345,-12.716,-12.716,-0.443,0.443,-7.108,-2.643,24.288,6.957,8.195,31.887,10.611,5.631,14.353,5.978,12.773,6.157,1.863
Fri Nov 22 19:30:05 2024,350,-12.666,-12.666,-0.480,0.480,-7.078,-2.548,24.033,6.953,8.438,32.405,10.751,5.653,14.341,6.000,12.880,5.996,1.855
Fri Nov 22 19:30:05 2024,355,-12.633,-12.633,-0.510,0.510,-7.063,-2.462,23.817,6.945,8.666,32.910,10.873,5.666,14.334,6.004,12.976,5.851,1.834
Fri Nov 22 19:30:05 2024,360,-12.610,-12.610,-0.532,0.532,-7.052,-2.400,23.661,6.939,8.830,33.275,10.960,5.675,14.325,6.006,13.045,5.745,1.820
Fri Nov 22 19:30:05 2024,365,-12.551,-12.551,-0.491,0.491,-7.183,-2.388,23.585,7.072,9.104,33.766,11.147,5.740,14.257,6.060,13.163,5.434,1.666
Fri Nov 22 19:30:05 2024,370,-12.518,-12.518,-0.489,0.489,-7.239,-2.359,23.492,7.130,9.291,34.129,11.264,5.773,14.220,6.085,13.243,5.247,1.592
Fri Nov 22 19:30:05 2024,375,-12.522,-12.522,-0.497,0.497,-7.231,-2.305,23.249,7.207,9.563,34.575,11.483,5.842,14.145,6.218,13.527,4.858,1.564
Fri Nov 22 19:30:05 2024,380,-12.524,-12.524,-0.505,0.505,-7.226,-2.256,23.040,7.275,9.806,34.973,11.675,5.902,14.077,6.334,13.775,4.514,1.539
Fri Nov 22 19:30:05 2024,385,-12.591,-12.591,-0.539,0.539,-7.166,-2.175,22.793,7.390,10.060,35.416,11.895,5.920,14.057,6.418,14.029,4.130,1.489
Fri Nov 22 19:30:05 2024,390,-12.680,-12.680,-0.580,0.580,-7.086,-2.088,22.554,7.512,10.296,35.830,12.108,5.920,14.056,6.484,14.267,3.758,1.441
Fri Nov 22 19:30:05 2024,395,-12.752,-12.752,-0.615,0.615,-7.022,-2.014,22.352,7.618,10.517,36.213,12.300,5.928,14.047,6.551,14.487,3.415,1.408
Fri Nov 22 19:30:05 2024,400,-12.855,-12.855,-0.663,0.663,-6.896,-1.846,22.017,7.637,10.802,36.737,12.569,5.963,14.004,6.626,14.788,3.052,1.445
Fri Nov 22 19:30:05 2024,405,-12.928,-12.928,-0.696,0.696,-6.814,-1.740,21.819,7.674,11.012,37.112,12.760,5.984,13.979,6.683,15.003,2.770,1.460
Fri Nov 22 19:30:05 2024,410,-13.041,-13.041,-0.823,0.823,-6.678,-1.737,21.774,7.695,11.198,37.708,13.014,6.000,13.942,6.701,15.073,2.636,1.483
Fri Nov 22 19:30:05 2024,415,-13.126,-13.126,-0.917,0.917,-6.576,-1.720,21.732,7.714,11.354,38.158,13.210,6.013,13.910,6.722,15.153,2.503,1.502
Fri Nov 22 19:30:05 2024,420,-13.182,-13.182,-1.133,1.133,-6.303,-1.652,21.654,7.800,11.598,38.833,13.682,5.967,13.921,6.798,15.148,2.445,1.565
Fri Nov 22 19:30:05 2024,425,-13.211,-13.211,-1.327,1.327,-6.060,-1.588,21.588,7.882,11.795,39.379,14.104,5.914,26.060,6.869,15.117,2.428,1.622
Fri Nov 22 19:30:05 2024,430,-13.235,-13.235,-1.489,1.489,-5.863,-1.537,21.538,7.948,11.957,39.828,14.453,5.872,26.049,6.928,15.092,2.414,1.670
Fri Nov 22 19:30:05 2024,435,-13.171,-13.171,-1.773,1.773,-5.480,-1.328,21.330,8.392,12.257,40.940,15.702,6.030,26.420,7.270,15.085,2.326,1.798
Fri Nov 22 19:30:05 2024,440,-13.138,-13.138,-1.986,1.986,-5.207,-1.190,21.194,8.680,12.477,41.728,16.559,6.114,26.676,7.494,15.076,2.268,1.888
Fri Nov 22 19:30:05 2024,445,-13.015,-13.015,-2.062,2.062,-5.019,-1.087,21.097,8.928,12.992,43.123,17.897,6.284,27.329,7.658,15.183,2.056,1.960
Fri Nov 22 19:30:05 2024,450,-12.910,-12.910,-2.124,2.124,-4.864,-0.999,21.018,9.142,13.438,44.334,19.075,6.426,27.968,7.797,15.278,1.870,2.038
Fri Nov 22 19:30:05 2024,455,-12.802,-12.802,-2.193,2.193,-4.634,-0.906,20.926,9.502,13.966,45.624,20.507,6.557,28.687,7.901,15.504,1.604,2.121
Fri Nov 22 19:30:05 2024,460,-12.715,-12.715,-2.250,2.250,-4.426,-0.829,20.846,9.844,14.416,46.682,21.752,6.653,29.300,7.966,15.732,1.363,2.196
Fri Nov 22 19:30:05 2024,465,-12.620,-12.620,-2.312,2.312,-4.201,-0.744,20.760,10.221,14.910,47.843,23.127,6.753,29.991,8.035,15.984,1.100,2.288
Fri Nov 22 19:30:05 2024,470,-12.461,-12.461,-2.311,2.311,-4.059,-0.610,20.613,10.196,14.946,48.679,24.432,6.602,30.484,8.389,16.206,0.973,2.201
Fri Nov 22 19:30:05 2024,475,-12.332,-12.332,-2.320,2.320,-3.926,-0.496,19.454,10.227,15.031,49.462,25.598,6.494,30.965,8.663,16.404,0.842,2.152
Fri Nov 22 19:30:05 2024,480,-12.266,-12.266,-2.258,2.258,-3.709,-0.361,19.380,10.483,15.212,50.381,27.108,6.561,31.644,8.891,16.453,0.644,2.012
Fri Nov 22 19:30:05 2024,485,-12.218,-12.218,-2.176,2.176,-3.476,-0.223,19.277,10.794,15.416,51.313,28.674,6.677,32.358,9.101,16.461,0.432,1.850
Fri Nov 22 19:30:05 2024,490,-12.179,-12.179,-2.113,2.113,-3.292,-0.110,19.139,11.037,15.580,52.061,29.924,6.761,32.923,9.264,16.472,0.258,1.728
Fri Nov 22 19:30:05 2024,495,-12.339,-12.339,-2.098,2.098,-2.807,-0.388,18.258,11.505,16.580,52.065,30.542,6.764,34.176,9.465,16.301,0.166,1.290
Fri Nov 22 19:30:05 2024,500,-12.421,-12.421,-2.080,2.080,-2.499,-0.522,17.730,11.817,17.213,52.236,31.160,6.778,34.998,9.596,16.207,0.072,1.035
Fri Nov 22 19:30:05 2024,505,-12.437,-12.437,-2.165,2.165,-2.510,-0.916,17.446,11.458,19.708,51.286,29.058,5.735,35.522,9.704,15.558,0.527,0.889
Fri Nov 22 19:30:05 2024,510,-12.458,-12.458,-2.240,2.240,-2.534,-1.245,17.197,11.149,21.842,50.757,26.862,4.841,36.020,9.795,15.010,0.910,0.818
Fri Nov 22 19:30:05 2024,515,-12.611,-12.611,-2.401,2.401,-2.469,-1.356,17.634,11.215,24.562,50.934,24.859,4.365,37.024,10.913,14.565,1.503,0.726
Fri Nov 22 19:30:05 2024,520,-12.824,-12.824,-2.596,2.596,-2.370,-1.361,18.265,11.440,27.252,51.641,23.264,4.112,38.220,12.488,14.203,2.154,0.736
Fri Nov 22 19:30:05 2024,525,-13.015,-13.015,-2.762,2.762,-2.292,-1.364,19.978,11.625,29.380,52.478,22.078,3.903,39.258,13.856,13.907,2.694,0.847
Fri Nov 22 19:30:05 2024,530,-13.048,-13.048,-2.846,2.846,-1.972,-0.777,21.331,11.703,29.426,54.176,22.951,3.997,40.348,13.657,13.913,2.798,1.248
Fri Nov 22 19:30:05 2024,535,-13.107,-13.107,-2.936,2.936,-1.794,-0.365,22.183,11.791,29.765,55.586,23.444,4.043,41.251,13.749,13.882,2.938,1.931
Fri Nov 22 19:30:05 2024,540,-12.756,-12.756,-2.996,2.996,-0.030,0.140,21.862,11.924,30.196,57.704,25.321,3.779,41.624,14.510,13.986,2.564,1.668
Fri Nov 22 19:30:05 2024,545,-12.415,-12.415,-3.046,3.046,1.481,0.607,21.538,12.054,30.541,59.779,27.277,3.496,41.905,15.341,14.109,2.145,1.311
Fri Nov 22 19:30:05 2024,550,-12.166,-12.166,-3.085,3.085,1.441,0.986,21.454,12.164,30.777,61.513,28.876,3.264,42.146,16.060,14.219,1.798,1.039
Fri Nov 22 19:30:05 2024,555,-12.119,-12.119,-3.240,3.240,1.461,1.821,22.448,13.005,31.524,62.487,30.560,3.424,43.536,18.744,14.443,1.367,0.509
Fri Nov 22 19:30:05 2024,560,-12.020,-12.020,-3.355,3.355,1.511,2.481,23.135,13.596,32.089,63.659,32.160,3.462,44.558,20.860,14.625,0.980,0.888
Fri Nov 22 19:30:05 2024,565,-12.109,-12.109,-3.332,3.332,1.580,2.907,23.621,14.011,32.109,64.449,34.107,3.868,46.155,22.867,14.618,0.998,1.312
Fri Nov 22 19:30:05 2024,570,-12.197,-12.197,-3.319,3.319,1.701,3.394,24.174,14.484,32.180,65.390,36.376,4.307,47.907,25.259,14.625,0.985,1.838
Fri Nov 22 19:30:05 2024,575,-12.266,-12.266,-3.309,3.309,1.821,3.765,24.595,14.842,32.236,66.133,38.204,4.656,49.265,27.189,14.631,0.974,2.247
Fri Nov 22 19:30:05 2024,580,-12.177,-12.177,-3.129,3.129,2.095,3.988,25.020,15.724,31.946,67.483,40.571,5.053,51.229,29.865,14.866,1.339,3.057
Fri Nov 22 19:30:05 2024,585,-12.154,-12.154,-3.029,3.029,2.321,4.229,25.392,16.329,31.798,68.508,42.638,5.395,52.771,32.129,14.990,1.519,3.639
Fri Nov 22 19:30:05 2024,590,-12.247,-12.247,-2.875,2.875,2.541,4.426,25.733,16.817,31.733,69.627,44.898,5.888,54.135,33.919,14.904,1.744,3.734
Fri Nov 22 19:30:05 2024,595,-12.341,-12.341,-2.716,2.716,2.806,4.652,26.119,17.390,31.641,70.901,47.626,6.424,55.709,36.207,14.857,1.977,3.952
Fri Nov 22 19:30:05 2024,600,-12.395,-12.395,-2.556,2.556,2.963,4.912,26.649,17.770,31.214,72.213,50.459,7.005,57.565,38.461,14.768,2.263,4.005
Fri Nov 22 19:30:05 2024,605,-12.442,-12.442,-2.370,2.370,3.105,5.230,27.325,18.144,30.584,73.768,53.806,7.704,59.844,41.085,14.648,2.619,4.006
Fri Nov 22 19:30:05 2024,610,-12.498,-12.498,-2.227,2.227,3.225,5.469,27.836,18.441,30.098,75.029,56.574,8.275,61.581,43.284,14.561,2.879,4.027
Fri Nov 22 19:30:05 2024,615,-12.519,-12.519,-1.908,1.908,3.338,5.974,28.802,18.925,29.194,77.882,63.082,8.713,64.308,48.254,14.660,3.171,3.960
Fri Nov 22 19:30:05 2024,620,-12.563,-12.563,-1.656,1.656,3.451,6.380,29.596,19.338,28.389,80.307,68.494,9.223,66.649,52.661,14.707,3.414,3.943
Fri Nov 22 19:30:05 2024,625,-12.591,-12.591,-1.392,1.392,3.572,6.775,30.503,19.871,27.203,83.067,73.970,10.234,69.326,57.627,14.777,3.677,3.944
Fri Nov 22 19:30:05 2024,630,-12.585,-12.585,-1.033,1.033,3.739,7.264,31.892,20.788,25.009,87.178,80.796,12.500,73.424,64.754,14.903,4.052,3.962
Fri Nov 22 19:30:05 2024,635,-12.629,0.032,-0.814,0.814,3.790,7.683,32.731,21.162,24.161,89.558,84.225,13.857,75.866,68.890,14.992,4.204,3.873
Fri Nov 22 19:30:05 2024,640,-12.727,12.727,-0.587,0.587,3.746,8.273,33.558,21.240,23.964,91.580,86.889,15.284,78.198,72.464,15.108,4.290,3.612
Fri Nov 22 19:30:05 2024,645,-12.803,12.803,-0.416,0.416,3.731,8.709,34.219,21.365,23.841,93.262,88.838,16.505,80.090,75.216,15.198,4.342,3.484
Fri Nov 22 19:30:05 2024,650,-12.771,12.771,-0.308,0.308,3.618,8.686,34.402,21.351,23.977,94.172,89.586,17.652,80.893,76.090,15.157,4.488,3.448
Fri Nov 22 19:30:05 2024,655,-12.753,12.753,-0.221,0.221,3.532,8.705,34.600,21.351,24.132,95.014,90.270,18.667,81.677,76.944,15.132,4.592,3.414
Fri Nov 22 19:30:05 2024,660,-12.786,12.786,-0.189,0.039,3.507,8.715,34.816,21.398,24.209,95.763,90.908,19.831,82.550,77.783,15.092,4.690,3.421
Fri Nov 22 19:30:05 2024,665,-12.926,12.926,-0.246,-0.246,3.606,8.707,35.104,21.546,24.087,96.440,91.587,21.470,83.739,78.742,15.011,4.803,3.514
Fri Nov 22 19:30:05 2024,670,-13.010,13.010,-0.290,-0.290,3.648,8.706,35.332,21.637,24.128,97.061,92.121,22.792,84.677,79.463,14.956,4.891,3.567
Fri Nov 22 19:30:05 2024,675,-13.182,13.182,-0.299,-0.299,3.791,8.632,35.532,21.603,24.810,98.077,92.588,24.456,85.952,80.214,14.832,5.054,3.749
Fri Nov 22 19:30:05 2024,680,-13.313,13.313,-0.318,-0.318,3.895,8.583,35.714,21.599,25.347,98.883,92.977,25.895,86.999,80.784,14.740,5.175,3.883
Fri Nov 22 19:30:05 2024,685,-13.400,13.400,-0.377,-0.377,3.942,8.569,35.870,21.691,26.011,99.616,93.261,27.032,87.829,81.182,14.662,5.278,4.044
Fri Nov 22 19:30:05 2024,690,-13.507,13.507,-0.502,-0.502,3.977,8.570,36.097,21.897,27.126,100.706,93.631,28.594,88.975,81.687,14.548,5.424,4.312
Fri Nov 22 19:30:05 2024,695,-13.584,13.584,-0.574,-0.574,4.036,8.566,36.248,22.019,27.972,101.479,93.880,29.730,89.799,82.074,14.473,5.515,4.476
Fri Nov 22 19:30:05 2024,700,-13.639,13.639,-0.597,-0.597,4.128,8.567,36.364,22.127,28.798,102.164,94.083,30.651,90.499,82.502,14.419,5.579,4.589
Fri Nov 22 19:30:05 2024,705,-13.684,13.684,-0.624,-0.624,4.191,8.567,36.456,22.211,29.448,102.688,94.228,31.389,91.041,82.784,14.375,5.625,4.685
Fri Nov 22 19:30:05 2024,710,-13.755,13.755,-0.724,-0.724,4.254,8.547,36.691,22.400,30.336,103.423,94.435,32.325,91.741,83.181,14.254,5.742,4.773
Fri Nov 22 19:30:05 2024,715,-13.812,13.812,-0.799,-0.799,4.307,8.532,36.871,22.545,31.091,104.014,94.586,33.100,92.308,83.478,14.162,5.822,4.852
Fri Nov 22 19:30:05 2024,720,-13.851,13.851,-0.860,-0.860,4.331,8.477,37.055,22.715,31.695,104.506,94.626,33.931,92.791,83.713,14.004,5.962,4.970
Fri Nov 22 19:30:05 2024,725,-13.880,13.880,-0.907,-0.907,4.343,8.418,37.212,22.865,32.169,104.891,94.625,34.649,93.172,83.883,13.853,6.095,5.082
Fri Nov 22 19:30:05 2024,730,-13.905,13.905,-0.951,-0.951,4.354,8.366,37.351,22.997,32.605,105.233,94.620,35.291,93.510,84.023,13.718,6.210,5.185
Fri Nov 22 19:30:05 2024,735,-14.095,14.095,-0.923,-0.923,4.445,8.384,37.666,23.198,32.436,105.241,94.689,35.482,93.707,84.376,13.674,6.205,5.044
Fri Nov 22 19:30:05 2024,740,-14.202,14.202,-0.917,-0.917,4.497,8.383,37.863,23.330,32.448,105.316,94.721,35.718,93.882,84.589,13.623,6.218,4.992
Fri Nov 22 19:30:05 2024,745,-14.319,14.319,-0.860,-0.860,4.610,8.318,38.019,23.467,31.884,105.122,94.621,34.883,93.836,85.181,13.660,6.162,4.879
Fri Nov 22 19:30:05 2024,750,-14.411,14.411,-0.816,-0.816,4.698,8.266,38.142,23.573,31.484,104.968,94.532,34.212,93.798,85.639,13.688,6.118,4.790
Fri Nov 22 19:30:05 2024,755,-14.500,14.500,-0.777,-0.777,4.784,8.218,38.261,23.674,31.138,104.821,94.436,33.557,93.763,86.069,13.717,6.074,4.705
Fri Nov 22 19:30:05 2024,760,-14.521,14.521,-0.650,-0.650,4.840,8.242,38.338,23.467,30.201,104.276,94.509,32.891,93.583,86.477,13.704,6.109,4.439
Fri Nov 22 19:30:05 2024,765,-14.567,14.567,-0.582,-0.582,4.904,8.239,38.428,23.383,29.592,103.900,94.495,32.242,93.463,86.872,13.707,6.113,4.251
Fri Nov 22 19:30:05 2024,770,-14.646,14.646,-0.637,-0.637,4.846,8.256,38.498,23.373,29.410,103.781,94.406,32.044,93.474,86.776,13.729,6.073,4.194
Fri Nov 22 19:30:05 2024,775,-14.709,14.709,-0.671,-0.671,4.812,8.268,38.558,23.356,29.221,103.655,94.338,31.832,93.470,86.746,13.746,6.045,4.134
Fri Nov 22 19:30:05 2024,780,-14.744,14.744,-0.664,-0.664,4.838,8.309,38.593,23.346,29.004,103.508,94.272,31.510,93.348,86.676,13.808,5.996,4.066
Fri Nov 22 19:30:05 2024,785,-14.742,14.742,-0.610,-0.610,4.949,8.390,38.596,23.347,28.748,103.331,94.211,31.033,93.061,86.555,13.932,5.917,3.989
Fri Nov 22 19:30:05 2024,790,-14.752,14.752,-0.598,-0.598,5.012,8.442,38.608,23.344,28.564,103.200,94.159,30.706,92.882,86.468,14.011,5.862,3.936
Fri Nov 22 19:30:05 2024,795,-14.706,14.706,-0.638,-0.638,4.933,8.424,38.684,23.506,29.104,103.544,94.212,31.109,93.123,86.096,14.128,5.736,4.036
Fri Nov 22 19:30:05 2024,800,-14.679,14.679,-0.670,-0.670,4.899,8.426,38.737,23.612,29.432,103.733,94.226,31.282,93.230,85.826,14.228,5.638,4.088
Fri Nov 22 19:30:05 2024,805,-14.656,14.656,-0.698,-0.698,4.808,8.492,38.798,23.758,29.532,103.731,94.293,31.284,93.160,85.492,14.492,5.372,4.142
Fri Nov 22 19:30:05 2024,810,-14.632,14.632,-0.738,-0.738,4.712,8.562,38.864,23.914,29.676,103.734,94.356,31.290,93.090,85.136,14.770,5.094,4.202
Fri Nov 22 19:30:05 2024,815,-14.612,14.612,-0.780,-0.780,4.668,8.632,38.894,24.024,29.690,103.664,94.322,31.290,93.042,84.726,14.945,4.921,4.264
Fri Nov 22 19:30:05 2024,820,-14.587,14.587,-0.836,-0.836,4.668,8.733,38.894,24.129,29.535,103.476,94.159,31.285,92.998,84.075,15.070,4.803,4.350
Fri Nov 22 19:30:05 2024,825,-14.567,14.567,-0.887,-0.887,4.656,8.820,38.902,24.228,29.450,103.330,94.034,31.281,92.954,83.526,15.201,4.677,4.426
Fri Nov 22 19:30:05 2024,830,-14.393,14.393,-0.761,-0.761,4.589,8.886,38.650,24.107,27.920,102.163,93.423,29.328,91.942,82.703,15.588,4.327,4.339
Fri Nov 22 19:30:05 2024,835,-14.286,14.286,-0.692,-0.692,4.547,8.934,38.500,24.041,27.055,101.453,93.021,28.182,91.330,82.112,15.833,4.102,4.300
Fri Nov 22 19:30:05 2024,840,-14.179,14.179,-0.627,-0.627,4.504,8.982,38.350,23.974,26.236,100.747,92.603,27.062,90.722,81.490,16.077,3.874,4.265
Fri Nov 22 19:30:05 2024,845,-14.047,14.047,-0.428,0.428,4.249,9.026,37.866,23.700,21.918,96.673,90.259,20.952,86.657,78.602,16.349,3.648,3.891
Fri Nov 22 19:30:05 2024,850,-13.943,13.943,-0.454,0.454,4.140,9.101,37.615,23.544,20.293,94.680,88.922,18.514,84.782,76.750,16.527,3.473,3.784
Fri Nov 22 19:30:05 2024,855,-13.780,13.780,-0.603,0.603,4.089,9.338,37.381,23.329,19.272,92.602,87.555,17.178,83.158,74.714,16.651,3.333,3.746
Fri Nov 22 19:30:05 2024,860,-13.644,13.644,-0.771,0.771,4.034,9.521,37.176,23.144,18.559,90.772,86.187,15.904,81.673,72.831,16.770,3.178,3.713
Fri Nov 22 19:30:05 2024,865,-13.542,13.542,-0.908,0.908,3.992,9.657,37.025,23.004,18.142,89.418,85.107,14.999,80.573,71.398,16.859,3.053,3.695
Fri Nov 22 19:30:05 2024,870,-13.480,13.480,-0.995,0.995,3.966,9.739,36.934,22.915,17.929,88.585,84.408,14.461,79.895,70.497,16.911,2.974,3.686
Fri Nov 22 19:30:05 2024,875,-13.328,13.328,-1.221,1.221,3.904,9.396,36.718,23.056,18.411,86.658,81.271,13.388,77.596,66.730,16.934,2.985,4.075
Fri Nov 22 19:30:05 2024,880,-12.982,12.982,-1.739,1.739,3.764,8.578,36.225,23.410,19.722,82.312,73.930,11.046,72.348,58.073,16.982,3.019,5.041
Fri Nov 22 19:30:05 2024,885,-12.817,12.817,-1.986,1.986,3.698,8.336,35.984,23.476,20.364,80.298,70.619,10.098,70.111,54.554,17.030,2.971,5.510
Fri Nov 22 19:30:05 2024,890,-12.152,12.152,-1.648,1.648,2.340,6.833,33.589,22.203,21.864,72.639,58.016,8.564,64.045,44.205,16.585,3.382,6.235
Fri Nov 22 19:30:05 2024,895,-11.731,11.731,-1.459,1.459,1.546,5.898,32.089,21.446,22.900,68.089,50.882,7.754,60.287,38.856,16.328,3.580,6.719
Fri Nov 22 19:30:05 2024,900,-11.530,11.530,-1.564,1.564,1.069,5.330,30.886,21.527,21.389,63.216,46.044,7.481,56.251,34.935,16.023,3.657,7.132
Fri Nov 22 19:30:05 2024,905,-11.673,11.673,-2.038,2.038,1.059,5.371,30.356,22.699,17.023,58.683,44.012,7.857,52.602,32.724,15.700,3.493,7.355
Fri Nov 22 19:30:05 2024,910,-11.705,11.705,-2.411,2.411,0.963,5.194,29.579,23.559,13.893,54.181,41.542,8.045,48.746,30.452,15.347,3.146,7.642
Fri Nov 22 19:30:05 2024,915,-10.970,10.970,-2.958,2.958,-1.221,5.388,29.977,19.919,12.991,51.485,35.014,7.804,45.159,25.885,14.654,3.230,5.745
Fri Nov 22 19:30:05 2024,920,-10.536,10.536,-3.368,3.368,-1.743,5.466,30.049,17.915,11.932,49.055,31.146,7.742,42.255,22.819,14.167,3.058,4.661
Fri Nov 22 19:30:05 2024,925,-10.370,10.370,-3.869,3.869,-2.219,5.080,29.689,15.656,11.194,46.957,26.404,7.408,40.432,19.903,13.828,2.958,3.533
Fri Nov 22 19:30:05 2024,930,-10.451,10.451,-4.472,4.472,-2.606,4.252,28.932,13.113,10.688,45.076,20.557,6.798,39.520,16.947,13.614,2.980,2.348
Fri Nov 22 19:30:05 2024,935,-10.422,-10.422,-4.974,4.974,-3.002,3.704,28.464,11.004,10.162,43.361,16.214,6.386,38.309,14.391,13.370,2.922,1.414
Fri Nov 22 19:30:05 2024,940,-10.564,10.564,-4.664,4.664,-3.277,3.396,28.004,10.227,9.956,41.651,15.579,6.257,37.149,13.477,14.049,2.590,1.188
Fri Nov 22 19:30:05 2024,945,-10.642,10.642,-4.640,4.640,-3.585,3.036,27.587,9.110,9.672,40.100,13.876,6.052,36.075,12.138,14.384,2.368,0.896
Fri Nov 22 19:30:05 2024,950,-10.746,10.746,-4.434,4.434,-3.742,3.112,27.508,9.109,9.490,39.271,13.472,5.871,34.745,11.213,14.557,2.232,0.891
Fri Nov 22 19:30:05 2024,955,-10.846,10.846,-4.260,4.260,-3.894,3.161,27.425,9.062,9.327,38.515,13.068,5.714,33.598,10.404,14.717,2.109,0.888
Fri Nov 22 19:30:05 2024,960,-10.897,10.897,-4.077,4.077,-4.045,3.168,27.319,9.035,9.159,37.827,12.697,5.502,32.451,9.684,14.856,2.036,0.912
Fri Nov 22 19:30:05 2024,965,-10.833,10.833,-3.822,3.822,-4.178,3.149,27.202,9.218,8.974,37.310,12.540,5.146,31.096,9.099,14.939,2.082,1.014
Fri Nov 22 19:30:05 2024,970,-10.825,10.825,-3.627,3.627,-4.307,3.144,27.106,9.301,8.824,36.804,12.333,4.901,30.015,8.574,15.030,2.081,1.100
Fri Nov 22 19:30:05 2024,975,-10.709,10.709,-3.514,3.514,-4.297,3.039,26.984,9.377,8.620,36.356,12.229,4.756,29.325,8.465,15.088,2.205,1.283
Fri Nov 22 19:30:05 2024,980,-10.638,10.638,-3.394,3.394,-4.324,2.976,26.886,9.445,8.462,35.956,12.114,4.614,28.642,8.274,15.145,2.277,1.429
Fri Nov 22 19:30:05 2024,985,-10.673,10.673,-3.389,3.389,-4.310,2.839,26.855,9.508,8.312,35.664,12.047,4.620,28.413,8.317,15.076,2.457,1.587
Fri Nov 22 19:30:05 2024,990,-10.749,10.749,-3.424,3.424,-4.279,2.658,26.846,9.578,8.142,35.368,11.987,4.679,28.306,8.446,14.955,2.699,1.780
Fri Nov 22 19:30:05 2024,995,-10.796,10.796,-3.434,3.434,-4.258,2.512,26.830,9.641,7.995,35.089,11.928,4.707,28.139,8.520,14.871,2.890,1.956
Fri Nov 22 19:30:06 2024,0,-11.045,11.045,-3.731,3.731,-4.102,2.311,26.978,9.468,7.909,34.999,11.744,4.925,28.806,8.719,14.408,3.375,1.954
Fri Nov 22 19:30:06 2024,5,-11.209,11.209,-3.918,3.918,-4.001,2.159,27.072,9.374,7.828,34.889,11.619,5.067,29.189,8.858,14.108,3.712,1.989
Fri Nov 22 19:30:06 2024,10,-11.378,11.378,-3.889,3.889,-4.034,2.008,26.992,9.295,7.899,34.852,11.560,5.259,29.731,9.066,13.921,4.010,2.105
Fri Nov 22 19:30:06 2024,15,-11.538,11.538,-3.898,3.898,-4.042,1.862,26.950,9.218,7.938,34.800,11.493,5.435,30.218,9.254,13.724,4.301,2.208
Fri Nov 22 19:30:06 2024,20,-11.725,11.725,-3.955,3.955,-3.994,1.676,26.926,9.153,8.009,34.798,11.424,5.525,30.787,9.469,13.540,4.603,2.281
Fri Nov 22 19:30:06 2024,25,-11.922,11.922,0.014,4.029,-3.927,1.474,26.914,9.094,8.092,34.814,11.354,5.587,31.396,9.694,13.362,4.908,2.344
Fri Nov 22 19:30:06 2024,30,-12.097,12.097,4.095,4.095,-3.867,1.296,26.910,9.040,8.163,34.828,11.292,5.645,31.940,9.893,13.208,5.173,2.402
Fri Nov 22 19:30:06 2024,35,-12.210,12.210,4.119,4.119,-3.850,1.210,26.853,8.895,8.221,34.792,11.308,5.782,32.495,10.224,13.226,5.272,2.461
Fri Nov 22 19:30:06 2024,40,-12.337,12.337,4.155,4.155,-3.821,1.100,26.816,8.780,8.281,34.771,11.301,5.897,33.041,10.513,13.196,5.410,2.519
Fri Nov 22 19:30:06 2024,45,-12.476,12.476,4.288,4.288,-3.718,1.075,26.740,8.686,8.350,34.775,11.310,6.102,33.639,10.865,13.176,5.435,2.526
Fri Nov 22 19:30:06 2024,50,-12.568,12.568,4.375,4.375,-3.651,1.057,26.690,8.623,8.395,34.778,11.316,6.239,34.038,11.102,13.162,5.454,2.531
Fri Nov 22 19:30:06 2024,55,-12.668,12.668,4.486,4.486,-3.568,1.039,26.633,8.552,8.450,34.759,11.323,6.398,34.519,11.408,13.119,5.512,2.548
Fri Nov 22 19:30:06 2024,60,-12.702,12.702,4.559,4.559,-3.518,1.038,26.609,8.520,8.480,34.710,11.328,6.470,34.784,11.613,13.045,5.608,2.575
Fri Nov 22 19:30:06 2024,65,-12.746,12.746,4.631,4.631,-3.469,1.033,26.580,8.483,8.512,34.672,11.332,6.551,35.062,11.815,12.986,5.685,2.597
Fri Nov 22 19:30:06 2024,70,-12.842,12.842,4.770,4.770,-3.331,1.144,26.675,8.631,8.546,34.550,11.423,6.708,35.155,11.904,12.785,6.029,2.900
Fri Nov 22 19:30:06 2024,75,-12.921,12.921,4.884,4.884,-3.222,1.228,26.747,8.740,8.576,34.453,11.492,6.837,35.254,11.992,12.626,6.296,3.139
Fri Nov 22 19:30:06 2024,80,-13.000,13.000,4.911,4.911,-3.163,1.447,26.864,8.808,8.679,34.469,11.637,7.009,35.210,12.020,12.433,6.612,3.376
Fri Nov 22 19:30:06 2024,85,-13.099,13.099,4.891,4.891,-3.122,1.790,27.042,8.865,8.849,34.556,11.859,7.245,35.079,12.021,12.176,7.025,3.667
Fri Nov 22 19:30:06 2024,90,-13.174,13.174,4.888,4.888,-3.084,2.033,27.181,8.913,8.969,34.608,12.018,7.417,35.002,12.028,11.989,7.320,3.886
Fri Nov 22 19:30:06 2024,95,-13.145,13.145,5.084,5.084,-2.882,2.291,27.336,9.000,9.065,34.705,12.310,7.410,34.852,12.131,11.761,7.731,4.277
Fri Nov 22 19:30:06 2024,100,-13.157,13.012,5.162,5.162,-2.791,2.352,27.404,9.037,9.098,34.762,12.361,7.435,34.825,12.147,11.698,7.828,4.379
Fri Nov 22 19:30:06 2024,105,-13.173,12.845,5.222,5.222,-2.721,2.359,27.446,9.062,9.111,34.810,12.355,7.453,34.827,12.147,11.680,7.848,4.412
Fri Nov 22 19:30:06 2024,110,-13.188,12.679,5.281,5.281,-2.651,2.366,27.488,9.087,9.124,34.858,12.350,7.472,34.829,12.146,11.662,7.869,4.444
Fri Nov 22 19:30:06 2024,115,-13.204,12.512,5.340,5.340,-2.581,2.373,27.529,9.112,9.137,34.906,12.344,7.490,34.830,12.145,11.643,7.889,4.477
Fri Nov 22 19:30:06 2024,120,-13.219,12.345,5.400,5.400,-2.511,2.379,27.571,9.137,9.150,34.954,12.338,7.508,34.832,12.145,11.625,7.909,4.509
Fri Nov 22 19:30:06 2024,125,-13.235,12.179,5.459,5.459,-2.441,2.386,27.613,9.162,9.162,35.002,12.332,7.527,34.834,12.144,11.607,7.929,4.542
Fri Nov 22 19:30:06 2024,130,-13.250,12.012,5.519,5.519,-2.371,2.393,27.655,9.187,9.175,35.050,12.326,7.545,34.836,12.143,11.588,7.950,4.574
Fri Nov 22 19:30:06 2024,135,-13.266,11.846,5.578,5.578,-2.301,2.400,27.697,9.212,9.188,35.098,12.320,7.564,34.838,12.142,11.570,7.970,4.607
Fri Nov 22 19:30:06 2024,140,-13.281,11.679,5.637,5.637,-2.231,2.406,27.739,9.237,9.201,35.147,12.314,7.582,34.840,12.142,11.552,7.990,4.639
Fri Nov 22 19:30:06 2024,145,-13.297,11.513,5.697,5.697,-2.161,2.413,27.781,9.262,9.214,35.195,12.309,7.600,34.842,12.141,11.533,8.010,4.672
Fri Nov 22 19:30:06 2024,150,-13.312,11.346,5.756,5.756,-2.091,2.420,27.823,9.287,9.227,35.243,12.303,7.619,34.844,12.140,11.515,8.031,4.704
Fri Nov 22 19:30:06 2024,155,-13.328,11.180,5.815,5.815,-2.021,2.427,27.865,9.312,9.240,35.291,12.297,7.637,34.846,12.140,11.497,8.051,4.737
Fri Nov 22 19:30:06 2024,160,-13.343,11.013,5.875,5.875,-1.950,2.434,27.907,9.337,9.252,35.339,12.291,7.656,34.848,12.139,11.478,8.071,4.769
Fri Nov 22 19:30:06 2024,165,-13.359,10.846,5.934,5.934,-1.880,2.440,27.949,9.362,9.265,35.387,12.285,7.674,34.850,12.138,11.460,8.091,4.802
Fri Nov 22 19:30:06 2024,170,-13.374,10.680,5.993,5.993,-1.810,2.447,27.991,9.387,9.278,35.435,12.279,7.693,34.852,12.137,11.442,8.112,4.834
Fri Nov 22 19:30:06 2024,175,-13.389,10.513,6.053,6.053,-1.740,2.454,28.033,9.412,9.291,35.483,12.273,7.711,34.854,12.137,11.423,8.132,4.867
Fri Nov 22 19:30:06 2024,180,-13.405,10.347,6.112,6.112,-1.670,2.461,28.075,9.437,9.304,35.531,12.268,7.729,34.856,12.136,11.405,8.152,4.899
Fri Nov 22 19:30:06 2024,185,-13.420,10.180,6.171,6.171,-1.600,2.467,28.117,9.463,9.317,35.579,12.262,7.748,34.858,12.135,11.387,8.173,4.932
Fri Nov 22 19:30:06 2024,190,-13.436,10.014,6.231,6.231,-1.530,2.474,28.159,9.488,9.329,35.627,12.256,7.766,34.860,12.134,11.368,8.193,4.964
Fri Nov 22 19:30:06 2024,195,-13.451,9.847,6.290,6.290,-1.460,2.481,28.201,9.513,9.342,35.675,12.250,7.785,34.862,12.134,11.350,8.213,4.997
Fri Nov 22 19:30:06 2024,200,-13.467,9.680,6.349,6.349,-1.390,2.488,28.243,9.538,9.355,35.723,12.244,7.803,34.864,12.133,11.332,8.233,5.029
Fri Nov 22 19:30:06 2024,205,-13.482,9.514,6.409,6.409,-1.320,2.494,28.285,9.563,9.368,35.771,12.238,7.821,34.866,12.132,11.313,8.254,5.062
Fri Nov 22 19:30:06 2024,210,-13.498,9.347,6.468,6.468,-1.250,2.501,28.327,9.588,9.381,35.819,12.232,7.840,34.868,12.132,11.295,8.274,5.094
Fri Nov 22 19:30:06 2024,215,-13.513,9.181,6.527,6.527,-1.180,2.508,28.369,9.613,9.394,35.867,12.226,7.858,34.870,12.131,11.277,8.294,5.127
Fri Nov 22 19:30:06 2024,220,-13.529,9.014,6.587,6.587,-1.110,2.515,28.411,9.638,9.406,35.915,12.221,7.877,34.872,12.130,11.258,8.314,5.159
Fri Nov 22 19:30:06 2024,225,-13.544,8.848,6.646,6.646,-1.040,2.521,28.453,9.663,9.419,35.963,12.215,7.895,34.874,12.129,11.240,8.335,5.192
Fri Nov 22 19:30:06 2024,230,-13.560,8.681,6.705,6.705,-0.970,2.528,28.495,9.688,9.432,36.011,12.209,7.913,34.876,12.129,11.222,8.355,5.224
Fri Nov 22 19:30:06 2024,235,-13.575,8.515,6.765,6.765,-0.900,2.535,28.537,9.713,9.445,36.059,12.203,7.932,34.878,12.128,11.203,8.375,5.257
Fri Nov 22 19:30:06 2024,240,-13.591,8.348,6.824,6.824,-0.830,2.542,28.579,9.738,9.458,36.107,12.197,7.950,34.880,12.127,11.185,8.395,5.289
Fri Nov 22 19:30:06 2024,245,-13.606,8.181,6.883,6.883,-0.760,2.548,28.621,9.763,9.471,36.155,12.191,7.969,34.882,12.127,11.166,8.416,5.322
Fri Nov 22 19:30:06 2024,250,-13.622,8.015,6.943,6.943,-0.690,2.555,28.663,9.788,9.483,36.203,12.185,7.987,34.884,12.126,11.148,8.436,5.355
Fri Nov 22 19:30:06 2024,255,-13.637,7.848,7.002,7.002,-0.620,2.562,28.705,9.813,9.496,36.251,12.180,8.006,34.886,12.125,11.130,8.456,5.387
Fri Nov 22 19:30:06 2024,260,-13.652,7.682,7.061,7.061,-0.550,2.569,28.747,9.838,9.509,36.299,12.174,8.024,34.888,12.124,11.111,8.476,5.420
Fri Nov 22 19:30:06 2024,265,-13.668,7.515,7.121,7.121,-0.480,2.575,28.789,9.863,9.522,36.347,12.168,8.042,34.890,12.124,11.093,8.497,5.452
Fri Nov 22 19:30:06 2024,270,-13.683,7.349,7.180,7.180,-0.410,2.582,28.831,9.888,9.535,36.395,12.162,8.061,34.892,12.123,11.075,8.517,5.485
Fri Nov 22 19:30:06 2024,275,-13.699,7.182,7.239,7.239,-0.340,2.589,28.873,9.913,9.548,36.443,12.156,8.079,34.894,12.122,11.056,8.537,5.517
Fri Nov 22 19:30:06 2024,280,-13.714,7.015,7.299,7.299,-0.270,2.596,28.915,9.938,9.560,36.491,12.150,8.098,34.896,12.122,11.038,8.557,5.550
Fri Nov 22 19:30:06 2024,285,-13.730,6.849,7.358,7.358,-0.199,2.602,28.957,9.963,9.573,36.539,12.144,8.116,34.898,12.121,11.020,8.578,5.582
Fri Nov 22 19:30:06 2024,290,-13.745,6.682,7.417,7.417,-0.129,2.609,28.998,9.988,9.586,36.587,12.139,8.134,34.899,12.120,11.001,8.598,5.615
Fri Nov 22 19:30:06 2024,295,-13.761,6.516,7.477,7.477,-0.059,2.616,29.040,10.013,9.599,36.635,12.133,8.153,34.901,12.119,10.983,8.618,5.647
Fri Nov 22 19:30:06 2024,300,-13.776,6.349,7.536,7.536,0.011,2.623,29.082,10.038,9.612,36.683,12.127,8.171,34.903,12.119,10.965,8.638,5.680
Fri Nov 22 19:30:06 2024,305,-13.792,6.183,7.595,7.595,0.081,2.630,29.124,10.063,9.625,36.731,12.121,8.190,34.905,12.118,10.946,8.659,5.712
Fri Nov 22 19:30:06 2024,310,-13.807,6.016,7.655,7.655,0.151,2.636,29.166,10.088,9.638,36.779,12.115,8.208,34.907,12.117,10.928,8.679,5.745
Fri Nov 22 19:30:06 2024,315,-13.823,5.850,7.714,7.714,0.221,2.643,29.208,10.113,9.650,36.827,12.109,8.227,34.909,12.117,10.910,8.699,5.777
Fri Nov 22 19:30:06 2024,320,-13.838,5.683,7.773,7.773,0.291,2.650,29.250,10.138,9.663,36.875,12.103,8.245,34.911,12.116,10.891,8.719,5.810
Fri Nov 22 19:30:06 2024,325,-13.854,5.516,7.833,7.833,0.361,2.657,29.292,10.163,9.676,36.923,12.098,8.263,34.913,12.115,10.873,8.740,5.842
Fri Nov 22 19:30:06 2024,330,-13.869,5.350,7.892,7.892,0.431,2.663,29.334,10.188,9.689,36.971,12.092,8.282,34.915,12.114,10.855,8.760,5.875
Fri Nov 22 19:30:06 2024,335,-13.885,5.183,7.951,7.951,0.501,2.670,29.376,10.213,9.702,37.019,12.086,8.300,34.917,12.114,10.836,8.780,5.907
Fri Nov 22 19:30:06 2024,340,-13.900,5.017,8.011,8.011,0.571,2.677,29.418,10.238,9.715,37.067,12.080,8.319,34.919,12.113,10.818,8.800,5.940
Fri Nov 22 19:30:06 2024,345,-13.915,4.850,8.070,8.070,0.641,2.684,29.460,10.263,9.727,37.115,12.074,8.337,34.921,12.112,10.800,8.821,5.972
Fri Nov 22 19:30:06 2024,350,-13.931,4.684,8.129,8.129,0.711,2.690,29.502,10.288,9.740,37.163,12.068,8.355,34.923,12.112,10.781,8.841,6.005
Fri Nov 22 19:30:06 2024,355,-13.946,4.517,8.189,8.189,0.781,2.697,29.544,10.313,9.753,37.211,12.062,8.374,34.925,12.111,10.763,8.861,6.037
Fri Nov 22 19:30:06 2024,360,-13.962,4.350,8.248,8.248,0.851,2.704,29.586,10.339,9.766,37.259,12.056,8.392,34.927,12.110,10.745,8.881,6.070
Fri Nov 22 19:30:06 2024,365,-13.977,4.184,8.307,8.307,0.921,2.711,29.628,10.364,9.779,37.307,12.051,8.411,34.929,12.109,10.726,8.902,6.102
Fri Nov 22 19:30:06 2024,370,-13.993,4.017,8.367,8.367,0.991,2.717,29.670,10.389,9.792,37.355,12.045,8.429,34.931,12.109,10.708,8.922,6.135
Fri Nov 22 19:30:06 2024,375,-14.008,3.851,8.426,8.426,1.061,2.724,29.712,10.414,9.804,37.403,12.039,8.447,34.933,12.108,10.690,8.942,6.167
Fri Nov 22 19:30:06 2024,380,-14.024,3.684,8.485,8.485,1.131,2.731,29.754,10.439,9.817,37.451,12.033,8.466,34.935,12.107,10.671,8.962,6.200
Fri Nov 22 19:30:06 2024,385,-14.039,3.518,8.545,8.545,1.201,2.738,29.796,10.464,9.830,37.499,12.027,8.484,34.937,12.106,10.653,8.983,6.232
Fri Nov 22 19:30:06 2024,390,-14.055,3.351,8.604,8.604,1.271,2.744,29.838,10.489,9.843,37.547,12.021,8.503,34.939,12.106,10.635,9.003,6.265
Fri Nov 22 19:30:06 2024,395,-14.070,3.185,8.663,8.663,1.341,2.751,29.880,10.514,9.856,37.595,12.015,8.521,34.941,12.105,10.616,9.023,6.298
Fri Nov 22 19:30:06 2024,400,-14.086,3.018,8.723,8.723,1.411,2.758,29.922,10.539,9.869,37.643,12.010,8.540,34.943,12.104,10.598,9.043,6.330
Fri Nov 22 19:30:06 2024,405,-14.101,2.851,8.782,8.782,1.481,2.765,29.964,10.564,9.881,37.691,12.004,8.558,34.945,12.104,10.580,9.064,6.363
Fri Nov 22 19:30:06 2024,410,-14.117,2.685,8.841,8.841,1.552,2.771,30.006,10.589,9.894,37.739,11.998,8.576,34.947,12.103,10.561,9.084,6.395
Fri Nov 22 19:30:06 2024,415,-14.132,2.518,8.901,8.901,1.622,2.778,30.048,10.614,9.907,37.787,11.992,8.595,34.949,12.102,10.543,9.104,6.428
Fri Nov 22 19:30:06 2024,420,-14.148,2.352,8.960,8.960,1.692,2.785,30.090,10.639,9.920,37.835,11.986,8.613,34.951,12.101,10.525,9.124,6.460
Fri Nov 22 19:30:06 2024,425,-14.163,2.185,9.020,9.020,1.762,2.792,30.132,10.664,9.933,37.883,11.980,8.632,34.953,12.101,10.506,9.145,6.493
Fri Nov 22 19:30:06 2024,430,-14.178,2.019,9.079,9.079,1.832,2.798,30.174,10.689,9.946,37.931,11.974,8.650,34.955,12.100,10.488,9.165,6.525
Fri Nov 22 19:30:06 2024,435,-14.194,1.852,9.138,9.138,1.902,2.805,30.216,10.714,9.958,37.979,11.969,8.668,34.957,12.099,10.470,9.185,6.558
Fri Nov 22 19:30:06 2024,440,-14.209,1.685,9.198,9.198,1.972,2.812,30.258,10.739,9.971,38.027,11.963,8.687,34.959,12.099,10.451,9.205,6.590
Fri Nov 22 19:30:06 2024,445,-14.225,1.519,9.257,9.257,2.042,2.819,30.300,10.764,9.984,38.075,11.957,8.705,34.961,12.098,10.433,9.226,6.623
Fri Nov 22 19:30:06 2024,450,-14.240,1.352,9.316,9.316,2.112,2.826,30.342,10.789,9.997,38.123,11.951,8.724,34.963,12.097,10.415,9.246,6.655
Fri Nov 22 19:30:06 2024,455,-14.256,1.186,9.376,9.376,2.182,2.832,30.384,10.814,10.010,38.171,11.945,8.742,34.965,12.096,10.396,9.266,6.688
Fri Nov 22 19:30:06 2024,460,-14.271,1.019,9.435,9.435,2.252,2.839,30.426,10.839,10.023,38.219,11.939,8.761,34.967,12.096,10.378,9.286,6.720
Fri Nov 22 19:30:06 2024,465,-14.287,0.853,9.494,9.494,2.322,2.846,30.467,10.864,10.036,38.267,11.933,8.779,34.968,12.095,10.360,9.307,6.753
Fri Nov 22 19:30:06 2024,470,-14.302,0.686,9.554,9.554,2.392,2.853,30.509,10.889,10.048,38.315,11.928,8.797,34.970,12.094,10.341,9.327,6.785
Fri Nov 22 19:30:06 2024,475,-14.318,0.520,9.613,9.613,2.462,2.859,30.551,10.914,10.061,38.363,11.922,8.816,34.972,12.094,10.323,9.347,6.818
Fri Nov 22 19:30:06 2024,480,-14.333,0.353,9.672,9.672,2.532,2.866,30.593,10.939,10.074,38.411,11.916,8.834,34.974,12.093,10.305,9.367,6.850
Fri Nov 22 19:30:06 2024,485,-14.349,0.186,9.732,9.732,2.602,2.873,30.635,10.964,10.087,38.459,11.910,8.853,34.976,12.092,10.286,9.388,6.883
Fri Nov 22 19:30:06 2024,490,-14.364,0.020,9.791,9.791,2.672,2.880,30.677,10.989,10.100,38.507,11.904,8.871,34.978,12.091,10.268,9.408,6.915
Fri Nov 22 19:30:06 2024,495,-14.380,-0.147,9.850,9.850,2.742,2.886,30.719,11.014,10.113,38.555,11.898,8.889,34.980,12.091,10.250,9.428,6.948
Fri Nov 22 19:30:06 2024,500,-14.395,-0.313,9.910,9.910,2.812,2.893,30.761,11.039,10.125,38.603,11.892,8.908,34.982,12.090,10.231,9.448,6.980
Fri Nov 22 19:30:06 2024,505,-14.411,-0.480,9.969,9.969,2.882,2.900,30.803,11.064,10.138,38.651,11.886,8.926,34.984,12.089,10.213,9.469,7.013
Fri Nov 22 19:30:06 2024,510,-14.426,-0.646,10.028,10.028,2.952,2.907,30.845,11.089,10.151,38.699,11.881,8.945,34.986,12.089,10.195,9.489,7.045
Fri Nov 22 19:30:06 2024,515,-14.441,-0.813,10.088,10.088,3.022,2.913,30.887,11.114,10.164,38.747,11.875,8.963,34.988,12.088,10.176,9.509,7.078
Fri Nov 22 19:30:06 2024,520,-14.457,-0.980,10.147,10.147,3.092,2.920,30.929,11.139,10.177,38.795,11.869,8.981,34.990,12.087,10.158,9.529,7.110
Fri Nov 22 19:30:06 2024,525,-14.472,-1.146,10.206,10.206,3.162,2.927,30.971,11.164,10.190,38.843,11.863,9.000,34.992,12.086,10.140,9.550,7.143
Fri Nov 22 19:30:06 2024,530,-14.488,-1.313,10.266,10.266,3.232,2.934,31.013,11.189,10.202,38.891,11.857,9.018,34.994,12.086,10.121,9.570,7.175
Fri Nov 22 19:30:06 2024,535,-14.503,-1.479,10.325,10.325,3.303,2.940,31.055,11.215,10.215,38.939,11.851,9.037,34.996,12.085,10.103,9.590,7.208
Fri Nov 22 19:30:06 2024,540,-14.519,-1.646,10.384,10.384,3.373,2.947,31.097,11.240,10.228,38.987,11.845,9.055,34.998,12.084,10.084,9.610,7.241
Fri Nov 22 19:30:06 2024,545,-14.534,-1.812,10.444,10.444,3.443,2.954,31.139,11.265,10.241,39.035,11.840,9.074,35.000,12.083,10.066,9.631,7.273
Fri Nov 22 19:30:06 2024,550,-14.550,-1.979,10.503,10.503,3.513,2.961,31.181,11.290,10.254,39.083,11.834,9.092,35.002,12.083,10.048,9.651,7.306
Fri Nov 22 19:30:06 2024,555,-14.565,-2.146,10.562,10.562,3.583,2.967,31.223,11.315,10.267,39.131,11.828,9.110,35.004,12.082,10.029,9.671,7.338
Fri Nov 22 19:30:06 2024,560,-14.581,-2.312,10.622,10.622,3.653,2.974,31.265,11.340,10.279,39.179,11.822,9.129,35.006,12.081,10.011,9.691,7.371
Fri Nov 22 19:30:06 2024,565,-14.596,-2.479,10.681,10.681,3.723,2.981,31.307,11.365,10.292,39.227,11.816,9.147,35.008,12.081,9.993,9.712,7.403
Fri Nov 22 19:30:06 2024,570,-14.612,-2.645,10.740,10.740,3.793,2.988,31.349,11.390,10.305,39.275,11.810,9.166,35.010,12.080,9.974,9.732,7.436
Fri Nov 22 19:30:06 2024,575,-14.627,-2.812,10.800,10.800,3.863,2.994,31.391,11.415,10.318,39.324,11.804,9.184,35.012,12.079,9.956,9.752,7.468
Fri Nov 22 19:30:06 2024,580,-14.643,-2.978,10.859,10.859,3.933,3.001,31.433,11.440,10.331,39.372,11.799,9.202,35.014,12.078,9.938,9.772,7.501
Fri Nov 22 19:30:06 2024,585,-14.658,-3.145,10.918,10.918,4.003,3.008,31.475,11.465,10.344,39.420,11.793,9.221,35.016,12.078,9.919,9.793,7.533
Fri Nov 22 19:30:06 2024,590,-14.674,-3.311,10.978,10.978,4.073,3.015,31.517,11.490,10.357,39.468,11.787,9.239,35.018,12.077,9.901,9.813,7.566
Fri Nov 22 19:30:06 2024,595,-14.689,-3.478,11.037,11.037,4.143,3.022,31.559,11.515,10.369,39.516,11.781,9.258,35.020,12.076,9.883,9.833,7.598
Fri Nov 22 19:30:06 2024,600,-14.705,-3.645,11.096,11.096,4.213,3.028,31.601,11.540,10.382,39.564,11.775,9.276,35.022,12.076,9.864,9.853,7.631
Fri Nov 22 19:30:06 2024,605,-14.720,-3.811,11.156,11.156,4.283,3.035,31.643,11.565,10.395,39.612,11.769,9.295,35.024,12.075,9.846,9.874,7.663
Fri Nov 22 19:30:06 2024,610,-14.735,-3.978,11.215,11.215,4.353,3.042,31.685,11.590,10.408,39.660,11.763,9.313,35.026,12.074,9.828,9.894,7.696
Fri Nov 22 19:30:06 2024,615,-14.751,-4.144,11.274,11.274,4.423,3.049,31.727,11.615,10.421,39.708,11.758,9.331,35.028,12.073,9.809,9.914,7.728
Fri Nov 22 19:30:06 2024,620,-14.766,-4.311,11.334,11.334,4.493,3.055,31.769,11.640,10.434,39.756,11.752,9.350,35.030,12.073,9.791,9.935,7.761
Fri Nov 22 19:30:06 2024,625,-14.782,-4.477,11.393,11.393,4.563,3.062,31.811,11.665,10.446,39.804,11.746,9.368,35.032,12.072,9.773,9.955,7.793
Fri Nov 22 19:30:06 2024,630,-14.797,-4.644,11.452,11.452,4.633,3.069,31.853,11.690,10.459,39.852,11.740,9.387,35.034,12.071,9.754,9.975,7.826
Fri Nov 22 19:30:06 2024,635,-14.813,-4.811,11.512,11.512,4.703,3.076,31.895,11.715,10.472,39.900,11.734,9.405,35.036,12.071,9.736,9.995,7.858
Fri Nov 22 19:30:06 2024,640,-14.828,-4.977,11.571,11.571,4.773,3.082,31.936,11.740,10.485,39.948,11.728,9.423,35.037,12.070,9.718,10.016,7.891
Fri Nov 22 19:30:06 2024,645,-14.844,-5.144,11.630,11.630,4.843,3.089,31.978,11.765,10.498,39.996,11.722,9.442,35.039,12.069,9.699,10.036,7.923
Fri Nov 22 19:30:06 2024,650,-14.859,-5.310,11.690,11.690,4.913,3.096,32.020,11.790,10.511,40.044,11.716,9.460,35.041,12.068,9.681,10.056,7.956
Fri Nov 22 19:30:06 2024,655,-14.875,-5.477,11.749,11.749,4.983,3.103,32.062,11.815,10.523,40.092,11.711,9.479,35.043,12.068,9.663,10.076,7.988
Fri Nov 22 19:30:06 2024,660,-14.890,-5.643,11.808,11.808,5.054,3.109,32.104,11.840,10.536,40.140,11.705,9.497,35.045,12.067,9.644,10.097,8.021
Fri Nov 22 19:30:06 2024,665,-14.906,-5.810,11.868,11.868,5.124,3.116,32.146,11.865,10.549,40.188,11.699,9.515,35.047,12.066,9.626,10.117,8.053
Fri Nov 22 19:30:06 2024,670,-14.921,-5.976,11.927,11.927,5.194,3.123,32.188,11.890,10.562,40.236,11.693,9.534,35.049,12.066,9.608,10.137,8.086
Fri Nov 22 19:30:06 2024,675,-14.937,-6.143,11.986,11.986,5.264,3.130,32.230,11.915,10.575,40.284,11.687,9.552,35.051,12.065,9.589,10.157,8.118
Fri Nov 22 19:30:06 2024,680,-14.952,-6.310,12.046,12.046,5.334,3.136,32.272,11.940,10.588,40.332,11.681,9.571,35.053,12.064,9.571,10.178,8.151
Fri Nov 22 19:30:06 2024,685,-14.968,-6.476,12.105,12.105,5.404,3.143,32.314,11.965,10.600,40.380,11.675,9.589,35.055,12.063,9.553,10.198,8.184
Fri Nov 22 19:30:06 2024,690,-14.983,-6.643,12.164,12.164,5.474,3.150,32.356,11.990,10.613,40.428,11.670,9.608,35.057,12.063,9.534,10.218,8.216
Fri Nov 22 19:30:06 2024,695,-14.998,-6.809,12.224,12.224,5.544,3.157,32.398,12.015,10.626,40.476,11.664,9.626,35.059,12.062,9.516,10.238,8.249
Fri Nov 22 19:30:06 2024,700,-15.014,-6.976,12.283,12.283,5.614,3.163,32.440,12.040,10.639,40.524,11.658,9.644,35.061,12.061,9.498,10.259,8.281
Fri Nov 22 19:30:06 2024,705,-15.029,-7.142,12.342,12.342,5.684,3.170,32.482,12.066,10.652,40.572,11.652,9.663,35.063,12.060,9.479,10.279,8.314
Fri Nov 22 19:30:06 2024,710,-15.045,-7.309,12.402,12.402,5.754,3.177,32.524,12.091,10.665,40.620,11.646,9.681,35.065,12.060,9.461,10.299,8.346
Fri Nov 22 19:30:06 2024,715,-15.060,-7.476,12.461,12.461,5.824,3.184,32.566,12.116,10.677,40.668,11.640,9.700,35.067,12.059,9.443,10.319,8.379
Fri Nov 22 19:30:06 2024,720,-15.076,-7.642,12.521,12.521,5.894,3.190,32.608,12.141,10.690,40.716,11.634,9.718,35.069,12.058,9.424,10.340,8.411
Fri Nov 22 19:30:06 2024,725,-15.091,-7.809,12.580,12.580,5.964,3.197,32.650,12.166,10.703,40.764,11.629,9.736,35.071,12.058,9.406,10.360,8.444
Fri Nov 22 19:30:06 2024,730,-15.107,-7.975,12.639,12.639,6.034,3.204,32.692,12.191,10.716,40.812,11.623,9.755,35.073,12.057,9.388,10.380,8.476
Fri Nov 22 19:30:06 2024,735,-15.122,-8.142,12.699,12.699,6.104,3.211,32.734,12.216,10.729,40.860,11.617,9.773,35.075,12.056,9.369,10.400,8.509
Fri Nov 22 19:30:06 2024,740,-15.138,-8.308,12.758,12.758,6.174,3.218,32.776,12.241,10.742,40.908,11.611,9.792,35.077,12.055,9.351,10.421,8.541
Fri Nov 22 19:30:06 2024,745,-15.153,-8.475,12.817,12.817,6.244,3.224,32.818,12.266,10.755,40.956,11.605,9.810,35.079,12.055,9.333,10.441,8.574
Fri Nov 22 19:30:06 2024,750,-15.169,-8.641,12.877,12.877,6.314,3.231,32.860,12.291,10.767,41.004,11.599,9.829,35.081,12.054,9.314,10.461,8.606
Fri Nov 22 19:30:06 2024,755,-15.184,-8.808,12.936,12.936,6.384,3.238,32.902,12.316,10.780,41.052,11.593,9.847,35.083,12.053,9.296,10.481,8.639
Fri Nov 22 19:30:06 2024,760,-15.200,-8.975,12.995,12.995,6.454,3.245,32.944,12.341,10.793,41.100,11.588,9.865,35.085,12.053,9.278,10.502,8.671
Fri Nov 22 19:30:06 2024,765,-15.215,-9.141,13.055,13.055,6.524,3.251,32.986,12.366,10.806,41.148,11.582,9.884,35.087,12.052,9.259,10.522,8.704
Fri Nov 22 19:30:06 2024,770,-15.231,-9.308,13.114,13.114,6.594,3.258,33.028,12.391,10.819,41.196,11.576,9.902,35.089,12.051,9.241,10.542,8.736
Fri Nov 22 19:30:06 2024,775,-15.246,-9.474,13.173,13.173,6.664,3.265,33.070,12.416,10.832,41.244,11.570,9.921,35.091,12.050,9.223,10.562,8.769
Fri Nov 22 19:30:06 2024,780,-15.261,-9.641,13.233,13.233,6.735,3.272,33.112,12.441,10.844,41.292,11.564,9.939,35.093,12.050,9.204,10.583,8.801
Fri Nov 22 19:30:06 2024,785,-15.277,-9.807,13.292,13.292,6.805,3.278,33.154,12.466,10.857,41.340,11.558,9.957,35.095,12.049,9.186,10.603,8.834
Fri Nov 22 19:30:06 2024,790,-15.292,-9.974,13.351,13.351,6.875,3.285,33.196,12.491,10.870,41.388,11.552,9.976,35.097,12.048,9.168,10.623,8.866
Fri Nov 22 19:30:06 2024,795,-15.308,-10.141,13.411,13.411,6.945,3.292,33.238,12.516,10.883,41.436,11.546,9.994,35.099,12.048,9.149,10.643,8.899
Fri Nov 22 19:30:06 2024,800,-15.323,-10.307,13.470,13.470,7.015,3.299,33.280,12.541,10.896,41.484,11.541,10.013,35.101,12.047,9.131,10.664,8.931
