Timestamp,Millis,thumb_tm_aa,thumb_tm_flex,thumb_mcp_aa,thumb_mcp_flex,index_mcp_aa,index_mcp_flex,index_pip,middle_mcp_aa,middle_mcp_flex,middle_pip,ring_mcp_aa,ring_mcp_flex,ring_pip,little_mcp_aa,little_mcp_flex,little_pip
Mon Dec 02 20:51:14 2024,400,-22.800,-22.800,2.541,2.541,0.987,21.209,8.438,4.194,15.718,11.497,-3.182,13.215,8.527,10.191,8.269,6.364
Mon Dec 02 20:51:14 2024,405,-22.782,-22.782,2.545,2.545,1.010,21.246,8.388,4.198,15.729,11.503,-3.168,13.277,8.534,10.262,8.260,6.385
Mon Dec 02 20:51:14 2024,410,-22.760,-22.760,2.552,2.552,1.030,21.288,8.310,4.201,15.747,11.503,-3.149,13.370,8.539,10.357,8.249,6.412
Mon Dec 02 20:51:14 2024,415,-22.741,-22.741,2.547,2.547,1.039,21.285,8.267,4.217,15.739,11.507,-3.142,13.359,8.527,10.373,8.268,6.417
Mon Dec 02 20:51:14 2024,420,-22.725,-22.725,2.532,2.532,1.040,21.248,8.249,4.243,15.711,11.512,-3.145,13.266,8.499,10.328,8.312,6.406
Mon Dec 02 20:51:14 2024,425,-22.737,-22.737,2.538,2.538,1.037,21.226,8.252,4.250,15.700,11.494,-3.149,13.234,8.482,10.296,8.339,6.398
Mon Dec 02 20:51:14 2024,430,-22.814,-22.814,2.592,2.592,1.026,21.218,8.298,4.223,15.715,11.422,-3.155,13.308,8.478,10.277,8.344,6.396
Mon Dec 02 20:51:14 2024,435,-22.878,-22.878,2.638,2.638,1.017,21.214,8.339,4.198,15.728,11.362,-3.159,13.378,8.476,10.264,8.344,6.394
Mon Dec 02 20:51:14 2024,440,-22.890,-22.890,2.670,2.670,0.997,21.188,8.311,4.183,15.747,11.402,-3.193,13.268,8.451,10.198,8.374,6.373
Mon Dec 02 20:51:14 2024,445,-22.881,-22.881,2.691,2.691,0.977,21.159,8.263,4.175,15.764,11.473,-3.232,13.113,8.421,10.124,8.410,6.348
Mon Dec 02 20:51:14 2024,450,-22.873,-22.873,2.714,2.714,0.954,21.114,8.212,4.169,15.778,11.489,-3.235,13.072,8.404,10.064,8.441,6.328
Mon Dec 02 20:51:14 2024,455,-22.869,-22.869,2.736,2.736,0.931,21.062,8.163,4.165,15.789,11.447,-3.203,13.150,8.401,10.025,8.466,6.315
Mon Dec 02 20:51:14 2024,460,-22.862,-22.862,2.720,2.720,0.931,21.055,8.179,4.180,15.777,11.449,-3.170,13.215,8.417,10.026,8.458,6.310
Mon Dec 02 20:51:14 2024,465,-22.844,-22.844,2.622,2.622,0.979,21.134,8.322,4.233,15.718,11.535,-3.128,13.270,8.473,10.104,8.387,6.316
Mon Dec 02 20:51:14 2024,470,-22.831,-22.831,2.534,2.534,1.022,21.215,8.460,4.277,15.668,11.611,-3.094,13.324,8.523,10.183,8.322,6.329
Mon Dec 02 20:51:14 2024,475,-22.861,-22.861,2.576,2.576,0.995,21.225,8.428,4.226,15.723,11.525,-3.116,13.389,8.496,10.184,8.363,6.374
Mon Dec 02 20:51:14 2024,480,-22.901,-22.901,2.655,2.655,0.949,21.214,8.350,4.151,15.803,11.401,-3.153,13.449,8.449,10.161,8.431,6.423
Mon Dec 02 20:51:14 2024,485,-22.924,-22.924,2.704,2.704,0.937,21.215,8.316,4.124,15.831,11.347,-3.171,13.448,8.425,10.141,8.455,6.445
Mon Dec 02 20:51:14 2024,490,-22.902,-22.902,2.684,2.684,1.023,21.252,8.407,4.230,15.712,11.483,-3.136,13.261,8.460,10.124,8.355,6.388
Mon Dec 02 20:51:14 2024,495,-22.890,-22.890,2.680,2.680,1.068,21.280,8.444,4.281,15.657,11.544,-3.124,13.160,8.457,10.107,8.309,6.341
Mon Dec 02 20:51:14 2024,500,-22.881,-22.881,2.694,2.694,1.049,21.296,8.378,4.241,15.715,11.467,-3.154,13.217,8.345,10.084,8.377,6.243
Mon Dec 02 20:51:14 2024,505,-22.871,-22.871,2.705,2.705,1.029,21.305,8.321,4.202,15.768,11.397,-3.179,13.278,8.256,10.066,8.440,6.170
Mon Dec 02 20:51:14 2024,510,-22.855,-22.855,2.689,2.689,1.029,21.269,8.345,4.197,15.759,11.406,-3.169,13.308,8.327,10.075,8.442,6.240
Mon Dec 02 20:51:14 2024,515,-22.834,-22.834,2.662,2.662,1.037,21.218,8.401,4.205,15.720,11.444,-3.145,13.331,8.462,10.095,8.423,6.369
Mon Dec 02 20:51:14 2024,520,-22.818,-22.818,2.641,2.641,1.043,21.183,8.445,4.212,15.686,11.474,-3.126,13.349,8.568,10.110,8.408,6.471
Mon Dec 02 20:51:14 2024,525,-22.774,-22.774,2.591,2.591,1.065,21.285,8.433,4.249,15.677,11.424,-3.105,13.371,8.450,10.183,8.353,6.267
Mon Dec 02 20:51:14 2024,530,-22.745,-22.745,2.557,2.557,1.079,21.343,8.434,4.272,15.663,11.400,-3.088,13.388,8.399,10.230,8.317,6.165
Mon Dec 02 20:51:14 2024,535,-22.811,-22.811,2.599,2.599,1.056,21.323,8.387,4.236,15.713,11.435,-3.111,13.415,8.458,10.165,8.393,6.264
Mon Dec 02 20:51:14 2024,540,-22.860,-22.860,2.631,2.631,1.039,21.311,8.351,4.208,15.749,11.463,-3.128,13.435,8.502,10.116,8.450,6.338
Mon Dec 02 20:51:14 2024,545,-22.836,-22.836,2.619,2.619,1.059,21.343,8.356,4.221,15.731,11.446,-3.119,13.436,8.493,10.104,8.455,6.334
Mon Dec 02 20:51:14 2024,550,-22.754,-22.754,2.573,2.573,1.110,21.415,8.391,4.263,15.669,11.394,-3.089,13.422,8.444,10.117,8.421,6.274
Mon Dec 02 20:51:14 2024,555,-22.734,-22.734,2.558,2.558,1.127,21.415,8.408,4.274,15.645,11.378,-3.082,13.398,8.429,10.110,8.408,6.260
Mon Dec 02 20:51:14 2024,560,-22.776,-22.776,2.569,2.569,1.114,21.320,8.421,4.256,15.648,11.397,-3.097,13.332,8.442,10.075,8.408,6.290
Mon Dec 02 20:51:14 2024,565,-22.810,-22.810,2.580,2.580,1.097,21.250,8.428,4.237,15.653,11.409,-3.111,13.291,8.456,10.044,8.415,6.318
Mon Dec 02 20:51:14 2024,570,-22.831,-22.831,2.606,2.606,1.054,21.208,8.413,4.209,15.683,11.406,-3.129,13.341,8.490,10.015,8.452,6.357
Mon Dec 02 20:51:14 2024,575,-22.848,-22.848,2.628,2.628,1.015,21.176,8.398,4.185,15.710,11.401,-3.144,13.392,8.520,9.992,8.486,6.390
Mon Dec 02 20:51:14 2024,580,-22.828,-22.828,2.562,2.562,1.037,21.223,8.355,4.174,15.721,11.385,-3.160,13.343,8.506,10.004,8.486,6.365
Mon Dec 02 20:51:14 2024,585,-22.800,-22.800,2.477,2.477,1.076,21.289,8.309,4.171,15.724,11.369,-3.175,13.268,8.479,10.026,8.473,6.325
Mon Dec 02 20:51:14 2024,590,-22.782,-22.782,2.452,2.452,1.101,21.342,8.278,4.198,15.709,11.362,-3.151,13.283,8.467,10.086,8.456,6.324
Mon Dec 02 20:51:14 2024,595,-22.785,-22.785,2.513,2.513,1.099,21.354,8.277,4.251,15.678,11.368,-3.088,13.404,8.480,10.168,8.440,6.375
Mon Dec 02 20:51:14 2024,600,-22.788,-22.788,2.572,2.572,1.096,21.365,8.276,4.302,15.645,11.374,-3.028,13.521,8.492,10.248,8.423,6.423
Mon Dec 02 20:51:14 2024,605,-22.836,-22.836,2.640,2.640,1.084,21.271,8.257,4.272,15.637,11.328,-3.066,13.373,8.429,10.118,8.410,6.290
Mon Dec 02 20:51:14 2024,610,-22.880,-22.880,2.707,2.707,1.072,21.193,8.238,4.249,15.618,11.284,-3.096,13.247,8.371,10.005,8.390,6.171
Mon Dec 02 20:51:14 2024,615,-22.868,-22.868,2.669,2.669,1.065,21.181,8.196,4.219,15.649,11.274,-3.141,13.219,8.357,9.958,8.446,6.178
Mon Dec 02 20:51:14 2024,620,-22.836,-22.836,2.591,2.591,1.060,21.191,8.144,4.184,15.699,11.276,-3.192,13.226,8.357,9.934,8.531,6.232
Mon Dec 02 20:51:14 2024,625,-22.804,-22.804,2.558,2.558,1.071,21.218,8.171,4.176,15.713,11.298,-3.197,13.259,8.389,9.968,8.519,6.289
Mon Dec 02 20:51:14 2024,630,-22.781,-22.781,2.576,2.576,1.095,21.254,8.270,4.195,15.688,11.336,-3.153,13.311,8.446,10.053,8.411,6.337
Mon Dec 02 20:51:14 2024,635,-22.761,-22.761,2.593,2.593,1.117,21.286,8.360,4.212,15.666,11.369,-3.114,13.357,8.497,10.129,8.315,6.380
Mon Dec 02 20:51:14 2024,640,-22.744,-22.744,2.519,2.519,1.072,21.212,8.291,4.151,15.721,11.388,-3.159,13.295,8.482,10.050,8.420,6.335
Mon Dec 02 20:51:14 2024,645,-22.730,-22.730,2.462,2.462,1.040,21.156,8.229,4.104,15.764,11.396,-3.194,13.245,8.462,9.984,8.510,6.297
Mon Dec 02 20:51:14 2024,650,-22.727,-22.727,2.478,2.478,1.068,21.179,8.195,4.123,15.752,11.361,-3.185,13.249,8.423,9.984,8.536,6.296
Mon Dec 02 20:51:14 2024,655,-22.729,-22.729,2.529,2.529,1.122,21.237,8.175,4.172,15.714,11.306,-3.157,13.277,8.376,10.012,8.532,6.312
Mon Dec 02 20:51:14 2024,660,-22.745,-22.745,2.586,2.586,1.142,21.264,8.176,4.202,15.695,11.261,-3.136,13.321,8.340,10.032,8.519,6.295
Mon Dec 02 20:51:14 2024,665,-22.780,-22.780,2.640,2.640,1.090,21.230,8.215,4.186,15.719,11.250,-3.137,13.376,8.334,10.026,8.497,6.226
Mon Dec 02 20:51:14 2024,670,-22.810,-22.810,2.684,2.684,1.043,21.197,8.253,4.171,15.739,11.247,-3.141,13.409,8.333,10.012,8.479,6.166
Mon Dec 02 20:51:14 2024,675,-22.810,-22.810,2.673,2.673,1.022,21.171,8.279,4.160,15.742,11.292,-3.168,13.306,8.356,9.947,8.487,6.167
Mon Dec 02 20:51:14 2024,680,-22.806,-22.806,2.658,2.658,1.003,21.146,8.302,4.150,15.744,11.340,-3.196,13.195,8.380,9.879,8.495,6.174
Mon Dec 02 20:51:14 2024,685,-22.781,-22.781,2.634,2.634,1.042,21.217,8.288,4.167,15.728,11.321,-3.209,13.196,8.358,9.885,8.499,6.159
Mon Dec 02 20:51:14 2024,690,-22.750,-22.750,2.609,2.609,1.098,21.319,8.262,4.191,15.709,11.279,-3.214,13.240,8.321,9.917,8.500,6.139
Mon Dec 02 20:51:14 2024,695,-22.735,-22.735,2.584,2.584,1.119,21.376,8.262,4.197,15.710,11.275,-3.193,13.319,8.331,9.968,8.510,6.163
Mon Dec 02 20:51:14 2024,700,-22.763,-22.763,2.571,2.571,1.045,21.293,8.325,4.158,15.761,11.365,-3.117,13.449,8.454,10.041,8.536,6.283
Mon Dec 02 20:51:14 2024,705,-22.786,-22.786,2.565,2.565,0.991,21.231,8.370,4.135,15.793,11.432,-3.062,13.543,8.543,10.094,8.553,6.372
Mon Dec 02 20:51:14 2024,710,-22.780,-22.780,2.603,2.603,1.043,21.276,8.316,4.200,15.725,11.376,-3.100,13.450,8.447,10.055,8.532,6.298
Mon Dec 02 20:51:14 2024,715,-22.772,-22.772,2.650,2.650,1.110,21.333,8.247,4.283,15.639,11.306,-3.148,13.332,8.326,10.005,8.503,6.204
Mon Dec 02 20:51:14 2024,720,-22.748,-22.748,2.650,2.650,1.145,21.390,8.212,4.281,15.639,11.287,-3.123,13.379,8.328,10.011,8.503,6.180
Mon Dec 02 20:51:14 2024,725,-22.723,-22.723,2.631,2.631,1.159,21.433,8.198,4.247,15.671,11.293,-3.076,13.477,8.378,10.037,8.513,6.188
Mon Dec 02 20:51:14 2024,730,-22.706,-22.706,2.607,2.607,1.136,21.421,8.177,4.204,15.713,11.294,-3.077,13.525,8.415,10.036,8.547,6.226
Mon Dec 02 20:51:14 2024,735,-22.701,-22.701,2.581,2.581,1.072,21.347,8.152,4.159,15.759,11.289,-3.134,13.503,8.430,10.004,8.602,6.288
Mon Dec 02 20:51:14 2024,740,-22.703,-22.703,2.560,2.560,1.009,21.269,8.136,4.123,15.796,11.285,-3.193,13.468,8.440,9.975,8.648,6.350
Mon Dec 02 20:51:14 2024,745,-22.729,-22.729,2.572,2.572,1.049,21.304,8.207,4.155,15.763,11.313,-3.129,13.500,8.461,10.046,8.577,6.332
Mon Dec 02 20:51:14 2024,750,-22.753,-22.753,2.587,2.587,1.094,21.347,8.275,4.190,15.728,11.338,-3.062,13.533,8.478,10.116,8.505,6.308
Mon Dec 02 20:51:14 2024,755,-22.764,-22.764,2.611,2.611,1.116,21.392,8.296,4.203,15.717,11.332,-3.062,13.510,8.469,10.127,8.488,6.300
Mon Dec 02 20:51:14 2024,760,-22.768,-22.768,2.639,2.639,1.120,21.438,8.286,4.202,15.723,11.306,-3.104,13.452,8.442,10.100,8.505,6.302
Mon Dec 02 20:51:14 2024,765,-22.765,-22.765,2.640,2.640,1.115,21.463,8.275,4.195,15.730,11.302,-3.123,13.427,8.435,10.083,8.517,6.298
Mon Dec 02 20:51:14 2024,770,-22.744,-22.744,2.585,2.585,1.092,21.452,8.260,4.173,15.744,11.343,-3.101,13.458,8.465,10.078,8.520,6.276
Mon Dec 02 20:51:14 2024,775,-22.735,-22.735,2.551,2.551,1.072,21.442,8.248,4.158,15.754,11.376,-3.090,13.476,8.485,10.068,8.528,6.264
Mon Dec 02 20:51:14 2024,780,-22.785,-22.785,2.614,2.614,1.060,21.436,8.253,4.177,15.749,11.387,-3.131,13.419,8.455,10.027,8.571,6.301
Mon Dec 02 20:51:14 2024,785,-22.845,-22.845,2.693,2.693,1.050,21.431,8.261,4.202,15.741,11.394,-3.182,13.349,8.418,9.981,8.620,6.347
Mon Dec 02 20:51:14 2024,790,-22.844,-22.844,2.688,2.688,1.034,21.461,8.247,4.199,15.754,11.384,-3.221,13.354,8.388,9.969,8.660,6.344
Mon Dec 02 20:51:14 2024,795,-22.801,-22.801,2.623,2.623,1.016,21.514,8.217,4.177,15.783,11.363,-3.246,13.409,8.370,9.984,8.690,6.306
Mon Dec 02 20:51:14 2024,800,-22.769,-22.769,2.581,2.581,1.002,21.566,8.220,4.168,15.798,11.366,-3.225,13.500,8.393,10.026,8.698,6.316
Mon Dec 02 20:51:14 2024,805,-22.760,-22.760,2.585,2.585,0.996,21.598,8.270,4.181,15.788,11.404,-3.142,13.622,8.470,10.097,8.673,6.392
Mon Dec 02 20:51:14 2024,810,-22.748,-22.748,2.588,2.588,0.992,21.633,8.321,4.196,15.776,11.447,-3.054,13.752,8.557,10.172,8.648,6.474
Mon Dec 02 20:51:14 2024,815,-22.718,-22.718,2.570,2.570,1.017,21.620,8.266,4.191,15.780,11.447,-3.117,13.645,8.529,10.096,8.687,6.418
Mon Dec 02 20:51:14 2024,820,-22.688,-22.688,2.551,2.551,1.044,21.603,8.204,4.185,15.785,11.443,-3.191,13.521,8.491,10.009,8.729,6.351
Mon Dec 02 20:51:14 2024,825,-22.672,-22.672,2.538,2.538,1.044,21.565,8.163,4.191,15.781,11.465,-3.207,13.463,8.474,9.967,8.738,6.329
Mon Dec 02 20:51:14 2024,830,-22.673,-22.673,2.536,2.536,1.027,21.531,8.156,4.202,15.774,11.493,-3.177,13.473,8.479,9.973,8.723,6.346
Mon Dec 02 20:51:14 2024,835,-22.669,-22.669,2.522,2.522,1.024,21.498,8.161,4.216,15.761,11.525,-3.161,13.480,8.499,9.976,8.721,6.382
Mon Dec 02 20:51:14 2024,840,-22.649,-22.649,2.479,2.479,1.076,21.504,8.206,4.229,15.736,11.543,-3.213,13.464,8.558,9.964,8.775,6.458
Mon Dec 02 20:51:14 2024,845,-22.631,-22.631,2.440,2.440,1.124,21.513,8.247,4.241,15.711,11.559,-3.260,13.449,8.612,9.953,8.823,6.527
Mon Dec 02 20:51:14 2024,850,-22.622,-22.622,2.475,2.475,1.166,21.590,8.169,4.279,15.677,11.483,-3.223,13.387,8.493,9.957,8.767,6.424
Mon Dec 02 20:51:14 2024,855,-22.615,-22.615,2.514,2.514,1.204,21.668,8.086,4.317,15.645,11.406,-3.180,13.324,8.369,9.963,8.705,6.314
Mon Dec 02 20:51:14 2024,860,-22.652,-22.652,2.549,2.549,1.186,21.668,8.088,4.306,15.653,11.401,-3.168,13.353,8.370,9.964,8.685,6.296
Mon Dec 02 20:51:14 2024,865,-22.704,-22.704,2.572,2.572,1.144,21.624,8.137,4.272,15.680,11.439,-3.176,13.424,8.442,9.963,8.696,6.336
Mon Dec 02 20:51:14 2024,870,-22.735,-22.735,2.575,2.575,1.106,21.577,8.178,4.249,15.695,11.454,-3.189,13.468,8.495,9.940,8.717,6.357
Mon Dec 02 20:51:14 2024,875,-22.704,-22.704,2.534,2.534,1.096,21.538,8.183,4.259,15.678,11.413,-3.207,13.439,8.484,9.876,8.753,6.328
Mon Dec 02 20:51:14 2024,880,-22.676,-22.676,2.496,2.496,1.086,21.504,8.188,4.267,15.662,11.376,-3.224,13.411,8.475,9.818,8.785,6.301
Mon Dec 02 20:51:14 2024,885,-22.690,-22.690,2.511,2.511,1.046,21.447,8.155,4.216,15.720,11.379,-3.254,13.388,8.456,9.800,8.792,6.302
Mon Dec 02 20:51:14 2024,890,-22.709,-22.709,2.533,2.533,1.011,21.401,8.125,4.167,15.775,11.389,-3.277,13.373,8.442,9.794,8.792,6.309
Mon Dec 02 20:51:14 2024,895,-22.715,-22.715,2.543,2.543,1.013,21.366,8.121,4.156,15.776,11.393,-3.291,13.308,8.421,9.806,8.764,6.303
Mon Dec 02 20:51:14 2024,900,-22.709,-22.709,2.545,2.545,1.049,21.338,8.140,4.177,15.724,11.392,-3.299,13.189,8.390,9.836,8.707,6.284
Mon Dec 02 20:51:14 2024,905,-22.704,-22.704,2.547,2.547,1.088,21.362,8.148,4.194,15.692,11.381,-3.296,13.140,8.372,9.842,8.682,6.268
Mon Dec 02 20:51:14 2024,910,-22.696,-22.696,2.547,2.547,1.149,21.507,8.130,4.212,15.698,11.345,-3.265,13.229,8.373,9.796,8.718,6.250
Mon Dec 02 20:51:14 2024,915,-22.686,-22.686,2.546,2.546,1.228,21.701,8.109,4.235,15.702,11.300,-3.226,13.343,8.374,9.738,8.765,6.227
Mon Dec 02 20:51:14 2024,920,-22.670,-22.670,2.523,2.523,1.223,21.696,8.191,4.258,15.668,11.354,-3.240,13.303,8.368,9.779,8.762,6.238
Mon Dec 02 20:51:14 2024,925,-22.652,-22.652,2.497,2.497,1.216,21.689,8.279,4.284,15.630,11.413,-3.254,13.260,8.360,9.822,8.759,6.250
Mon Dec 02 20:51:14 2024,930,-22.652,-22.652,2.525,2.525,1.200,21.648,8.286,4.268,15.632,11.401,-3.259,13.220,8.359,9.847,8.737,6.264
Mon Dec 02 20:51:14 2024,935,-22.662,-22.662,2.593,2.593,1.173,21.577,8.238,4.219,15.661,11.339,-3.259,13.175,8.361,9.866,8.697,6.284
Mon Dec 02 20:51:14 2024,940,-22.670,-22.670,2.646,2.646,1.153,21.523,8.201,4.182,15.682,11.291,-3.259,13.140,8.363,9.880,8.667,6.300
Mon Dec 02 20:51:14 2024,945,-22.623,-22.623,2.529,2.529,1.175,21.510,8.232,4.181,15.684,11.321,-3.338,13.098,8.363,9.746,8.725,6.233
Mon Dec 02 20:51:14 2024,950,-22.594,-22.594,2.461,2.461,1.180,21.496,8.253,4.168,15.695,11.339,-3.386,13.080,8.367,9.665,8.757,6.195
Mon Dec 02 20:51:14 2024,955,-22.603,-22.603,2.484,2.484,1.143,21.475,8.274,4.117,15.745,11.346,-3.366,13.134,8.395,9.685,8.746,6.218
Mon Dec 02 20:51:14 2024,960,-22.625,-22.625,2.538,2.538,1.091,21.454,8.296,4.052,15.808,11.349,-3.323,13.213,8.431,9.738,8.719,6.261
Mon Dec 02 20:51:14 2024,965,-22.649,-22.649,2.586,2.586,1.101,21.455,8.286,4.043,15.807,11.340,-3.315,13.212,8.427,9.751,8.723,6.287
Mon Dec 02 20:51:14 2024,970,-22.675,-22.675,2.624,2.624,1.166,21.478,8.250,4.085,15.751,11.321,-3.337,13.139,8.389,9.728,8.753,6.298
Mon Dec 02 20:51:14 2024,975,-22.694,-22.694,2.656,2.656,1.225,21.527,8.228,4.131,15.703,11.299,-3.343,13.105,8.351,9.723,8.759,6.285
Mon Dec 02 20:51:14 2024,980,-22.687,-22.687,2.656,2.656,1.236,21.609,8.255,4.161,15.702,11.284,-3.302,13.185,8.335,9.769,8.703,6.221
Mon Dec 02 20:51:14 2024,985,-22.680,-22.680,2.656,2.656,1.250,21.704,8.286,4.195,15.696,11.271,-3.256,13.272,8.321,9.819,8.643,6.153
Mon Dec 02 20:51:14 2024,990,-22.675,-22.675,2.652,2.652,1.281,21.749,8.313,4.228,15.671,11.289,-3.220,13.310,8.329,9.854,8.611,6.129
Mon Dec 02 20:51:14 2024,995,-22.669,-22.669,2.647,2.647,1.322,21.785,8.343,4.265,15.637,11.319,-3.181,13.339,8.347,9.889,8.584,6.114
Mon Dec 02 20:51:15 2024,0,-22.695,-22.695,2.675,2.675,1.291,21.756,8.317,4.246,15.663,11.335,-3.194,13.347,8.370,9.899,8.622,6.184
Mon Dec 02 20:51:15 2024,5,-22.736,-22.736,2.721,2.721,1.217,21.687,8.258,4.192,15.725,11.338,-3.239,13.340,8.391,9.890,8.697,6.298
Mon Dec 02 20:51:15 2024,10,-22.768,-22.768,2.748,2.748,1.175,21.656,8.224,4.155,15.765,11.337,-3.277,13.311,8.399,9.878,8.751,6.379
Mon Dec 02 20:51:15 2024,15,-22.737,-22.737,2.684,2.684,1.289,21.798,8.312,4.212,15.691,11.317,-3.262,13.206,8.345,9.860,8.694,6.276
Mon Dec 02 20:51:15 2024,20,-22.706,-22.706,2.619,2.619,1.404,21.940,8.400,4.269,15.613,11.297,-3.246,13.107,8.293,9.843,8.632,6.168
Mon Dec 02 20:51:15 2024,25,-22.693,-22.693,2.607,2.607,1.370,21.844,8.341,4.264,15.600,11.276,-3.280,13.066,8.280,9.820,8.634,6.152
Mon Dec 02 20:51:15 2024,30,-22.686,-22.686,2.611,2.611,1.299,21.695,8.248,4.243,15.606,11.257,-3.326,13.046,8.281,9.798,8.652,6.165
Mon Dec 02 20:51:15 2024,35,-22.710,-22.710,2.628,2.628,1.272,21.634,8.202,4.231,15.613,11.244,-3.358,13.008,8.270,9.762,8.685,6.157
Mon Dec 02 20:51:15 2024,40,-22.747,-22.747,2.651,2.651,1.282,21.647,8.199,4.228,15.619,11.238,-3.372,12.969,8.256,9.728,8.718,6.138
Mon Dec 02 20:51:15 2024,45,-22.780,-22.780,2.665,2.665,1.292,21.664,8.207,4.223,15.624,11.233,-3.381,12.931,8.248,9.699,8.744,6.121
Mon Dec 02 20:51:15 2024,50,-22.762,-22.762,2.622,2.622,1.270,21.652,8.241,4.208,15.617,11.234,-3.361,12.917,8.284,9.709,8.712,6.132
Mon Dec 02 20:51:15 2024,55,-22.744,-22.744,2.593,2.593,1.267,21.665,8.275,4.203,15.602,11.231,-3.339,12.928,8.314,9.725,8.684,6.140
Mon Dec 02 20:51:15 2024,60,-22.727,-22.727,2.602,2.602,1.326,21.769,8.331,4.228,15.560,11.216,-3.300,13.022,8.338,9.764,8.657,6.138
Mon Dec 02 20:51:15 2024,65,-22.712,-22.712,2.610,2.610,1.379,21.860,8.365,4.250,15.526,11.198,-3.266,13.105,8.350,9.790,8.641,6.127
Mon Dec 02 20:51:15 2024,70,-22.703,-22.703,2.616,2.616,1.425,21.934,8.368,4.268,15.505,11.175,-3.242,13.171,8.341,9.796,8.640,6.103
Mon Dec 02 20:51:15 2024,75,-22.710,-22.710,2.587,2.587,1.398,21.877,8.246,4.249,15.541,11.144,-3.259,13.116,8.270,9.718,8.688,6.036
Mon Dec 02 20:51:15 2024,80,-22.715,-22.715,2.562,2.562,1.375,21.829,8.143,4.232,15.571,11.117,-3.274,13.070,8.210,9.651,8.730,5.980
Mon Dec 02 20:51:15 2024,85,-22.738,-22.738,2.638,2.638,1.349,21.768,8.140,4.222,15.605,11.214,-3.226,13.123,8.285,9.728,8.697,6.070
Mon Dec 02 20:51:15 2024,90,-22.754,-22.754,2.690,2.690,1.330,21.724,8.133,4.213,15.629,11.281,-3.194,13.159,8.333,9.779,8.677,6.131
Mon Dec 02 20:51:15 2024,95,-22.742,-22.742,2.719,2.719,1.315,21.732,8.172,4.222,15.629,11.294,-3.212,13.220,8.380,9.789,8.715,6.188
Mon Dec 02 20:51:15 2024,100,-22.721,-22.721,2.735,2.735,1.303,21.761,8.225,4.235,15.621,11.285,-3.248,13.283,8.421,9.781,8.771,6.237
Mon Dec 02 20:51:15 2024,105,-22.696,-22.696,2.717,2.717,1.312,21.813,8.246,4.251,15.613,11.284,-3.276,13.268,8.406,9.763,8.788,6.211
Mon Dec 02 20:51:15 2024,110,-22.670,-22.670,2.668,2.668,1.340,21.882,8.234,4.266,15.606,11.290,-3.294,13.178,8.337,9.737,8.766,6.116
Mon Dec 02 20:51:15 2024,115,-22.644,-22.644,2.620,2.620,1.366,21.947,8.222,4.281,15.599,11.295,-3.310,13.090,8.272,9.712,8.743,6.023
Mon Dec 02 20:51:15 2024,120,-22.657,-22.657,2.632,2.632,1.406,21.994,8.297,4.308,15.579,11.393,-3.260,13.172,8.372,9.800,8.715,6.168
Mon Dec 02 20:51:15 2024,125,-22.668,-22.668,2.640,2.640,1.444,22.041,8.368,4.335,15.560,11.486,-3.214,13.245,8.463,9.881,8.688,6.300
Mon Dec 02 20:51:15 2024,130,-22.683,-22.683,2.640,2.640,1.411,22.024,8.344,4.311,15.578,11.425,-3.206,13.288,8.455,9.905,8.673,6.295
Mon Dec 02 20:51:15 2024,135,-22.700,-22.700,2.637,2.637,1.352,21.985,8.287,4.270,15.608,11.311,-3.212,13.321,8.413,9.909,8.662,6.240
Mon Dec 02 20:51:15 2024,140,-22.718,-22.718,2.654,2.654,1.316,21.958,8.245,4.247,15.630,11.244,-3.226,13.322,8.375,9.908,8.664,6.210
Mon Dec 02 20:51:15 2024,145,-22.740,-22.740,2.710,2.710,1.326,21.952,8.231,4.258,15.640,11.266,-3.258,13.260,8.350,9.897,8.689,6.224
Mon Dec 02 20:51:15 2024,150,-22.760,-22.760,2.760,2.760,1.331,21.945,8.216,4.267,15.648,11.282,-3.287,13.207,8.327,9.887,8.711,6.234
Mon Dec 02 20:51:15 2024,155,-22.763,-22.763,2.760,2.760,1.330,22.043,8.364,4.286,15.616,11.356,-3.286,13.248,8.387,9.907,8.706,6.240
Mon Dec 02 20:51:15 2024,160,-22.765,-22.765,2.761,2.761,1.329,22.138,8.504,4.304,15.586,11.427,-3.284,13.284,8.444,9.925,8.702,6.247
Mon Dec 02 20:51:15 2024,165,-22.750,-22.750,2.726,2.726,1.316,22.106,8.450,4.284,15.608,11.422,-3.286,13.293,8.458,9.924,8.714,6.262
Mon Dec 02 20:51:15 2024,170,-22.728,-22.728,2.678,2.678,1.299,22.039,8.342,4.252,15.646,11.399,-3.290,13.297,8.462,9.918,8.729,6.282
Mon Dec 02 20:51:15 2024,175,-22.710,-22.710,2.646,2.646,1.323,22.038,8.291,4.260,15.647,11.391,-3.283,13.298,8.438,9.924,8.725,6.276
Mon Dec 02 20:51:15 2024,180,-22.699,-22.699,2.633,2.633,1.388,22.103,8.300,4.309,15.611,11.398,-3.268,13.296,8.384,9.942,8.699,6.242
Mon Dec 02 20:51:15 2024,185,-22.692,-22.692,2.627,2.627,1.431,22.148,8.320,4.343,15.582,11.405,-3.248,13.306,8.359,9.959,8.681,6.226
Mon Dec 02 20:51:15 2024,190,-22.693,-22.693,2.642,2.642,1.416,22.140,8.369,4.342,15.574,11.416,-3.217,13.344,8.410,9.976,8.680,6.260
Mon Dec 02 20:51:15 2024,195,-22.695,-22.695,2.659,2.659,1.396,22.126,8.417,4.335,15.567,11.427,-3.187,13.383,8.466,9.991,8.682,6.297
Mon Dec 02 20:51:15 2024,200,-22.665,-22.665,2.614,2.614,1.385,22.137,8.364,4.334,15.587,11.448,-3.200,13.437,8.480,9.968,8.759,6.316
Mon Dec 02 20:51:15 2024,205,-22.633,-22.633,2.560,2.560,1.382,22.155,8.290,4.336,15.608,11.465,-3.225,13.476,8.471,9.938,8.837,6.322
Mon Dec 02 20:51:15 2024,210,-22.620,-22.620,2.527,2.527,1.339,22.119,8.246,4.308,15.653,11.501,-3.263,13.499,8.478,9.918,8.886,6.321
Mon Dec 02 20:51:15 2024,215,-22.647,-22.647,2.549,2.549,1.239,21.997,8.282,4.236,15.726,11.555,-3.307,13.482,8.514,9.923,8.856,6.306
Mon Dec 02 20:51:15 2024,220,-22.669,-22.669,2.567,2.567,1.155,21.895,8.312,4.175,15.788,11.600,-3.344,13.467,8.544,9.928,8.830,6.295
Mon Dec 02 20:51:15 2024,225,-22.642,-22.642,2.592,2.592,1.244,22.018,8.314,4.290,15.679,11.608,-3.301,13.488,8.518,10.006,8.808,6.339
Mon Dec 02 20:51:15 2024,230,-22.620,-22.620,2.611,2.611,1.312,22.113,8.316,4.379,15.595,11.614,-3.268,13.505,8.498,10.066,8.791,6.374
Mon Dec 02 20:51:15 2024,235,-22.598,-22.598,2.587,2.587,1.390,22.194,8.313,4.431,15.546,11.630,-3.263,13.476,8.485,10.058,8.785,6.358
Mon Dec 02 20:51:15 2024,240,-22.581,-22.581,2.545,2.545,1.450,22.243,8.309,4.446,15.532,11.648,-3.277,13.428,8.481,10.013,8.788,6.318
Mon Dec 02 20:51:15 2024,245,-22.571,-22.571,2.515,2.515,1.458,22.249,8.351,4.427,15.547,11.662,-3.274,13.433,8.516,10.004,8.775,6.309
Mon Dec 02 20:51:15 2024,250,-22.568,-22.568,2.499,2.499,1.417,22.211,8.434,4.378,15.589,11.673,-3.257,13.489,8.586,10.032,8.748,6.332
Mon Dec 02 20:51:15 2024,255,-22.564,-22.564,2.491,2.491,1.377,22.168,8.514,4.330,15.628,11.681,-3.240,13.539,8.655,10.060,8.719,6.355
Mon Dec 02 20:51:15 2024,260,-22.557,-22.557,2.598,2.598,1.421,22.123,8.423,4.371,15.582,11.641,-3.251,13.429,8.599,10.048,8.704,6.336
Mon Dec 02 20:51:15 2024,265,-22.549,-22.549,2.710,2.710,1.467,22.082,8.328,4.414,15.533,11.600,-3.263,13.313,8.540,10.035,8.688,6.317
Mon Dec 02 20:51:15 2024,270,-22.550,-22.550,2.811,2.811,1.458,22.053,8.335,4.412,15.527,11.584,-3.274,13.297,8.535,10.039,8.688,6.327
Mon Dec 02 20:51:15 2024,275,-22.556,-22.556,2.900,2.900,1.418,22.032,8.397,4.385,15.543,11.584,-3.282,13.336,8.559,10.052,8.695,6.353
Mon Dec 02 20:51:15 2024,280,-22.556,-22.556,3.010,3.010,1.394,22.024,8.428,4.374,15.554,11.582,-3.276,13.386,8.590,10.076,8.714,6.405
Mon Dec 02 20:51:15 2024,285,-22.551,-22.551,3.155,3.155,1.393,22.035,8.416,4.384,15.553,11.579,-3.243,13.458,8.630,10.116,8.747,6.500
Mon Dec 02 20:51:15 2024,290,-22.533,-22.533,3.295,3.295,1.384,22.026,8.417,4.383,15.560,11.576,-3.231,13.493,8.655,10.143,8.763,6.564
Mon Dec 02 20:51:15 2024,295,-22.499,-22.499,3.421,3.421,1.364,21.991,8.435,4.366,15.575,11.571,-3.242,13.479,8.659,10.152,8.760,6.584
Mon Dec 02 20:51:15 2024,300,-22.446,-22.446,3.565,3.565,1.332,21.928,8.471,4.334,15.599,11.564,-3.274,13.425,8.647,10.148,8.743,6.576
Mon Dec 02 20:51:15 2024,305,-22.428,-22.428,3.665,3.665,1.324,21.863,8.468,4.306,15.617,11.569,-3.283,13.368,8.634,10.080,8.768,6.562
Mon Dec 02 20:51:15 2024,310,-22.420,-22.420,3.764,3.764,1.322,21.789,8.451,4.275,15.635,11.578,-3.283,13.302,8.619,9.977,8.813,6.545
Mon Dec 02 20:51:15 2024,315,-22.400,-22.400,3.880,3.880,1.324,21.754,8.439,4.248,15.654,11.571,-3.287,13.292,8.622,9.932,8.834,6.554
Mon Dec 02 20:51:15 2024,320,-22.355,-22.355,4.031,4.031,1.334,21.816,8.444,4.231,15.678,11.523,-3.300,13.428,8.669,10.043,8.796,6.627
Mon Dec 02 20:51:15 2024,325,-22.312,-22.312,4.143,4.143,1.345,21.869,8.462,4.227,15.689,11.498,-3.304,13.539,8.709,10.126,8.765,6.675
Mon Dec 02 20:51:15 2024,330,-22.261,-22.261,4.124,4.124,1.375,21.900,8.553,4.271,15.653,11.569,-3.267,13.590,8.729,10.123,8.762,6.629
Mon Dec 02 20:51:15 2024,335,-22.200,-22.200,4.083,4.083,1.414,21.934,8.672,4.332,15.602,11.668,-3.216,13.642,8.752,10.106,8.763,6.563
Mon Dec 02 20:51:15 2024,340,-22.191,-22.191,4.153,4.153,1.424,21.968,8.660,4.346,15.586,11.651,-3.191,13.624,8.736,10.105,8.773,6.568
Mon Dec 02 20:51:15 2024,345,-22.207,-22.207,4.293,4.293,1.423,22.010,8.582,4.342,15.585,11.572,-3.172,13.569,8.698,10.111,8.790,6.609
Mon Dec 02 20:51:15 2024,350,-22.224,-22.224,4.404,4.404,1.404,22.012,8.555,4.326,15.597,11.542,-3.164,13.566,8.700,10.109,8.800,6.633
Mon Dec 02 20:51:15 2024,355,-22.252,-22.252,4.517,4.517,1.341,21.942,8.604,4.282,15.644,11.589,-3.173,13.655,8.777,10.091,8.804,6.636
Mon Dec 02 20:51:15 2024,360,-22.274,-22.274,4.626,4.626,1.289,21.892,8.648,4.246,15.682,11.622,-3.182,13.728,8.836,10.074,8.811,6.639
Mon Dec 02 20:51:15 2024,365,-22.254,-22.254,4.704,4.704,1.324,21.978,8.650,4.260,15.664,11.573,-3.192,13.694,8.764,10.058,8.831,6.630
Mon Dec 02 20:51:15 2024,370,-22.229,-22.229,4.779,4.779,1.365,22.079,8.648,4.280,15.640,11.516,-3.202,13.649,8.679,10.043,8.853,6.621
Mon Dec 02 20:51:15 2024,375,-22.208,-22.208,4.880,4.880,1.399,22.106,8.586,4.334,15.595,11.469,-3.190,13.632,8.624,10.044,8.831,6.549
Mon Dec 02 20:51:15 2024,380,-22.192,-22.192,4.983,4.983,1.426,22.092,8.498,4.399,15.543,11.433,-3.169,13.631,8.592,10.053,8.786,6.452
Mon Dec 02 20:51:15 2024,385,-22.177,-22.177,5.051,5.051,1.443,22.057,8.444,4.416,15.528,11.410,-3.174,13.598,8.566,10.021,8.796,6.418
Mon Dec 02 20:51:15 2024,390,-22.165,-22.165,5.064,5.064,1.445,21.997,8.442,4.363,15.566,11.408,-3.215,13.524,8.550,9.937,8.878,6.474
Mon Dec 02 20:51:15 2024,395,-22.159,-22.159,5.092,5.092,1.448,21.943,8.447,4.313,15.600,11.408,-3.256,13.456,8.537,9.862,8.953,6.530
Mon Dec 02 20:51:15 2024,400,-22.203,-22.203,5.219,5.219,1.451,21.964,8.497,4.333,15.586,11.422,-3.254,13.487,8.561,9.927,8.905,6.540
Mon Dec 02 20:51:15 2024,405,-22.253,-22.253,5.362,5.362,1.453,21.988,8.553,4.354,15.571,11.438,-3.252,13.522,8.588,10.001,8.850,6.551
Mon Dec 02 20:51:15 2024,410,-22.309,-22.309,5.497,5.497,1.441,21.987,8.581,4.347,15.590,11.482,-3.202,13.626,8.651,10.075,8.818,6.604
Mon Dec 02 20:51:15 2024,415,-22.357,-22.357,5.602,5.602,1.421,21.972,8.587,4.324,15.625,11.534,-3.132,13.754,8.724,10.135,8.806,6.672
Mon Dec 02 20:51:15 2024,420,-22.394,-22.394,5.705,5.705,1.403,21.937,8.614,4.304,15.644,11.576,-3.131,13.761,8.764,10.147,8.792,6.696
Mon Dec 02 20:51:15 2024,425,-22.408,-22.408,5.788,5.788,1.391,21.880,8.666,4.292,15.639,11.597,-3.225,13.603,8.752,10.090,8.780,6.656
Mon Dec 02 20:51:15 2024,430,-22.427,-22.427,5.886,5.886,1.377,21.822,8.723,4.280,15.633,11.622,-3.313,13.455,8.740,10.040,8.764,6.619
Mon Dec 02 20:51:15 2024,435,-22.480,-22.480,6.054,6.054,1.359,21.807,8.787,4.289,15.640,11.656,-3.277,13.528,8.733,10.108,8.747,6.653
Mon Dec 02 20:51:15 2024,440,-22.531,-22.531,6.207,6.207,1.343,21.799,8.844,4.299,15.646,11.686,-3.231,13.618,8.728,10.181,8.731,6.692
Mon Dec 02 20:51:15 2024,445,-22.525,-22.525,6.386,6.386,1.348,21.750,8.830,4.268,15.676,11.683,-3.243,13.528,8.689,10.156,8.735,6.700
Mon Dec 02 20:51:15 2024,450,-22.495,-22.495,6.518,6.518,1.362,21.700,8.788,4.228,15.707,11.666,-3.278,13.382,8.646,10.092,8.746,6.690
Mon Dec 02 20:51:15 2024,455,-22.425,-22.425,6.704,6.704,1.318,21.631,8.802,4.184,15.750,11.653,-3.311,13.323,8.627,10.037,8.779,6.689
Mon Dec 02 20:51:15 2024,460,-22.342,-22.342,6.891,6.891,1.247,21.561,8.849,4.145,15.791,11.646,-3.336,13.327,8.627,9.997,8.819,6.695
Mon Dec 02 20:51:15 2024,465,-22.244,-22.244,7.081,7.081,1.166,21.498,8.915,4.111,15.830,11.633,-3.353,13.377,8.634,9.970,8.858,6.699
Mon Dec 02 20:51:15 2024,470,-22.079,-22.079,7.318,7.318,1.152,21.485,8.973,4.079,15.859,11.552,-3.343,13.450,8.613,9.952,8.854,6.664
Mon Dec 02 20:51:15 2024,475,-21.912,-21.912,7.546,7.546,1.154,21.484,9.023,4.052,15.882,11.462,-3.328,13.524,8.586,9.939,8.840,6.622
Mon Dec 02 20:51:15 2024,480,-21.704,-21.704,7.710,7.710,1.119,21.436,9.058,4.030,15.904,11.402,-3.345,13.488,8.523,9.926,8.832,6.579
Mon Dec 02 20:51:15 2024,485,-21.485,-21.485,7.781,7.781,1.053,21.347,9.072,4.016,15.921,11.384,-3.392,13.347,8.430,9.917,8.832,6.541
Mon Dec 02 20:51:15 2024,490,-21.292,-21.292,7.962,7.962,1.020,21.301,9.109,4.017,15.918,11.365,-3.401,13.262,8.385,9.910,8.828,6.544
Mon Dec 02 20:51:15 2024,495,-21.197,-21.197,8.331,8.331,1.070,21.364,9.187,4.045,15.871,11.349,-3.325,13.320,8.455,9.913,8.819,6.637
Mon Dec 02 20:51:15 2024,500,-21.129,-21.129,8.652,8.652,1.091,21.379,9.248,4.053,15.846,11.330,-3.268,13.356,8.504,9.920,8.801,6.697
Mon Dec 02 20:51:15 2024,505,-21.101,-21.101,8.992,8.992,1.022,21.239,9.282,3.994,15.890,11.291,-3.248,13.343,8.512,9.953,8.747,6.675
Mon Dec 02 20:51:15 2024,510,-21.090,-21.090,9.366,9.366,0.912,21.035,9.308,3.903,15.964,11.241,-3.240,13.310,8.504,9.998,8.672,6.619
Mon Dec 02 20:51:15 2024,515,-21.061,-21.061,9.668,9.668,0.864,20.966,9.361,3.859,15.993,11.218,-3.248,13.297,8.500,10.016,8.619,6.604
Mon Dec 02 20:51:15 2024,520,-21.013,-21.013,10.010,10.010,0.844,20.960,9.444,3.831,16.000,11.205,-3.268,13.294,8.499,10.022,8.562,6.611
Mon Dec 02 20:51:15 2024,525,-20.972,-20.972,10.320,10.320,0.825,20.943,9.496,3.812,16.009,11.186,-3.294,13.252,8.476,10.026,8.516,6.600
Mon Dec 02 20:51:15 2024,530,-20.938,-20.938,10.635,10.635,0.809,20.892,9.486,3.811,16.027,11.144,-3.340,13.099,8.398,10.029,8.484,6.540
Mon Dec 02 20:51:15 2024,535,-20.911,-20.911,10.891,10.891,0.796,20.853,9.476,3.810,16.041,11.110,-3.378,12.973,8.334,10.032,8.458,6.492
Mon Dec 02 20:51:15 2024,540,-20.835,-20.835,11.085,11.085,0.788,20.844,9.528,3.805,16.020,11.062,-3.392,12.954,8.288,10.046,8.430,6.477
Mon Dec 02 20:51:15 2024,545,-20.759,-20.759,11.246,11.246,0.782,20.842,9.583,3.800,15.994,11.016,-3.400,12.955,8.251,10.060,8.405,6.470
Mon Dec 02 20:51:15 2024,550,-20.689,-20.689,11.477,11.477,0.761,20.813,9.654,3.793,15.984,10.978,-3.395,13.000,8.222,10.060,8.367,6.398
Mon Dec 02 20:51:15 2024,555,-20.641,-20.641,11.698,11.698,0.736,20.775,9.717,3.787,15.989,10.954,-3.383,13.063,8.205,10.050,8.329,6.299
Mon Dec 02 20:51:15 2024,560,-20.596,-20.596,11.918,11.918,0.710,20.738,9.779,3.780,15.994,10.930,-3.371,13.126,8.188,10.039,8.292,6.203
Mon Dec 02 20:51:15 2024,565,-20.411,-20.411,12.324,12.324,0.760,19.220,9.825,3.835,15.967,11.012,-3.346,12.995,8.177,10.122,8.233,6.311
Mon Dec 02 20:51:15 2024,570,-20.265,-20.265,12.663,12.663,0.796,19.189,9.866,3.877,15.945,11.072,-3.326,12.899,8.167,10.185,8.183,6.387
Mon Dec 02 20:51:15 2024,575,-20.018,-20.018,12.745,12.745,0.796,20.822,9.911,3.895,15.952,11.164,-3.264,13.000,8.273,10.287,8.117,6.444
Mon Dec 02 20:51:15 2024,580,-19.805,-19.805,12.749,12.749,0.788,20.830,9.946,3.903,15.963,11.243,-3.205,13.126,8.384,10.375,8.061,6.485
Mon Dec 02 20:51:15 2024,585,-19.600,-19.600,12.711,12.711,0.764,20.805,10.038,3.911,15.965,11.365,-3.195,13.154,8.481,10.458,8.000,6.537
Mon Dec 02 20:51:15 2024,590,-19.461,-19.461,12.645,12.645,0.734,19.245,10.158,3.918,15.959,11.494,-3.233,13.084,8.539,10.515,7.952,6.585
Mon Dec 02 20:51:15 2024,595,-19.331,-19.331,12.677,12.677,0.716,19.279,10.246,3.914,15.964,11.583,-3.282,12.995,8.567,10.587,7.900,6.602
Mon Dec 02 20:51:15 2024,600,-19.274,-19.274,12.854,12.854,0.728,19.272,10.240,3.896,15.984,11.564,-3.325,12.916,8.533,10.651,7.866,6.560
Mon Dec 02 20:51:15 2024,605,-19.228,-19.228,13.078,13.078,0.746,19.244,10.219,3.874,16.008,11.527,-3.373,12.827,8.486,10.722,7.829,6.503
Mon Dec 02 20:51:15 2024,610,-19.312,-19.312,13.288,13.288,0.776,19.220,10.316,3.882,15.982,11.537,-3.417,12.721,8.460,10.776,7.754,6.476
Mon Dec 02 20:51:15 2024,615,-19.423,-19.423,13.497,13.497,0.808,19.192,10.427,3.895,15.949,11.554,-3.460,12.614,8.439,10.828,7.672,6.454
Mon Dec 02 20:51:15 2024,620,-19.457,-19.457,13.670,13.670,0.804,19.194,10.473,3.901,15.935,11.567,-3.491,12.546,8.424,10.882,7.617,6.444
Mon Dec 02 20:51:15 2024,625,-19.413,-19.413,13.805,13.805,0.766,19.217,10.453,3.900,15.941,11.576,-3.507,12.519,8.418,10.938,7.587,6.446
Mon Dec 02 20:51:15 2024,630,-19.383,-19.383,13.906,13.906,0.737,19.222,10.439,3.899,15.945,11.583,-3.519,12.499,8.414,10.979,7.565,6.447
Mon Dec 02 20:51:15 2024,635,-19.296,-19.296,13.840,13.840,0.619,19.345,10.421,3.838,16.037,11.619,-3.593,12.497,8.400,10.979,7.609,6.386
Mon Dec 02 20:51:15 2024,640,-19.245,-19.245,13.800,13.800,0.541,19.425,10.408,3.798,16.096,11.642,-3.642,12.495,8.391,10.979,7.637,6.347
Mon Dec 02 20:51:15 2024,645,-19.163,-19.163,13.756,13.756,0.566,19.410,10.520,3.821,16.072,11.732,-3.621,12.508,8.428,10.988,7.638,6.324
Mon Dec 02 20:51:15 2024,650,-19.089,-19.089,13.718,13.718,0.619,19.367,10.654,3.861,16.028,11.831,-3.584,12.524,8.474,10.997,7.630,6.311
Mon Dec 02 20:51:15 2024,655,-19.006,19.006,13.766,13.766,0.618,19.372,10.711,3.885,16.019,11.905,-3.546,12.578,8.517,11.045,7.638,6.321
Mon Dec 02 20:51:15 2024,660,-18.938,18.938,13.873,13.873,0.572,19.418,10.690,3.890,16.039,11.940,-3.517,12.651,8.546,11.113,7.655,6.347
Mon Dec 02 20:51:15 2024,665,-18.913,18.913,14.086,14.086,0.520,19.472,10.682,3.895,16.057,11.968,-3.487,12.734,8.558,11.177,7.673,6.363
Mon Dec 02 20:51:15 2024,670,-19.020,19.020,14.655,14.655,0.453,19.547,10.731,3.901,16.077,11.960,-3.459,12.839,8.501,11.211,7.698,6.330
Mon Dec 02 20:51:15 2024,675,-19.155,19.155,15.286,15.286,0.378,19.986,10.786,3.907,16.087,11.951,-3.428,12.956,8.440,11.250,7.724,6.295
Mon Dec 02 20:51:15 2024,680,-19.188,19.188,17.263,17.263,0.300,19.696,11.011,3.952,16.049,12.098,-3.301,13.082,8.588,11.301,7.689,6.522
Mon Dec 02 20:51:15 2024,685,-19.188,19.188,19.328,19.328,0.232,19.765,11.248,3.999,15.998,12.264,-3.168,13.191,8.769,11.348,7.645,6.785
Mon Dec 02 20:51:15 2024,690,-19.211,19.211,21.533,21.533,0.140,19.736,11.335,3.954,16.039,12.327,-3.168,13.162,8.827,11.364,7.633,6.993
Mon Dec 02 20:51:15 2024,695,-19.263,19.263,23.998,23.998,0.017,19.526,11.236,3.791,16.203,12.261,-3.336,12.957,8.729,11.340,7.662,7.137
Mon Dec 02 20:51:15 2024,700,-19.457,19.457,26.515,26.515,-0.098,19.065,11.181,3.631,16.358,12.215,-3.457,12.686,8.677,11.338,7.637,7.323
Mon Dec 02 20:51:15 2024,705,-19.862,19.862,29.171,29.171,-0.186,18.304,11.189,3.465,16.504,12.191,-3.513,12.310,8.689,11.366,7.531,7.579
Mon Dec 02 20:51:15 2024,710,-20.331,20.331,31.595,31.595,-0.244,17.517,11.224,3.328,16.520,12.183,-3.526,11.936,8.729,11.408,7.397,7.831
Mon Dec 02 20:51:15 2024,715,-21.136,21.136,33.853,33.853,-0.250,16.797,11.276,3.341,16.348,12.328,-3.532,11.474,8.814,11.434,7.225,8.065
Mon Dec 02 20:51:15 2024,720,-22.904,22.904,36.088,36.088,-0.144,16.089,11.382,3.700,15.855,12.866,-3.534,10.707,9.021,11.423,6.931,8.310
Mon Dec 02 20:51:15 2024,725,-24.386,24.386,37.821,37.821,-0.161,15.530,11.381,3.791,15.592,13.012,-3.550,10.303,9.134,11.360,6.748,8.418
Mon Dec 02 20:51:15 2024,730,-25.493,25.493,38.251,38.251,-0.285,15.315,11.244,3.635,15.596,12.740,-3.578,10.388,9.145,11.214,6.734,8.306
Mon Dec 02 20:51:15 2024,735,-26.403,26.403,38.603,38.603,-0.384,15.144,11.138,3.513,15.585,12.529,-3.599,10.455,9.154,11.101,6.719,8.219
Mon Dec 02 20:51:15 2024,740,-27.464,27.464,38.176,38.176,-0.580,15.148,11.122,3.588,15.926,12.465,-3.316,11.208,9.215,11.426,6.630,8.122
Mon Dec 02 20:51:15 2024,745,-28.450,28.450,37.807,37.807,-0.751,15.139,11.105,3.648,16.131,12.401,-3.076,11.858,9.268,11.702,6.540,8.034
Mon Dec 02 20:51:15 2024,750,-29.096,29.096,37.759,37.759,-0.986,15.310,11.075,3.741,16.171,12.381,-2.898,12.304,9.364,11.938,6.472,8.107
Mon Dec 02 20:51:15 2024,755,-29.671,29.671,37.869,37.869,-1.266,15.552,11.038,3.857,16.120,12.376,-2.731,12.704,9.489,12.178,6.400,8.253
Mon Dec 02 20:51:15 2024,760,-30.149,30.149,37.973,37.973,-1.491,15.728,11.007,3.949,16.051,12.372,-2.598,13.025,9.590,12.371,6.336,8.371
Mon Dec 02 20:51:15 2024,765,-30.654,30.654,38.887,38.887,-1.576,15.655,10.678,3.930,16.049,12.028,-2.628,12.745,9.410,12.441,6.122,8.134
Mon Dec 02 20:51:15 2024,770,-31.041,31.041,39.450,39.450,-1.658,15.636,10.484,3.933,16.028,11.830,-2.625,12.630,9.321,12.510,5.986,8.015
Mon Dec 02 20:51:15 2024,775,-31.659,31.659,39.946,39.946,-1.763,15.606,10.387,3.957,16.000,11.767,-2.656,12.712,9.311,12.611,5.939,8.005
Mon Dec 02 20:51:15 2024,780,-32.179,32.179,40.332,40.332,-1.848,15.580,10.314,3.978,15.978,11.722,-2.682,12.786,9.307,12.694,5.905,8.002
Mon Dec 02 20:51:15 2024,785,-32.661,32.661,40.631,40.631,-1.848,15.583,10.341,4.069,15.873,11.703,-2.734,12.677,9.235,12.738,5.803,7.868
Mon Dec 02 20:51:15 2024,790,-33.016,33.016,40.828,40.828,-1.822,15.594,10.394,4.159,15.767,11.696,-2.782,12.540,9.160,12.760,5.704,7.728
Mon Dec 02 20:51:15 2024,795,-33.453,33.453,40.946,40.946,-1.810,15.572,10.449,4.228,15.671,11.691,-2.836,12.396,9.118,12.769,5.617,7.621
Mon Dec 02 20:51:15 2024,800,-34.115,34.115,40.678,40.678,-1.871,15.406,10.504,4.177,15.651,11.695,-2.904,12.262,9.234,12.715,5.612,7.705
Mon Dec 02 20:51:15 2024,805,-34.583,34.583,40.513,40.513,-1.909,15.299,10.546,4.152,15.615,11.698,-2.953,12.161,9.303,12.682,5.599,7.747
Mon Dec 02 20:51:15 2024,810,-35.166,35.166,40.345,40.345,-1.751,15.377,10.641,4.255,15.498,11.797,-2.857,12.102,9.356,12.743,5.476,7.719
Mon Dec 02 20:51:15 2024,815,-35.686,35.686,40.193,40.193,-1.607,15.448,10.726,4.350,15.391,11.888,-2.768,12.048,9.402,12.798,5.364,7.694
Mon Dec 02 20:51:15 2024,820,-36.050,36.050,39.901,39.901,-1.441,15.602,10.838,4.431,15.277,11.952,-2.715,11.997,9.463,12.871,5.253,7.709
Mon Dec 02 20:51:15 2024,825,-36.484,36.484,39.451,39.451,-1.210,15.839,10.999,4.536,15.120,12.029,-2.659,11.931,9.550,12.975,5.105,7.745
Mon Dec 02 20:51:15 2024,830,-36.799,36.799,39.188,39.188,-1.051,15.974,11.086,4.614,15.009,12.053,-2.627,11.888,9.577,13.024,5.017,7.719
Mon Dec 02 20:51:15 2024,835,-37.101,37.101,39.099,39.099,-0.918,16.020,11.092,4.693,14.914,11.994,-2.617,11.860,9.510,13.002,4.980,7.560
Mon Dec 02 20:51:15 2024,840,-37.334,37.334,38.998,38.998,-0.816,16.062,11.100,4.754,14.835,11.946,-2.609,11.834,9.468,12.990,4.958,7.462
Mon Dec 02 20:51:15 2024,845,-37.601,37.601,38.746,38.746,-0.701,16.146,11.126,4.824,14.727,11.883,-2.600,11.782,9.455,12.995,4.957,7.456
Mon Dec 02 20:51:15 2024,850,-37.845,37.845,38.485,38.485,-0.596,16.229,11.153,4.888,14.623,11.824,-2.592,11.729,9.452,13.004,4.962,7.473
Mon Dec 02 20:51:15 2024,855,-38.076,38.076,38.287,38.287,-0.495,16.332,11.236,4.942,14.583,11.831,-2.543,11.811,9.471,13.031,4.960,7.461
Mon Dec 02 20:51:15 2024,860,-38.308,38.308,38.110,38.110,-0.392,16.446,11.349,4.994,14.568,11.866,-2.474,11.954,9.500,13.067,4.954,7.438
Mon Dec 02 20:51:15 2024,865,-38.536,38.536,37.921,37.921,-0.296,16.549,11.450,5.022,14.557,11.895,-2.456,12.023,9.516,13.074,4.968,7.421
Mon Dec 02 20:51:15 2024,870,-38.773,38.773,37.678,37.678,-0.207,16.633,11.535,4.990,14.560,11.909,-2.569,11.889,9.498,12.997,5.036,7.421
Mon Dec 02 20:51:15 2024,875,-38.972,38.972,37.475,37.475,-0.134,16.702,11.606,4.964,14.561,11.920,-2.663,11.777,9.483,12.933,5.093,7.422
Mon Dec 02 20:51:15 2024,880,-39.056,39.056,37.315,37.315,0.056,16.962,11.827,5.004,14.546,11.974,-2.708,11.780,9.445,12.919,5.161,7.421
Mon Dec 02 20:51:15 2024,885,-39.122,39.122,37.186,37.186,0.200,17.172,12.014,5.037,14.532,12.019,-2.742,11.785,9.413,12.910,5.216,7.420
Mon Dec 02 20:51:15 2024,890,-39.180,39.180,36.954,36.954,0.358,17.356,12.162,5.038,14.493,11.964,-2.786,11.803,9.363,12.906,5.268,7.381
Mon Dec 02 20:51:15 2024,895,-39.224,39.224,36.696,36.696,0.497,17.492,12.266,5.018,14.440,11.858,-2.827,11.826,9.309,12.906,5.310,7.326
Mon Dec 02 20:51:15 2024,900,-39.260,39.260,36.417,36.417,0.616,17.629,12.343,5.008,14.424,11.782,-2.864,11.867,9.246,12.907,5.365,7.273
Mon Dec 02 20:51:15 2024,905,-39.290,39.290,36.014,36.014,0.730,17.813,12.385,5.011,14.485,11.749,-2.900,11.959,9.147,12.909,5.459,7.210
Mon Dec 02 20:51:15 2024,910,-39.315,39.315,35.700,35.700,0.817,17.947,12.418,5.013,14.531,11.724,-2.928,12.031,9.071,12.911,5.531,7.160
Mon Dec 02 20:51:15 2024,915,-39.156,39.156,35.169,35.169,0.913,18.102,12.560,4.985,14.555,11.766,-2.929,12.233,9.137,12.934,5.663,7.220
Mon Dec 02 20:51:15 2024,920,-38.996,38.996,34.670,34.670,0.997,18.230,12.700,4.957,14.572,11.811,-2.928,12.428,9.212,12.956,5.780,7.287
Mon Dec 02 20:51:15 2024,925,-38.820,38.820,34.083,34.083,1.045,18.324,12.832,4.860,14.694,11.873,-2.961,12.626,9.273,12.934,5.948,7.342
Mon Dec 02 20:51:15 2024,930,-38.654,38.654,33.482,33.482,1.068,18.395,12.951,4.727,14.867,11.942,-3.014,12.813,9.321,12.886,6.129,7.387
Mon Dec 02 20:51:15 2024,935,-38.240,38.240,33.000,33.000,1.147,18.385,13.062,4.603,14.998,12.001,-3.058,12.931,9.393,12.859,6.270,7.478
Mon Dec 02 20:51:15 2024,940,-37.589,37.589,32.782,32.782,1.283,18.269,13.135,4.519,15.042,12.033,-3.083,12.936,9.480,12.867,6.329,7.610
Mon Dec 02 20:51:15 2024,945,-36.900,36.900,32.416,32.416,1.441,18.140,13.222,4.428,15.094,12.068,-3.103,12.948,9.562,12.875,6.395,7.736
Mon Dec 02 20:51:15 2024,950,-36.394,36.394,31.381,31.381,1.621,18.039,13.324,4.357,15.175,12.101,-3.076,13.002,9.548,12.880,6.464,7.729
Mon Dec 02 20:51:15 2024,955,-35.994,35.994,30.232,30.232,1.800,17.934,13.427,4.292,15.259,12.133,-3.042,13.062,9.515,12.883,6.529,7.693
Mon Dec 02 20:51:15 2024,960,-35.695,35.695,29.519,29.519,1.871,17.917,13.636,4.219,15.357,12.186,-3.074,13.223,9.579,12.857,6.618,7.723
Mon Dec 02 20:51:15 2024,965,-35.336,35.336,28.758,28.758,1.918,17.930,13.974,4.115,15.495,12.268,-3.152,13.480,9.710,12.808,6.746,7.795
Mon Dec 02 20:51:15 2024,970,-35.022,35.022,28.222,28.222,1.963,17.931,14.284,4.027,15.627,12.364,-3.214,13.628,9.802,12.777,6.829,7.865
Mon Dec 02 20:51:15 2024,975,-34.716,34.716,27.970,27.970,2.012,17.919,14.588,3.953,15.766,12.493,-3.254,13.640,9.845,12.772,6.859,7.940
Mon Dec 02 20:51:15 2024,980,-34.454,34.454,27.755,27.755,2.056,17.901,14.857,3.889,15.884,12.607,-3.288,13.644,9.881,12.769,6.883,8.007
Mon Dec 02 20:51:15 2024,985,-34.280,34.280,27.411,27.411,2.085,17.876,15.010,3.858,15.952,12.648,-3.226,13.804,9.965,12.839,6.822,8.033
Mon Dec 02 20:51:15 2024,990,-34.091,34.091,27.052,27.052,2.124,17.844,15.180,3.827,16.014,12.688,-3.160,13.973,10.055,12.914,6.754,8.064
Mon Dec 02 20:51:15 2024,995,-33.768,33.768,26.824,26.824,2.230,17.752,15.480,3.788,16.054,12.748,-3.136,14.056,10.119,12.964,6.726,8.158
Mon Dec 02 20:51:16 2024,0,-33.429,33.429,26.682,26.682,2.356,17.638,15.804,3.750,16.080,12.809,-3.134,14.088,10.162,12.994,6.717,8.270
Mon Dec 02 20:51:16 2024,5,-33.015,33.015,26.499,26.499,2.469,17.530,16.136,3.712,16.110,12.859,-3.118,14.135,10.214,13.015,6.710,8.383
Mon Dec 02 20:51:16 2024,10,-32.550,32.550,26.284,26.284,2.513,17.487,16.370,3.683,16.144,12.864,-3.070,14.202,10.271,13.008,6.710,8.461
Mon Dec 02 20:51:16 2024,15,-32.115,32.115,26.058,26.058,2.552,17.445,16.610,3.649,16.184,12.866,-3.032,14.264,10.320,13.000,6.710,8.528
Mon Dec 02 20:51:16 2024,20,-31.988,31.988,25.882,25.882,2.536,17.454,16.801,3.570,16.266,12.824,-3.107,14.249,10.293,12.993,6.706,8.460
Mon Dec 02 20:51:16 2024,25,-31.934,31.934,25.739,25.739,2.512,17.468,16.960,3.493,16.347,12.779,-3.193,14.223,10.256,12.987,6.702,8.377
Mon Dec 02 20:51:16 2024,30,-31.824,31.824,25.583,25.583,2.544,17.416,17.222,3.446,16.401,12.752,-3.223,14.268,10.266,12.982,6.690,8.342
Mon Dec 02 20:51:16 2024,35,-31.681,31.681,25.431,25.431,2.619,17.317,17.541,3.428,16.429,12.741,-3.206,14.366,10.310,12.979,6.673,8.349
Mon Dec 02 20:51:16 2024,40,-31.586,31.586,25.361,25.361,2.650,17.260,17.814,3.404,16.463,12.747,-3.198,14.418,10.329,12.975,6.663,8.361
Mon Dec 02 20:51:16 2024,45,-31.527,31.527,25.453,25.453,2.590,22.724,18.216,3.346,16.549,12.810,-3.213,14.394,10.293,12.964,6.663,8.397
Mon Dec 02 20:51:16 2024,50,-31.484,31.484,25.520,25.520,2.546,22.719,18.512,3.304,16.609,12.855,-3.223,14.376,10.267,12.957,6.662,8.423
Mon Dec 02 20:51:16 2024,55,-31.478,31.478,25.642,25.642,2.584,22.798,18.840,3.310,16.560,12.824,-3.232,14.306,10.251,12.998,6.588,8.423
Mon Dec 02 20:51:16 2024,60,-31.483,31.483,25.751,25.751,2.630,22.879,19.113,3.322,16.491,12.786,-3.240,14.238,10.240,13.039,6.514,8.417
Mon Dec 02 20:51:16 2024,65,-31.544,31.544,25.869,25.869,2.678,22.957,19.429,3.339,16.412,12.785,-3.278,14.036,10.186,13.036,6.465,8.361
Mon Dec 02 20:51:16 2024,70,-31.656,31.656,25.988,25.988,2.726,23.031,19.768,3.360,16.327,12.814,-3.342,13.730,10.101,12.995,6.437,8.265
Mon Dec 02 20:51:16 2024,75,-31.838,31.838,26.192,26.192,2.784,23.126,20.105,3.387,16.236,12.834,-3.400,13.493,10.047,12.957,6.397,8.195
Mon Dec 02 20:51:16 2024,80,-32.100,32.100,26.515,26.515,2.850,23.242,20.382,3.421,16.156,12.837,-3.437,13.418,10.057,12.931,6.344,8.181
Mon Dec 02 20:51:16 2024,85,-32.443,32.443,26.920,26.920,2.935,23.392,20.730,3.463,16.053,12.840,-3.483,13.323,10.070,12.897,6.273,8.164
Mon Dec 02 20:51:16 2024,90,-32.481,32.481,27.496,27.496,3.001,23.443,20.985,3.584,15.852,12.789,-3.551,13.047,9.982,12.905,6.132,8.035
Mon Dec 02 20:51:16 2024,95,-32.526,32.526,27.948,27.948,3.053,23.484,21.185,3.679,15.691,12.749,-3.606,12.828,9.912,12.910,6.016,7.933
Mon Dec 02 20:51:16 2024,100,-32.705,32.705,28.715,28.715,3.114,23.562,21.472,3.753,15.526,12.686,-3.660,12.595,9.830,12.862,5.898,7.813
Mon Dec 02 20:51:16 2024,105,-33.009,33.009,29.690,29.690,3.174,23.664,21.803,3.792,15.383,12.610,-3.702,12.386,9.750,12.762,5.795,7.694
Mon Dec 02 20:51:16 2024,110,-33.280,33.280,30.414,30.414,3.249,23.764,22.064,3.839,15.253,12.562,-3.709,12.226,9.691,12.689,5.701,7.626
Mon Dec 02 20:51:16 2024,115,-33.722,33.722,31.277,31.277,3.458,23.971,22.437,3.972,15.012,12.538,-3.618,12.023,9.626,12.614,5.538,7.624
Mon Dec 02 20:51:16 2024,120,-34.113,34.113,32.026,32.026,3.637,24.154,22.763,4.085,14.804,12.514,-3.550,11.846,9.570,12.546,5.391,7.625
Mon Dec 02 20:51:16 2024,125,-34.252,34.252,32.900,32.900,3.800,24.377,23.158,4.168,14.634,12.464,-3.595,11.715,9.522,12.448,5.284,7.639
Mon Dec 02 20:51:16 2024,130,-34.376,34.376,33.850,33.850,3.970,24.624,23.588,4.251,14.461,12.404,-3.665,11.588,9.474,12.339,5.174,7.657
Mon Dec 02 20:51:16 2024,135,-34.235,34.235,35.130,35.130,4.116,24.851,23.874,4.384,14.314,12.401,-3.644,11.542,9.439,12.304,5.042,7.668
Mon Dec 02 20:51:16 2024,140,-33.949,33.949,36.511,36.511,4.235,25.048,24.050,4.537,14.192,12.430,-3.569,11.549,9.416,12.319,4.910,7.672
Mon Dec 02 20:51:16 2024,145,-33.413,33.413,38.114,38.114,4.296,25.169,24.063,4.662,14.101,12.407,-3.550,11.558,9.339,12.257,4.857,7.626
Mon Dec 02 20:51:16 2024,150,-32.577,32.577,39.364,39.364,4.191,25.049,23.702,4.658,14.132,12.280,-3.671,11.568,9.183,12.059,5.012,7.490
Mon Dec 02 20:51:16 2024,155,-31.827,31.827,40.548,40.548,4.091,24.935,23.359,4.654,14.162,12.158,-3.786,11.575,9.035,11.871,5.159,7.361
Mon Dec 02 20:51:16 2024,160,-31.199,31.199,41.023,41.023,4.060,25.045,23.124,4.702,14.256,12.027,-3.793,11.632,8.832,11.862,5.283,7.323
Mon Dec 02 20:51:16 2024,165,-30.658,30.658,41.361,41.361,4.040,25.198,22.915,4.756,14.348,11.900,-3.781,11.696,8.628,11.882,5.396,7.302
Mon Dec 02 20:51:16 2024,170,-30.228,30.228,41.100,41.100,3.997,25.255,22.692,4.847,14.449,11.885,-3.751,11.797,8.462,11.837,5.480,7.255
Mon Dec 02 20:51:16 2024,175,-29.975,29.975,40.189,40.189,3.934,25.195,22.480,4.970,14.529,11.995,-3.703,11.927,8.354,11.724,5.526,7.185
Mon Dec 02 20:51:16 2024,180,-29.770,29.770,39.215,39.215,3.876,25.059,22.202,5.100,14.551,12.074,-3.663,12.028,8.217,11.612,5.542,7.068
Mon Dec 02 20:51:16 2024,185,-29.626,29.626,38.498,38.498,3.847,24.825,21.884,5.197,14.511,12.067,-3.655,12.040,8.067,11.538,5.494,6.896
Mon Dec 02 20:51:16 2024,190,-29.518,29.518,37.762,37.762,3.815,24.592,21.552,5.299,14.463,12.059,-3.646,12.052,7.910,11.459,5.443,6.716
Mon Dec 02 20:51:16 2024,195,-29.660,29.660,37.457,37.457,3.624,24.251,21.219,5.199,14.432,12.065,-3.860,11.535,7.842,11.207,5.385,6.613
Mon Dec 02 20:51:16 2024,200,-29.817,29.817,37.277,37.277,3.451,23.969,20.956,5.094,14.384,12.071,-4.060,11.061,7.797,10.985,5.327,6.540
Mon Dec 02 20:51:16 2024,205,-29.704,29.704,37.439,37.439,3.221,23.652,20.535,4.989,14.372,12.046,-4.176,10.776,7.764,10.858,5.353,6.528
Mon Dec 02 20:51:16 2024,210,-29.379,29.379,37.872,37.872,2.957,23.323,20.006,4.892,14.404,11.997,-4.209,10.669,7.741,10.819,5.453,6.570
Mon Dec 02 20:51:16 2024,215,-29.162,29.162,38.134,38.134,2.744,23.037,19.590,4.813,14.416,11.988,-4.238,10.536,7.744,10.790,5.510,6.630
Mon Dec 02 20:51:16 2024,220,-29.130,29.130,37.912,37.912,2.610,22.779,19.360,4.764,14.373,12.108,-4.266,10.253,7.831,10.781,5.440,6.772
Mon Dec 02 20:51:16 2024,225,-29.096,29.096,37.704,37.704,2.466,20.894,19.114,4.711,14.324,12.231,-4.296,9.957,7.920,10.770,5.371,6.921
Mon Dec 02 20:51:16 2024,230,-29.130,29.130,37.234,37.234,2.419,17.542,18.794,4.741,14.298,12.320,-4.223,9.951,8.026,10.864,5.332,7.026
Mon Dec 02 20:51:16 2024,235,-29.169,29.169,36.815,36.815,2.389,17.587,18.515,4.776,14.277,12.394,-4.149,9.977,8.118,10.954,5.302,7.112
Mon Dec 02 20:51:16 2024,240,-29.135,29.135,36.562,36.562,2.354,17.637,18.081,4.780,14.273,12.382,-4.129,9.982,8.133,10.993,5.345,7.157
Mon Dec 02 20:51:16 2024,245,-28.995,28.995,36.543,36.543,2.310,17.689,17.419,4.741,14.289,12.246,-4.187,9.955,8.033,10.956,5.497,7.143
Mon Dec 02 20:51:16 2024,250,-28.858,28.858,36.530,36.530,2.271,17.723,16.900,4.706,14.298,12.144,-4.236,9.915,7.965,10.919,5.615,7.153
Mon Dec 02 20:51:16 2024,255,-28.578,28.578,36.509,36.509,2.208,17.755,16.398,4.650,14.288,12.080,-4.298,9.786,7.951,10.854,5.719,7.260
Mon Dec 02 20:51:16 2024,260,-28.359,28.359,36.493,36.493,2.158,17.760,16.002,4.604,14.277,12.029,-4.348,9.681,7.942,10.801,5.801,7.348
Mon Dec 02 20:51:16 2024,265,-28.178,28.178,36.426,36.426,2.157,17.694,15.750,4.622,14.194,12.035,-4.402,9.554,7.986,10.771,5.806,7.422
Mon Dec 02 20:51:16 2024,270,-28.020,28.020,36.346,36.346,2.174,17.595,15.559,4.662,14.090,12.059,-4.454,9.424,8.046,10.750,5.784,7.488
Mon Dec 02 20:51:16 2024,275,-27.847,27.847,36.234,36.234,2.178,17.514,15.359,4.662,14.029,12.090,-4.489,9.372,8.120,10.746,5.779,7.573
Mon Dec 02 20:51:16 2024,280,-27.664,27.664,36.088,36.088,2.164,17.474,15.158,4.611,14.031,12.127,-4.499,9.428,8.207,10.762,5.799,7.678
Mon Dec 02 20:51:16 2024,285,-27.530,27.530,35.980,35.980,2.154,17.439,15.007,4.574,14.029,12.154,-4.507,9.466,8.272,10.774,5.813,7.757
Mon Dec 02 20:51:16 2024,290,-27.505,27.505,36.025,36.025,2.095,17.535,14.744,4.583,14.070,12.011,-4.493,9.635,8.289,10.867,5.838,7.788
Mon Dec 02 20:51:16 2024,295,-27.478,27.478,36.053,36.053,2.047,17.608,14.525,4.586,14.101,11.900,-4.483,9.771,8.309,10.941,5.857,7.820
Mon Dec 02 20:51:16 2024,300,-27.348,-27.348,35.850,35.850,1.936,17.666,14.292,4.563,14.201,11.886,-4.452,9.862,8.343,11.016,5.925,7.854
Mon Dec 02 20:51:16 2024,305,-27.216,-27.216,35.629,35.629,1.826,17.707,14.083,4.536,14.301,11.893,-4.421,9.934,8.376,11.083,5.994,7.885
Mon Dec 02 20:51:16 2024,310,-27.100,-27.100,35.428,35.428,1.723,17.739,13.890,4.511,14.394,11.899,-4.392,10.001,8.407,11.144,6.055,7.914
Mon Dec 02 20:51:16 2024,315,-27.192,-27.192,34.572,34.572,1.413,18.042,13.690,4.389,14.676,11.866,-4.428,10.290,8.428,11.169,6.104,7.858
Mon Dec 02 20:51:16 2024,320,-27.199,-27.199,34.042,34.042,1.231,18.181,13.534,4.322,14.846,11.862,-4.401,10.486,8.460,11.242,6.107,7.854
Mon Dec 02 20:51:16 2024,325,-27.100,-27.100,33.694,33.694,1.190,18.120,13.435,4.319,14.917,11.921,-4.221,10.671,8.530,11.467,5.952,7.941
Mon Dec 02 20:51:16 2024,330,-27.002,-27.002,33.384,33.384,1.164,18.043,13.347,4.321,14.974,11.982,-4.036,10.847,8.601,11.694,5.790,8.032
Mon Dec 02 20:51:16 2024,335,-26.927,-26.927,32.844,32.844,1.091,17.891,13.162,4.282,15.013,11.984,-3.965,10.954,8.636,11.715,5.767,8.058
Mon Dec 02 20:51:16 2024,340,-26.849,-26.849,32.171,32.171,0.997,17.690,12.926,4.227,15.053,11.973,-3.911,11.059,8.667,11.689,5.775,8.073
Mon Dec 02 20:51:16 2024,345,-26.846,-26.846,31.633,31.633,0.923,17.520,12.654,4.198,15.123,11.899,-3.915,11.102,8.601,11.706,5.751,7.985
Mon Dec 02 20:51:16 2024,350,-26.878,-26.878,31.137,31.137,0.854,17.363,12.352,4.180,15.209,11.790,-3.948,11.114,8.484,11.748,5.709,7.841
Mon Dec 02 20:51:16 2024,355,-26.903,-26.903,30.607,30.607,0.782,17.175,12.069,4.156,15.282,11.700,-3.980,11.125,8.388,11.810,5.658,7.718
Mon Dec 02 20:51:16 2024,360,-26.871,-26.871,29.997,29.997,0.703,16.906,11.914,4.095,15.288,11.714,-3.974,11.156,8.424,11.913,5.604,7.735
Mon Dec 02 20:51:16 2024,365,-26.829,-26.829,29.336,29.336,0.620,16.603,11.765,4.027,15.283,11.741,-3.963,11.190,8.481,12.027,5.544,7.772
Mon Dec 02 20:51:16 2024,370,-26.775,-26.775,28.570,28.570,0.451,16.466,11.521,4.011,15.394,11.650,-3.951,11.368,8.429,12.078,5.585,7.669
Mon Dec 02 20:51:16 2024,375,-26.727,-26.727,27.909,27.909,0.291,16.383,11.294,4.010,15.505,11.545,-3.941,11.549,8.359,12.107,5.642,7.549
Mon Dec 02 20:51:16 2024,380,-26.694,-26.694,27.052,27.052,0.136,16.210,11.069,3.978,15.594,11.480,-3.949,11.638,8.307,12.095,5.730,7.455
Mon Dec 02 20:51:16 2024,385,-26.695,-26.695,26.206,26.206,0.059,15.970,10.925,3.910,15.626,11.496,-3.980,11.555,8.298,12.027,5.837,7.435
Mon Dec 02 20:51:16 2024,390,-26.696,-26.696,25.378,25.378,-0.077,15.731,10.781,3.844,15.657,11.511,-4.009,11.478,8.288,11.961,5.942,7.412
Mon Dec 02 20:51:16 2024,395,-26.784,-26.784,24.588,24.588,-0.254,15.512,10.608,3.821,15.747,11.508,-4.038,11.450,8.261,11.906,6.065,7.412
Mon Dec 02 20:51:16 2024,400,-26.858,-26.858,23.917,23.917,-0.415,15.319,10.459,3.801,15.820,11.506,-4.062,11.425,8.238,11.859,6.169,7.412
Mon Dec 02 20:51:16 2024,405,-26.904,-26.904,23.194,23.194,-0.532,15.241,10.301,3.768,15.911,11.472,-4.079,11.492,8.222,11.829,6.270,7.387
Mon Dec 02 20:51:16 2024,410,-26.934,-26.934,21.863,21.863,-0.654,15.306,10.017,3.687,16.095,11.360,-4.094,11.760,8.210,11.804,6.440,7.303
Mon Dec 02 20:51:16 2024,415,-26.934,-26.934,20.856,20.856,-0.738,15.295,9.819,3.659,16.180,11.312,-4.099,11.897,8.190,11.773,6.556,7.200
Mon Dec 02 20:51:16 2024,420,-26.889,-26.889,19.716,19.716,-0.797,15.256,9.624,3.668,16.214,11.298,-4.091,12.000,8.157,11.730,6.669,7.020
Mon Dec 02 20:51:16 2024,425,-26.847,-26.847,18.681,18.681,-0.852,15.221,9.445,3.676,16.240,11.286,-4.084,12.094,8.127,11.691,6.771,6.857
Mon Dec 02 20:51:16 2024,430,-26.765,-26.765,17.645,17.645,-0.954,15.093,9.302,3.664,16.277,11.284,-4.074,12.217,8.121,11.747,6.776,6.780
Mon Dec 02 20:51:16 2024,435,-26.690,-26.690,16.699,16.699,-1.047,14.978,9.168,3.654,16.307,11.283,-4.065,12.329,8.115,11.796,6.782,6.707
Mon Dec 02 20:51:16 2024,440,-26.594,-26.594,15.607,15.607,-1.053,14.921,9.058,3.683,16.285,11.305,-4.022,12.409,8.137,11.869,6.778,6.666
Mon Dec 02 20:51:16 2024,445,-26.518,-26.518,14.790,14.790,-1.020,14.907,8.991,3.720,16.250,11.330,-3.977,12.451,8.163,11.931,6.770,6.649
Mon Dec 02 20:51:16 2024,450,-26.433,-26.433,13.881,13.881,-0.984,14.890,8.917,3.761,16.210,11.358,-3.927,12.497,8.193,12.000,6.759,6.631
Mon Dec 02 20:51:16 2024,455,-26.269,-26.269,12.971,12.971,-0.980,14.787,8.766,3.749,16.227,11.361,-3.944,12.475,8.146,12.018,6.748,6.515
Mon Dec 02 20:51:16 2024,460,-26.145,-26.145,12.206,12.206,-0.971,14.717,8.654,3.749,16.230,11.369,-3.945,12.470,8.121,12.042,6.739,6.435
Mon Dec 02 20:51:16 2024,465,-25.897,-25.897,11.177,11.177,-0.892,14.892,8.704,3.817,16.172,11.475,-3.872,12.691,8.205,12.141,6.720,6.387
Mon Dec 02 20:51:16 2024,470,-25.695,-25.695,10.335,10.335,-0.829,15.031,8.742,3.873,16.123,11.561,-3.814,12.868,8.271,12.222,6.703,6.346
Mon Dec 02 20:51:16 2024,475,-25.514,-25.514,9.576,9.576,-0.772,15.156,8.776,3.922,16.077,11.639,-3.761,13.029,8.331,12.296,6.685,6.310
Mon Dec 02 20:51:16 2024,480,-25.262,-25.262,9.043,9.043,-0.607,15.478,8.573,4.078,15.916,11.607,-3.564,13.328,8.275,12.376,6.707,6.299
Mon Dec 02 20:51:16 2024,485,-25.093,-25.093,8.583,8.583,-0.515,15.661,8.488,4.164,15.816,11.614,-3.458,13.514,8.266,12.434,6.708,6.284
Mon Dec 02 20:51:16 2024,490,-24.771,-24.771,7.884,7.884,-0.176,15.976,8.646,4.182,15.813,11.831,-3.381,13.718,8.464,12.530,6.654,6.352
Mon Dec 02 20:51:16 2024,495,-24.560,-24.560,7.416,7.416,0.036,16.171,8.728,4.204,15.794,11.960,-3.322,13.863,8.579,12.594,6.621,6.390
Mon Dec 02 20:51:16 2024,500,-24.237,-24.237,6.741,6.741,0.606,16.631,8.745,4.219,15.781,11.976,-3.272,13.940,8.530,12.582,6.647,6.248
Mon Dec 02 20:51:16 2024,505,-23.961,-23.961,6.165,6.165,1.106,16.936,8.752,4.231,15.763,11.978,-3.232,13.995,8.474,12.564,6.674,6.114
Mon Dec 02 20:51:16 2024,510,-23.706,-23.706,5.666,5.666,1.827,17.191,9.053,4.238,15.731,12.071,-3.153,14.099,8.558,12.513,6.710,6.113
Mon Dec 02 20:51:16 2024,515,-23.500,-23.500,5.278,5.278,2.553,17.086,9.460,4.240,15.674,12.193,-3.067,14.211,8.700,12.452,6.745,6.178
Mon Dec 02 20:51:16 2024,520,-23.321,-23.321,4.941,4.941,3.182,16.745,9.816,4.242,15.609,12.299,-2.992,14.308,8.823,12.400,6.775,6.235
Mon Dec 02 20:51:16 2024,525,-23.136,-23.136,4.730,4.730,4.121,15.875,10.444,4.389,15.482,12.315,-2.877,14.535,8.685,12.412,6.774,6.240
Mon Dec 02 20:51:16 2024,530,-23.000,-23.000,4.552,4.552,4.765,15.168,10.870,4.472,15.397,12.343,-2.798,14.681,8.627,12.409,6.779,6.252
Mon Dec 02 20:51:16 2024,535,-22.886,-22.886,4.628,4.628,5.617,25.868,11.910,4.457,15.328,12.149,-2.591,14.975,8.455,12.324,6.757,6.055
Mon Dec 02 20:51:16 2024,540,-22.798,-22.798,4.698,4.698,6.311,26.757,12.782,4.439,15.263,11.988,-2.421,15.213,8.312,12.252,6.737,5.892
Mon Dec 02 20:51:16 2024,545,-22.842,-22.842,4.883,4.883,7.204,28.155,15.081,4.620,15.041,11.806,-2.229,15.404,7.927,12.065,6.708,5.602
Mon Dec 02 20:51:16 2024,550,-22.926,-22.926,5.050,5.050,7.900,29.368,17.262,4.818,14.835,11.679,-2.092,15.509,7.577,11.891,6.678,5.358
Mon Dec 02 20:51:16 2024,555,-23.037,-23.037,5.222,5.222,8.605,30.995,20.415,5.167,14.525,11.574,-1.914,15.590,7.215,11.675,6.641,5.092
Mon Dec 02 20:51:16 2024,560,-23.152,-23.152,5.330,5.330,8.982,32.906,24.573,5.733,14.073,11.570,-1.713,15.575,6.975,11.466,6.618,4.891
Mon Dec 02 20:51:16 2024,565,-23.248,-23.248,5.416,5.416,9.306,34.642,28.207,6.200,13.672,11.564,-1.550,15.548,6.784,11.290,6.594,4.728
Mon Dec 02 20:51:16 2024,570,-23.164,-23.164,5.392,5.392,9.347,38.200,33.479,6.633,13.308,11.287,-1.393,15.619,6.602,11.165,6.607,4.439
Mon Dec 02 20:51:16 2024,575,-23.088,-23.088,5.367,5.367,9.357,41.201,37.866,6.956,13.019,11.059,-1.275,15.678,6.466,11.072,6.618,4.210
Mon Dec 02 20:51:16 2024,580,-22.863,-22.863,5.127,5.127,9.425,44.787,42.812,7.304,12.688,11.061,-1.024,15.743,6.584,11.023,6.698,4.109
Mon Dec 02 20:51:16 2024,585,-22.586,-22.586,4.796,4.796,9.510,48.031,47.322,7.599,12.399,11.213,-0.736,15.786,6.843,11.012,6.808,4.111
Mon Dec 02 20:51:16 2024,590,-22.328,-22.328,4.489,4.489,9.588,51.072,51.606,7.872,12.128,11.354,-0.467,15.811,7.086,11.000,6.908,4.113
Mon Dec 02 20:51:16 2024,595,-21.634,-21.634,4.002,4.002,9.804,54.504,55.696,7.860,12.139,11.438,-0.201,16.167,7.201,10.879,7.199,3.902
Mon Dec 02 20:51:16 2024,600,-21.108,-21.108,3.616,3.616,9.990,57.456,59.475,7.895,12.099,11.519,0.022,16.408,7.321,10.792,7.416,3.756
Mon Dec 02 20:51:16 2024,605,-20.646,-20.646,3.258,3.258,10.667,59.107,62.655,7.828,12.172,11.863,0.160,16.215,7.435,10.656,7.432,3.697
Mon Dec 02 20:51:16 2024,610,-20.212,-20.212,2.919,2.919,11.376,60.614,65.767,7.756,12.243,12.210,0.271,15.996,7.544,10.523,7.428,3.647
Mon Dec 02 20:51:16 2024,615,-19.686,-19.686,2.614,2.614,11.924,61.396,68.439,7.732,12.254,12.651,0.348,15.670,7.730,10.368,7.392,3.706
Mon Dec 02 20:51:16 2024,620,-19.025,-19.025,2.387,2.387,12.121,60.815,70.061,7.796,12.148,13.234,0.356,15.175,8.043,10.184,7.300,3.955
Mon Dec 02 20:51:16 2024,625,-18.423,-18.423,2.074,2.074,12.451,60.430,71.664,7.905,11.984,13.806,0.414,14.760,8.345,10.042,7.210,4.166
Mon Dec 02 20:51:16 2024,630,-17.999,17.999,1.626,1.626,12.885,59.971,72.459,8.139,11.722,14.329,0.549,14.525,8.622,9.999,7.158,4.334
Mon Dec 02 20:51:16 2024,635,-17.484,17.484,1.137,1.137,13.460,59.438,73.492,8.424,11.400,15.004,0.706,14.223,8.976,9.941,7.089,4.549
Mon Dec 02 20:51:16 2024,640,-17.172,17.172,1.138,1.138,14.026,59.234,74.297,8.604,11.214,15.564,0.764,14.020,9.241,9.896,7.044,4.710
Mon Dec 02 20:51:16 2024,645,-16.849,16.849,-1.229,1.229,14.684,59.065,75.187,8.793,11.022,16.199,0.813,13.801,9.536,9.847,6.994,4.888
Mon Dec 02 20:51:16 2024,650,-16.687,16.687,-1.403,1.403,15.085,59.132,76.146,8.886,10.958,16.607,0.830,13.754,9.661,9.755,7.037,4.934
Mon Dec 02 20:51:16 2024,655,-16.580,16.580,-1.619,1.619,15.404,59.296,77.188,8.944,10.938,16.944,0.832,13.775,9.723,9.642,7.122,4.928
Mon Dec 02 20:51:16 2024,660,-16.465,16.465,-1.798,1.798,15.634,59.483,78.239,9.015,10.902,17.291,0.867,13.828,9.823,9.562,7.200,4.953
Mon Dec 02 20:51:16 2024,665,-16.353,16.353,1.826,1.826,15.545,59.687,79.056,9.102,10.841,17.574,0.984,13.959,10.006,9.598,7.246,5.061
Mon Dec 02 20:51:16 2024,670,-16.260,16.260,1.844,1.844,15.459,59.858,79.725,9.174,10.786,17.808,1.084,14.068,10.162,9.632,7.281,5.153
Mon Dec 02 20:51:16 2024,675,-16.124,16.124,-1.873,1.873,15.262,60.410,80.775,9.201,10.783,18.099,1.116,14.144,10.271,9.577,7.404,5.185
Mon Dec 02 20:51:16 2024,680,-16.010,16.010,-1.898,1.898,15.089,60.906,81.651,9.214,10.783,18.338,1.130,14.198,10.349,9.520,7.514,5.201
Mon Dec 02 20:51:16 2024,685,-15.840,15.840,-1.909,1.909,14.830,61.755,82.941,9.218,10.781,18.609,1.160,14.353,10.456,9.473,7.611,5.229
Mon Dec 02 20:51:16 2024,690,-15.693,15.693,-1.910,1.910,14.602,62.546,84.054,9.214,10.773,18.813,1.188,14.516,10.546,9.448,7.670,5.255
Mon Dec 02 20:51:16 2024,695,-15.517,15.517,-1.910,1.910,14.355,63.488,85.373,9.230,10.728,19.034,1.279,14.674,10.660,9.442,7.726,5.301
Mon Dec 02 20:51:16 2024,700,-15.317,15.317,-1.910,1.910,14.159,64.531,86.886,9.323,10.605,19.207,1.563,14.732,10.815,9.512,7.742,5.402
Mon Dec 02 20:51:16 2024,705,-15.134,15.134,-1.930,1.930,13.988,65.522,88.240,9.403,10.488,19.377,1.812,14.781,10.942,9.564,7.762,5.480
Mon Dec 02 20:51:16 2024,710,-14.984,14.984,-2.026,2.026,13.874,66.468,89.335,9.446,10.392,19.568,1.966,14.872,10.982,9.554,7.814,5.482
Mon Dec 02 20:51:16 2024,715,-14.806,14.806,-2.173,2.173,13.754,67.640,90.582,9.486,10.268,19.815,2.123,14.995,11.003,9.523,7.886,5.461
Mon Dec 02 20:51:16 2024,720,-14.581,14.581,-2.194,2.194,13.546,68.548,91.616,9.541,29.873,20.047,2.377,15.135,11.117,9.531,7.936,5.468
Mon Dec 02 20:51:16 2024,725,-14.367,14.367,-2.133,2.133,13.317,69.138,92.353,9.594,29.998,20.228,2.645,15.244,11.267,9.561,7.962,5.490
Mon Dec 02 20:51:16 2024,730,-14.178,14.178,-2.108,2.108,13.114,69.800,93.152,9.684,30.178,20.441,2.896,15.319,11.415,9.626,7.995,5.543
Mon Dec 02 20:51:16 2024,735,-14.106,14.106,-2.189,2.189,13.033,70.525,93.987,9.862,30.472,20.694,3.046,15.340,11.518,9.783,8.035,5.674
Mon Dec 02 20:51:16 2024,740,-14.039,14.039,-2.266,2.266,12.958,71.218,94.758,10.028,30.756,20.937,3.190,15.352,11.618,9.928,8.066,5.798
Mon Dec 02 20:51:16 2024,745,-13.980,13.980,-2.452,2.452,12.995,72.307,95.791,10.241,31.143,21.204,3.267,15.348,11.748,10.012,8.176,5.956
Mon Dec 02 20:51:16 2024,750,-13.939,13.939,0.066,2.620,13.057,73.236,96.619,10.416,31.473,21.421,3.314,15.343,11.856,10.066,8.271,6.086
Mon Dec 02 20:51:16 2024,755,-13.881,13.881,2.800,2.800,13.149,74.323,97.371,10.598,31.858,21.668,3.450,15.433,12.064,10.142,8.349,6.235
Mon Dec 02 20:51:16 2024,760,-13.825,13.825,2.946,2.946,13.249,75.268,97.883,10.741,32.196,21.882,3.619,15.550,12.300,10.218,8.395,6.360
Mon Dec 02 20:51:16 2024,765,-13.770,13.770,3.100,3.100,13.373,76.272,98.406,10.890,32.564,22.112,3.796,15.632,12.554,10.296,8.439,6.494
Mon Dec 02 20:51:16 2024,770,-13.852,13.852,3.283,3.283,13.362,77.559,98.529,11.084,33.138,22.412,3.890,15.691,12.701,10.375,8.595,6.736
Mon Dec 02 20:51:16 2024,775,-13.920,13.920,3.433,3.433,13.401,78.623,98.634,11.241,33.624,22.664,3.972,15.723,12.830,10.440,8.705,6.934
Mon Dec 02 20:51:16 2024,780,-13.850,13.850,3.577,3.577,13.614,79.945,98.701,11.484,34.238,23.092,4.123,15.709,13.115,10.370,8.836,7.063
Mon Dec 02 20:51:16 2024,785,-13.780,13.780,3.682,3.682,13.832,80.963,98.730,11.677,34.720,23.442,4.246,15.665,13.354,10.297,8.936,7.148
Mon Dec 02 20:51:16 2024,790,-13.736,13.736,3.986,3.986,14.232,82.278,98.970,11.900,35.310,23.962,4.338,15.636,13.744,10.218,9.112,7.377
Mon Dec 02 20:51:16 2024,795,-13.736,13.736,4.443,4.443,14.738,83.584,99.393,12.096,35.863,24.545,4.368,15.632,14.208,10.151,9.321,7.713
Mon Dec 02 20:51:16 2024,800,-13.724,13.724,4.844,4.844,15.378,84.918,99.803,12.320,36.470,25.202,4.420,15.558,14.698,10.088,9.518,8.055
Mon Dec 02 20:51:16 2024,805,-13.669,13.669,5.044,5.044,16.346,86.327,100.265,12.644,37.241,26.086,4.553,21.627,15.248,10.042,9.701,8.413
Mon Dec 02 20:51:16 2024,810,-13.626,13.626,5.192,5.192,17.147,87.432,100.594,12.898,37.852,26.796,4.658,24.914,15.684,10.006,9.826,8.691
Mon Dec 02 20:51:16 2024,815,-13.565,13.565,5.473,5.473,18.334,88.926,100.583,13.143,38.653,27.783,4.794,25.216,16.070,9.878,10.012,8.870
Mon Dec 02 20:51:16 2024,820,-13.514,13.514,5.726,5.726,19.411,90.191,100.460,13.329,39.336,28.646,4.909,25.481,16.357,9.754,10.170,8.980
Mon Dec 02 20:51:16 2024,825,-13.430,13.430,6.047,6.047,20.340,91.494,100.120,13.588,40.356,29.970,4.986,25.754,16.783,9.623,10.342,9.225
Mon Dec 02 20:51:16 2024,830,-13.326,13.326,6.388,6.388,20.989,92.628,99.613,13.878,41.586,31.613,5.006,26.002,17.292,9.505,10.488,9.570
Mon Dec 02 20:51:16 2024,835,-13.260,13.260,6.735,6.735,21.575,93.598,99.154,14.122,42.715,33.069,5.010,26.224,17.733,9.359,10.641,9.862
Mon Dec 02 20:51:16 2024,840,-13.348,13.348,7.223,7.223,21.848,94.122,98.797,14.259,43.650,33.900,4.948,26.331,17.983,9.042,10.950,10.007
Mon Dec 02 20:51:16 2024,845,-13.430,13.430,7.620,7.620,22.054,94.506,98.525,14.354,44.384,34.526,4.893,26.412,18.168,8.778,11.199,10.110
Mon Dec 02 20:51:16 2024,850,-13.692,13.692,8.046,8.046,23.120,95.486,98.338,14.331,45.493,35.839,4.675,26.882,18.604,8.564,11.357,10.281
Mon Dec 02 20:51:16 2024,855,-13.950,13.950,8.379,8.379,24.241,96.414,98.211,14.268,46.462,37.069,4.454,27.433,19.009,8.416,11.424,10.431
Mon Dec 02 20:51:16 2024,860,-14.125,14.125,8.647,8.647,24.971,97.078,98.110,14.144,47.252,38.154,4.282,28.077,19.518,8.274,22.829,10.664
Mon Dec 02 20:51:16 2024,865,-14.237,14.237,8.888,8.888,25.356,97.560,98.032,13.930,47.970,39.255,4.130,28.901,20.236,8.116,28.492,11.029
Mon Dec 02 20:51:16 2024,870,-14.335,14.335,9.092,9.092,25.684,97.965,97.967,13.735,48.583,40.203,3.988,29.630,20.852,7.977,28.472,11.342
Mon Dec 02 20:51:16 2024,875,-14.447,14.447,9.049,9.049,25.837,98.302,97.531,13.723,49.297,40.258,3.937,30.210,20.901,7.959,28.603,11.416
Mon Dec 02 20:51:16 2024,880,-14.548,14.548,9.034,9.034,25.999,98.599,97.192,13.686,49.909,40.390,3.877,30.734,20.997,7.929,28.713,11.503
Mon Dec 02 20:51:16 2024,885,-14.545,14.545,8.990,8.990,25.791,98.571,96.947,13.761,50.170,40.372,3.917,30.908,21.015,7.907,28.725,11.499
Mon Dec 02 20:51:16 2024,890,-14.505,14.505,8.942,8.942,25.483,98.427,96.770,13.867,50.270,40.302,3.990,30.932,21.002,7.893,28.697,11.460
Mon Dec 02 20:51:16 2024,895,-14.468,14.468,8.789,8.789,25.314,98.371,96.534,13.930,50.336,40.182,4.068,30.990,20.984,7.909,28.685,11.458
Mon Dec 02 20:51:16 2024,900,-14.437,14.437,8.454,8.454,25.371,98.469,96.191,13.919,50.342,39.971,4.159,31.106,20.954,7.979,28.705,11.518
Mon Dec 02 20:51:16 2024,905,-14.414,14.414,8.212,8.212,25.412,98.539,95.944,13.911,50.347,39.818,4.223,31.190,20.934,8.031,28.720,11.561
Mon Dec 02 20:51:16 2024,910,-14.314,14.314,8.087,8.087,24.849,98.157,95.602,13.807,50.268,39.469,4.133,31.105,20.833,8.012,28.685,11.554
Mon Dec 02 20:51:16 2024,915,-14.239,14.239,7.996,7.996,24.440,97.867,95.344,13.728,50.208,39.208,4.064,31.038,20.758,7.997,28.659,11.548
Mon Dec 02 20:51:16 2024,920,-14.178,14.178,7.918,7.918,24.318,97.799,95.212,13.630,49.991,38.838,4.044,31.026,20.650,7.947,28.583,11.502
Mon Dec 02 20:51:16 2024,925,-14.108,14.108,7.824,7.824,24.340,97.854,95.127,13.491,49.607,38.289,4.053,31.047,20.489,7.860,28.452,11.416
Mon Dec 02 20:51:16 2024,930,-14.077,14.077,7.718,7.718,24.198,97.756,95.043,13.421,49.257,37.622,4.084,31.019,20.278,7.848,28.418,11.332
Mon Dec 02 20:51:16 2024,935,-14.087,14.087,7.591,7.591,23.900,97.503,94.970,13.418,48.890,36.743,4.155,30.944,19.986,7.916,28.481,11.235
Mon Dec 02 20:51:16 2024,940,-14.097,14.097,7.470,7.470,23.623,97.262,94.898,13.412,48.540,35.914,4.221,30.873,19.708,7.979,28.538,11.143
Mon Dec 02 20:51:16 2024,945,-13.901,13.901,7.484,7.484,23.184,96.843,95.113,13.236,47.895,35.017,4.231,30.463,19.345,7.935,28.406,11.013
Mon Dec 02 20:51:16 2024,950,-13.726,13.726,7.485,7.485,22.777,96.448,95.296,13.081,47.294,34.159,4.246,30.096,19.001,7.902,28.300,10.890
Mon Dec 02 20:51:16 2024,955,-13.653,13.653,7.448,7.448,22.478,96.138,95.352,12.874,46.683,33.204,4.321,29.914,18.622,7.960,28.280,10.722
Mon Dec 02 20:51:16 2024,960,-13.608,13.608,7.393,7.393,22.189,95.829,95.369,12.631,46.016,32.145,4.423,29.780,18.201,8.053,22.760,10.524
Mon Dec 02 20:51:16 2024,965,-13.573,13.573,7.352,7.352,21.971,95.592,95.381,12.446,45.509,31.352,4.500,29.680,17.882,8.123,11.687,10.372
Mon Dec 02 20:51:16 2024,970,-13.458,13.458,7.007,7.007,21.150,94.678,95.366,12.166,44.164,29.572,4.426,29.361,17.350,8.035,11.808,10.157
Mon Dec 02 20:51:16 2024,975,-13.388,13.388,6.805,6.805,20.665,94.122,95.349,11.975,43.323,28.453,4.398,29.164,16.995,7.997,11.871,10.010
Mon Dec 02 20:51:16 2024,980,-13.458,13.458,6.333,6.333,20.388,93.767,95.655,11.793,42.443,27.285,4.350,28.906,16.687,7.998,11.891,9.860
Mon Dec 02 20:51:16 2024,985,-13.516,13.516,5.966,5.966,20.182,93.496,95.892,11.647,41.770,26.414,4.312,28.707,16.451,7.999,11.905,9.743
Mon Dec 02 20:51:16 2024,990,-13.563,13.563,5.613,5.613,19.690,92.902,96.146,11.495,41.172,25.537,4.279,28.551,16.204,7.984,11.944,9.584
Mon Dec 02 20:51:16 2024,995,-13.597,13.597,5.279,5.279,18.769,91.826,96.424,11.333,40.684,24.653,4.254,28.457,15.943,7.947,12.018,9.363
Mon Dec 02 20:51:17 2024,0,-13.617,13.617,4.917,4.917,18.025,90.872,96.580,11.178,40.194,23.844,4.227,28.356,15.710,7.934,12.048,9.181
Mon Dec 02 20:51:17 2024,5,-13.587,13.587,4.385,4.385,17.171,89.647,96.470,11.008,39.646,22.972,4.199,28.258,15.492,7.986,12.003,9.028
Mon Dec 02 20:51:17 2024,10,-13.570,13.570,4.010,4.010,16.583,88.770,96.393,10.883,39.251,22.351,4.178,28.186,15.329,8.018,11.975,8.911
Mon Dec 02 20:51:17 2024,15,-13.648,13.648,3.576,3.576,16.251,87.974,96.760,10.686,38.731,21.516,4.038,27.897,14.877,8.105,11.888,8.826
Mon Dec 02 20:51:17 2024,20,-13.712,13.712,3.268,3.268,16.100,87.423,97.043,10.544,38.359,20.927,3.930,27.678,14.540,8.170,11.823,8.769
Mon Dec 02 20:51:17 2024,25,-13.717,13.717,3.024,3.024,15.521,86.388,96.669,10.345,38.031,20.226,3.893,27.510,14.182,8.262,11.730,8.633
Mon Dec 02 20:51:17 2024,30,-13.702,13.702,2.853,2.853,14.920,85.391,96.103,10.169,37.787,19.638,3.889,27.395,13.890,8.344,11.647,8.496
Mon Dec 02 20:51:17 2024,35,-13.689,13.689,2.679,2.679,14.339,84.390,95.500,9.991,37.543,19.057,3.884,27.280,13.597,8.427,11.563,8.357
Mon Dec 02 20:51:17 2024,40,-14.066,14.066,2.443,2.443,12.935,81.851,93.822,10.197,37.260,18.402,3.889,27.056,13.137,8.358,11.640,7.738
Mon Dec 02 20:51:17 2024,45,-14.283,14.283,2.270,2.270,12.095,80.205,92.603,10.277,37.052,17.922,3.889,26.905,12.814,8.333,11.667,7.352
Mon Dec 02 20:51:17 2024,50,-14.661,14.661,2.114,2.114,11.023,77.246,88.688,10.447,36.749,17.084,3.969,26.614,12.071,8.438,11.561,6.902
Mon Dec 02 20:51:17 2024,55,-14.975,14.975,1.985,1.985,10.306,74.856,85.235,10.583,36.506,16.411,4.032,26.383,11.465,8.526,11.473,6.529
Mon Dec 02 20:51:17 2024,60,-15.388,15.388,1.857,1.857,9.561,73.040,82.253,10.680,36.148,15.881,4.140,26.269,11.077,8.670,11.330,6.263
Mon Dec 02 20:51:17 2024,65,-15.826,15.826,1.733,1.733,8.834,71.465,79.494,10.758,35.763,15.415,4.260,26.201,10.772,8.829,11.171,6.037
Mon Dec 02 20:51:17 2024,70,-16.130,16.130,1.669,1.669,8.328,70.343,77.021,10.815,35.419,14.994,4.377,26.121,10.456,8.942,11.058,5.780
Mon Dec 02 20:51:17 2024,75,-16.050,16.050,1.800,1.800,8.310,70.383,74.733,10.835,35.091,14.568,4.524,25.964,9.991,8.924,11.072,5.332
Mon Dec 02 20:51:17 2024,80,-16.012,16.012,1.908,1.908,8.252,70.316,72.550,10.858,34.786,14.165,4.660,25.846,9.570,8.918,11.067,4.926
Mon Dec 02 20:51:17 2024,85,-15.668,15.668,2.058,2.058,7.887,66.974,66.722,10.906,34.428,14.230,4.699,25.527,9.404,8.806,11.158,4.976
Mon Dec 02 20:51:17 2024,90,-15.346,15.346,2.203,2.203,7.810,64.000,61.317,10.959,34.102,14.276,4.748,25.283,9.242,8.704,11.228,5.010
Mon Dec 02 20:51:17 2024,95,-15.059,15.059,2.379,2.379,7.633,61.032,56.242,10.930,33.654,14.106,4.736,25.112,9.131,8.522,11.398,5.063
Mon Dec 02 20:51:17 2024,100,-14.826,14.826,2.547,2.547,7.448,58.463,52.074,10.869,33.217,13.858,4.698,24.989,9.057,8.323,11.599,5.119
Mon Dec 02 20:51:17 2024,105,-14.639,14.639,2.709,2.709,7.389,56.256,48.633,10.790,32.841,13.623,4.585,24.820,8.980,8.138,11.790,5.181
Mon Dec 02 20:51:17 2024,110,-14.503,14.503,2.897,2.897,7.482,54.183,45.475,10.648,32.473,13.358,4.280,24.493,8.877,7.939,12.005,5.271
Mon Dec 02 20:51:17 2024,115,-14.403,14.403,3.043,3.043,7.587,52.627,43.153,10.537,32.197,13.152,4.035,24.233,8.796,7.785,12.171,5.342
Mon Dec 02 20:51:17 2024,120,-14.322,14.322,3.045,3.045,7.651,51.419,40.836,10.425,31.990,12.817,3.898,24.114,8.692,7.757,12.222,5.328
Mon Dec 02 20:51:17 2024,125,-14.250,14.250,3.037,3.037,7.712,50.362,38.786,10.324,31.808,12.503,3.781,24.018,8.596,7.741,12.253,5.310
Mon Dec 02 20:51:17 2024,130,-14.195,14.195,3.121,3.121,7.684,49.158,36.790,10.235,31.588,12.299,3.767,24.005,8.560,7.716,12.283,5.330
Mon Dec 02 20:51:17 2024,135,-14.147,14.147,3.268,3.268,7.606,47.793,34.723,10.149,31.337,12.150,3.816,24.042,8.559,7.683,12.316,5.375
Mon Dec 02 20:51:17 2024,140,-14.103,14.103,3.406,3.406,7.543,46.510,32.826,10.069,31.108,12.008,3.863,24.078,8.558,7.653,12.347,5.418
Mon Dec 02 20:51:17 2024,145,-14.191,14.191,3.641,3.641,7.482,44.830,29.804,9.767,30.714,11.662,4.120,24.406,8.360,7.778,12.212,5.434
Mon Dec 02 20:51:17 2024,150,-14.240,14.240,3.812,3.812,7.442,43.557,27.663,9.562,30.427,11.412,4.290,24.622,8.235,7.851,12.118,5.453
Mon Dec 02 20:51:17 2024,155,-14.302,14.302,3.932,3.932,7.274,42.278,25.360,9.245,29.994,11.242,4.572,24.912,8.230,7.962,11.967,5.555
Mon Dec 02 20:51:17 2024,160,-14.354,14.354,4.020,4.020,7.130,41.254,23.541,8.975,29.626,11.108,4.814,25.157,8.242,8.055,11.828,5.648
Mon Dec 02 20:51:17 2024,165,-14.404,14.404,4.100,4.100,7.008,40.342,21.970,8.733,29.299,10.985,5.032,25.378,8.254,8.136,11.696,5.732
Mon Dec 02 20:51:17 2024,170,-14.435,14.435,4.150,4.150,6.935,39.776,21.018,8.582,29.096,10.906,5.168,25.516,8.262,8.187,11.608,5.784
Mon Dec 02 20:51:17 2024,175,-14.447,14.447,4.167,4.167,6.912,39.589,20.706,8.532,29.028,10.878,5.214,25.563,8.265,8.204,11.579,5.801
Mon Dec 02 20:51:17 2024,180,-14.838,14.838,3.680,3.680,6.783,38.262,18.374,8.190,28.527,11.247,5.317,14.644,8.169,8.396,11.425,5.650
Mon Dec 02 20:51:17 2024,185,-14.970,14.970,3.576,3.576,6.702,37.576,17.235,8.002,11.726,11.297,5.422,14.569,8.149,8.479,11.331,5.638
Mon Dec 02 20:51:17 2024,190,-15.136,15.136,3.561,3.561,6.633,36.961,16.253,7.929,11.874,11.179,5.615,14.381,8.148,8.627,11.138,5.689
Mon Dec 02 20:51:17 2024,195,-15.267,15.267,3.567,3.567,6.583,36.514,15.550,7.894,11.961,11.059,5.776,14.221,8.151,8.752,29.029,5.738
Mon Dec 02 20:51:17 2024,200,-15.376,15.376,3.572,3.572,6.540,36.151,14.984,7.864,12.028,10.962,5.907,14.091,8.153,8.854,29.168,5.778
Mon Dec 02 20:51:17 2024,205,-15.423,15.423,3.372,3.372,6.183,35.765,14.459,7.603,12.267,11.120,5.783,14.215,8.242,8.790,29.187,5.852
Mon Dec 02 20:51:17 2024,210,-15.482,15.482,-3.257,3.257,5.964,35.438,13.997,7.442,12.426,11.184,5.748,14.249,8.294,8.784,29.246,5.906
Mon Dec 02 20:51:17 2024,215,-15.527,15.527,3.356,3.356,5.764,35.077,13.530,7.361,12.589,10.911,5.943,14.054,8.412,8.860,29.385,6.061
Mon Dec 02 20:51:17 2024,220,-15.563,15.563,3.408,3.408,5.613,34.811,13.184,7.291,12.690,10.740,6.066,13.930,8.493,8.909,29.484,6.166
Mon Dec 02 20:51:17 2024,225,-15.586,15.586,1.124,3.233,5.231,34.043,12.519,7.259,12.741,10.595,6.223,13.777,8.617,8.962,29.598,6.263
Mon Dec 02 20:51:17 2024,230,-15.600,15.600,-3.042,3.042,4.877,33.321,11.926,7.242,12.751,10.488,6.354,13.645,8.725,9.004,29.693,6.338
Mon Dec 02 20:51:17 2024,235,-15.612,15.612,-2.895,2.895,4.605,32.767,11.474,7.229,12.745,10.405,6.457,13.539,8.808,9.037,29.767,6.395
Mon Dec 02 20:51:17 2024,240,-15.599,15.599,-2.954,2.954,4.196,31.973,10.871,7.139,12.787,10.105,6.449,13.541,8.792,9.069,29.829,6.470
Mon Dec 02 20:51:17 2024,245,-15.596,15.596,-0.984,2.944,3.913,31.416,10.442,7.090,12.790,9.929,6.474,13.510,8.806,9.094,29.882,6.524
Mon Dec 02 20:51:17 2024,250,-15.686,15.686,-2.841,2.841,3.604,30.670,9.937,7.122,12.713,9.696,6.599,13.370,8.717,9.183,29.999,6.466
Mon Dec 02 20:51:17 2024,255,-15.746,15.746,-2.772,2.772,3.383,30.144,9.580,7.139,12.659,9.531,6.684,13.275,8.660,9.243,30.080,6.432
Mon Dec 02 20:51:17 2024,260,-15.749,15.749,2.892,2.892,3.024,29.491,9.216,7.010,12.714,9.306,6.712,13.245,8.688,9.257,30.095,6.405
Mon Dec 02 20:51:17 2024,265,-15.736,15.736,3.055,3.055,2.674,28.889,8.900,6.856,12.784,9.095,6.720,13.239,8.737,9.255,30.089,6.384
Mon Dec 02 20:51:17 2024,270,-15.769,15.769,3.173,3.173,2.415,28.353,8.599,6.786,12.800,8.934,6.744,13.211,8.717,9.268,30.110,6.359
Mon Dec 02 20:51:17 2024,275,-15.844,15.844,3.281,3.281,2.171,27.755,8.247,6.767,12.785,8.777,6.785,13.161,8.636,9.297,30.156,6.328
Mon Dec 02 20:51:17 2024,280,-15.910,15.910,3.368,3.368,1.982,27.268,7.969,6.751,12.761,8.625,6.823,13.117,8.568,9.331,30.194,6.288
Mon Dec 02 20:51:17 2024,285,-15.981,15.981,3.437,3.437,1.849,26.859,7.757,6.737,12.713,8.428,6.867,13.071,8.507,9.388,30.227,6.214
Mon Dec 02 20:51:17 2024,290,-16.050,16.050,3.503,3.503,1.723,26.469,7.556,6.722,12.662,8.238,6.910,13.027,8.447,9.444,30.259,6.142
Mon Dec 02 20:51:17 2024,295,-16.023,16.023,3.579,3.579,1.578,26.003,7.362,6.731,12.617,8.128,6.927,13.016,8.420,9.450,30.267,6.104
Mon Dec 02 20:51:17 2024,300,-15.991,15.991,3.643,3.643,1.458,25.616,7.204,6.742,12.580,8.047,6.937,13.011,8.402,9.450,30.272,6.077
Mon Dec 02 20:51:17 2024,305,-16.074,16.074,3.682,3.682,1.343,25.173,7.024,6.830,12.540,8.018,6.978,12.961,8.316,9.500,30.292,5.980
Mon Dec 02 20:51:17 2024,310,-16.219,16.219,3.684,3.684,1.274,24.852,6.895,6.950,12.508,8.042,7.027,12.892,8.208,9.570,30.317,5.862
Mon Dec 02 20:51:17 2024,315,-16.368,16.368,3.686,3.686,1.202,24.524,6.763,7.072,12.466,8.066,7.076,12.819,8.097,9.642,30.345,5.741
Mon Dec 02 20:51:17 2024,320,-16.444,16.444,3.804,3.804,1.126,24.088,6.580,7.270,12.381,8.134,7.052,12.792,7.927,9.711,30.350,5.632
Mon Dec 02 20:51:17 2024,325,-16.513,16.513,3.901,3.901,1.062,23.719,6.427,7.436,12.297,8.190,7.034,12.761,7.784,9.770,30.356,5.537
Mon Dec 02 20:51:17 2024,330,-16.755,16.755,3.981,3.981,0.893,23.365,6.322,7.657,12.230,8.476,6.967,12.756,7.640,9.875,30.359,5.303
Mon Dec 02 20:51:17 2024,335,-16.998,16.998,4.046,4.046,0.726,23.067,6.243,7.858,12.116,8.767,6.899,12.750,7.516,9.971,30.367,5.074
Mon Dec 02 20:51:17 2024,340,-17.104,17.104,4.137,4.137,0.585,22.734,6.108,8.161,11.837,9.180,6.810,12.702,7.391,10.084,9.616,4.901
Mon Dec 02 20:51:17 2024,345,-17.077,17.077,4.232,4.232,0.489,22.425,5.949,8.494,11.454,9.628,6.718,12.606,7.285,10.193,9.590,4.806
Mon Dec 02 20:51:17 2024,350,-17.094,17.094,4.344,4.344,0.407,22.173,5.833,8.808,11.008,10.090,6.614,12.526,7.192,10.313,9.532,4.724
Mon Dec 02 20:51:17 2024,355,-17.214,17.214,4.508,4.508,0.342,22.012,5.796,9.131,29.604,10.644,6.467,12.518,7.113,10.475,9.415,4.664
Mon Dec 02 20:51:17 2024,360,-17.321,17.321,4.650,4.650,0.290,21.886,5.770,9.400,30.206,11.108,6.340,12.508,7.048,10.614,9.306,4.614
Mon Dec 02 20:51:17 2024,365,-17.257,17.257,4.889,4.889,0.214,21.758,5.750,9.642,30.900,11.705,6.222,12.680,7.201,10.737,9.219,4.539
Mon Dec 02 20:51:17 2024,370,-17.163,17.163,5.107,5.107,0.148,21.656,5.733,9.825,31.521,12.215,6.128,12.865,7.380,10.834,9.144,4.470
Mon Dec 02 20:51:17 2024,375,-17.076,17.076,5.368,5.368,0.159,21.641,5.883,10.119,32.398,12.981,6.024,13.122,7.700,10.976,9.021,4.431
Mon Dec 02 20:51:17 2024,380,-17.039,17.039,5.541,5.541,0.237,21.717,6.114,10.374,33.077,13.605,5.963,13.312,7.993,11.090,8.910,4.440
Mon Dec 02 20:51:17 2024,385,-16.996,16.996,5.735,5.735,0.344,21.803,6.406,10.685,33.924,14.346,5.872,13.578,8.357,11.234,8.756,4.439
Mon Dec 02 20:51:17 2024,390,-16.974,16.974,5.822,5.822,0.458,21.835,6.640,10.916,34.531,14.852,5.760,13.885,8.633,11.351,8.621,4.403
Mon Dec 02 20:51:17 2024,395,-16.953,16.953,5.905,5.905,0.574,21.871,6.874,11.143,35.135,15.340,5.647,14.159,8.904,11.469,8.478,4.364
Mon Dec 02 20:51:17 2024,400,-16.954,16.954,5.909,5.909,0.842,22.096,7.148,11.458,35.810,15.912,5.537,14.385,9.234,11.686,8.235,4.377
Mon Dec 02 20:51:17 2024,405,-16.964,16.964,5.889,5.889,1.098,22.343,7.376,11.729,36.357,16.383,5.452,14.527,9.510,11.886,8.014,4.403
Mon Dec 02 20:51:17 2024,410,-16.972,16.972,5.874,5.874,1.291,22.536,7.549,11.932,36.769,16.732,5.387,14.612,9.718,12.037,7.846,4.422
Mon Dec 02 20:51:17 2024,415,-16.892,16.892,5.841,5.841,1.649,22.916,7.905,12.128,37.226,17.416,5.282,14.688,10.066,12.060,7.829,4.673
Mon Dec 02 20:51:17 2024,420,-16.853,16.853,5.832,5.832,1.910,23.181,8.192,12.281,37.557,17.972,5.194,14.713,10.336,12.110,7.774,4.842
Mon Dec 02 20:51:17 2024,425,-16.839,16.839,5.884,5.884,2.214,23.408,8.664,12.404,37.748,18.902,5.062,14.800,10.724,12.178,7.686,5.090
Mon Dec 02 20:51:17 2024,430,-16.829,16.829,5.931,5.931,2.466,23.603,9.064,12.505,37.898,19.692,4.950,25.131,11.048,12.236,7.610,5.298
Mon Dec 02 20:51:17 2024,435,-16.908,16.908,6.006,6.006,2.859,23.977,9.597,12.699,38.198,20.861,4.973,25.257,11.499,12.315,7.509,5.476
Mon Dec 02 20:51:17 2024,440,-17.016,17.016,6.091,6.091,3.296,24.414,10.169,12.922,38.544,22.160,5.042,25.473,11.986,12.398,7.402,5.641
Mon Dec 02 20:51:17 2024,445,-17.146,17.146,6.127,6.127,3.658,24.775,10.615,13.166,38.960,23.496,5.112,25.771,12.419,12.567,7.260,5.858
Mon Dec 02 20:51:17 2024,450,-17.263,17.263,6.114,6.114,3.867,24.983,10.842,13.369,39.334,24.549,5.166,26.078,12.696,12.769,7.113,6.068
Mon Dec 02 20:51:17 2024,455,-17.351,17.351,6.125,6.125,4.085,25.187,11.055,13.609,39.714,25.639,5.191,26.378,12.947,12.956,6.972,6.281
Mon Dec 02 20:51:17 2024,460,-17.321,17.321,6.235,6.235,4.333,25.373,11.213,14.000,40.114,26.838,5.105,26.566,13.091,13.084,6.883,6.509
Mon Dec 02 20:51:17 2024,465,-17.286,17.286,6.336,6.336,4.546,25.535,11.342,14.350,40.460,27.900,5.021,26.731,13.206,13.186,6.803,6.704
Mon Dec 02 20:51:17 2024,470,-17.302,17.302,6.502,6.502,4.407,25.214,11.369,14.479,40.578,28.696,4.947,27.256,13.277,12.997,6.997,6.622
Mon Dec 02 20:51:17 2024,475,-17.324,17.324,6.638,6.638,4.235,24.891,11.366,14.531,40.617,29.245,4.893,27.750,13.323,12.800,7.196,6.506
Mon Dec 02 20:51:17 2024,480,-17.291,17.291,6.812,6.812,4.092,24.618,11.562,14.680,40.574,29.731,4.828,28.465,13.402,12.647,7.351,6.528
Mon Dec 02 20:51:17 2024,485,-17.149,17.149,6.983,6.983,4.098,24.591,12.119,14.977,40.373,29.742,4.771,29.255,13.508,12.688,7.312,6.862
Mon Dec 02 20:51:17 2024,490,-17.024,17.024,7.151,7.151,4.086,24.539,12.618,15.260,40.216,29.781,4.708,30.042,13.600,12.703,7.296,7.151
Mon Dec 02 20:51:17 2024,495,-17.028,17.028,7.182,7.182,3.594,23.984,12.499,15.458,39.908,29.566,4.468,30.758,13.624,12.418,7.582,7.116
Mon Dec 02 20:51:17 2024,500,-17.029,17.029,7.213,7.213,3.203,23.541,12.423,15.631,39.672,29.364,4.272,31.377,13.639,12.189,7.811,7.097
Mon Dec 02 20:51:17 2024,505,-17.033,17.033,7.308,7.308,2.904,23.178,12.304,15.878,39.561,29.047,3.973,31.760,13.681,11.977,8.022,7.115
Mon Dec 02 20:51:17 2024,510,-17.040,17.040,7.420,7.420,2.658,22.871,12.178,16.138,39.516,28.701,3.657,32.042,13.732,11.785,8.214,7.146
Mon Dec 02 20:51:17 2024,515,-16.993,16.993,7.504,7.504,2.430,22.580,12.104,16.410,39.396,28.255,3.378,32.117,13.805,11.609,8.390,7.212
Mon Dec 02 20:51:17 2024,520,-16.860,16.860,7.574,7.574,2.160,20.067,12.076,16.772,39.154,27.568,3.076,31.946,13.930,11.408,8.592,7.341
Mon Dec 02 20:51:17 2024,525,-16.748,16.748,7.630,7.630,1.939,18.034,12.059,17.072,39.005,26.974,2.832,31.787,14.034,11.246,8.754,7.450
Mon Dec 02 20:51:17 2024,530,-16.648,16.648,7.722,7.722,1.759,21.868,12.177,17.434,38.999,26.309,2.499,32.084,14.247,11.133,8.867,7.523
Mon Dec 02 20:51:17 2024,535,-16.570,16.570,7.794,7.794,1.615,21.830,12.265,17.717,39.021,25.788,2.240,32.315,14.412,11.042,8.958,7.583
Mon Dec 02 20:51:17 2024,540,-16.486,16.486,7.793,7.793,1.454,21.723,12.418,17.778,38.731,25.192,2.292,32.640,14.721,11.133,8.866,7.738
Mon Dec 02 20:51:17 2024,545,-16.424,16.424,7.767,7.767,1.332,21.615,12.551,17.744,1.556,24.732,2.437,32.906,14.995,11.263,8.735,7.883
Mon Dec 02 20:51:17 2024,550,-16.364,16.364,7.693,7.693,1.162,21.468,12.664,17.696,1.833,24.327,2.550,33.181,15.327,11.425,8.571,8.007
Mon Dec 02 20:51:17 2024,555,-16.334,16.334,7.573,7.573,0.987,21.320,12.694,17.644,2.011,24.186,2.564,33.354,15.618,11.572,8.424,8.041
Mon Dec 02 20:51:17 2024,560,-16.308,16.308,7.465,7.465,0.830,21.194,12.721,17.597,2.157,24.055,2.576,33.512,15.880,11.704,8.293,8.073
Mon Dec 02 20:51:17 2024,565,-16.200,16.200,7.328,7.328,0.646,20.934,12.627,17.865,1.890,23.901,2.442,33.652,15.895,12.008,7.987,7.933
Mon Dec 02 20:51:17 2024,570,-16.101,16.101,7.199,7.199,0.472,20.689,12.540,18.115,1.640,23.756,2.316,33.788,15.914,12.296,7.698,7.804
Mon Dec 02 20:51:17 2024,575,-15.947,15.947,6.956,6.956,0.299,20.411,12.464,18.216,1.495,24.001,2.240,34.050,16.072,12.607,7.383,7.805
Mon Dec 02 20:51:17 2024,580,-15.794,15.794,6.706,6.706,0.140,20.082,12.397,18.267,1.386,24.328,2.183,34.323,16.251,12.897,7.089,7.840
Mon Dec 02 20:51:17 2024,585,-15.648,15.648,6.465,6.465,0.000,19.859,12.332,18.314,1.279,24.642,2.127,34.583,16.423,13.175,6.808,7.875
Mon Dec 02 20:51:17 2024,590,-15.430,15.430,6.410,6.410,-0.040,19.758,12.314,18.094,1.334,25.498,2.255,34.957,16.608,13.590,6.389,7.868
Mon Dec 02 20:51:17 2024,595,-15.237,15.237,6.314,6.314,-0.105,19.626,12.285,17.935,1.332,26.221,2.335,35.295,16.786,13.961,6.013,7.872
Mon Dec 02 20:51:17 2024,600,-15.171,15.171,6.213,6.213,-0.252,20.252,12.443,17.692,38.877,27.150,2.468,36.180,17.030,14.180,5.766,7.743
Mon Dec 02 20:51:17 2024,605,-15.116,15.116,6.126,6.126,-0.383,20.502,12.585,17.475,39.142,27.955,2.582,36.954,17.242,14.365,5.548,7.633
Mon Dec 02 20:51:17 2024,610,-15.050,15.050,6.045,6.045,-0.593,20.877,12.656,17.246,39.806,28.947,2.534,37.698,17.421,14.496,5.358,7.592
Mon Dec 02 20:51:17 2024,615,-14.988,14.988,5.973,5.973,-0.790,21.219,12.710,17.036,40.504,29.856,2.474,38.359,17.578,14.606,5.187,7.564
Mon Dec 02 20:51:17 2024,620,-14.930,14.930,5.907,5.907,-0.982,21.545,12.755,16.828,41.325,30.723,2.404,38.976,17.726,14.703,5.018,7.543
Mon Dec 02 20:51:17 2024,625,-14.910,14.910,5.651,5.651,-0.706,21.824,12.838,17.056,43.093,32.324,2.332,39.712,18.147,14.850,4.852,7.252
Mon Dec 02 20:51:17 2024,630,-14.886,14.886,5.466,5.466,-0.564,22.137,12.907,17.156,44.563,33.575,2.273,40.339,18.473,14.970,4.704,7.054
Mon Dec 02 20:51:17 2024,635,-14.829,14.829,5.479,5.479,-0.414,22.461,13.204,17.481,45.973,34.582,2.057,40.967,19.023,14.957,4.712,7.113
Mon Dec 02 20:51:17 2024,640,-14.776,14.776,5.497,5.497,-0.278,22.782,13.494,17.785,47.303,35.493,1.869,41.559,19.556,14.941,4.726,7.177
Mon Dec 02 20:51:17 2024,645,-14.698,14.698,5.658,5.658,0.028,22.921,13.776,18.375,48.754,36.624,1.665,41.835,20.206,14.829,4.912,7.175
Mon Dec 02 20:51:17 2024,650,-14.628,14.628,5.850,5.850,0.327,22.953,13.979,18.961,49.877,37.580,1.517,41.870,20.752,14.700,5.123,7.142
Mon Dec 02 20:51:17 2024,655,-14.561,14.561,6.037,6.037,0.623,23.012,14.178,19.528,50.965,38.503,1.399,41.910,21.295,14.576,5.312,7.113
Mon Dec 02 20:51:17 2024,660,-14.597,14.597,6.108,6.108,0.805,23.173,14.736,20.216,52.052,39.922,1.322,42.240,22.580,14.388,5.562,7.280
Mon Dec 02 20:51:17 2024,665,-14.644,14.644,6.172,6.172,0.983,23.353,15.346,20.941,53.177,41.439,-1.359,42.616,24.010,14.189,5.802,7.479
Mon Dec 02 20:51:17 2024,670,-14.578,14.578,6.323,6.323,1.118,23.660,15.826,21.588,54.432,42.816,-1.662,43.376,25.332,13.880,6.120,7.699
Mon Dec 02 20:51:17 2024,675,-14.463,14.463,6.525,6.525,1.248,24.066,16.350,22.311,55.927,44.381,-2.209,44.437,26.891,13.478,6.512,7.974
Mon Dec 02 20:51:17 2024,680,-14.406,14.406,6.668,6.668,1.451,24.446,16.899,23.053,57.236,45.766,-2.683,45.398,28.413,13.221,6.743,8.233
Mon Dec 02 20:51:17 2024,685,-14.416,14.416,6.764,6.764,1.924,25.017,17.751,24.194,58.793,47.349,-3.019,46.740,30.467,13.152,6.772,8.594
Mon Dec 02 20:51:17 2024,690,-14.450,14.450,6.846,6.846,2.252,25.506,18.346,24.912,59.916,48.697,-3.256,47.821,32.154,13.045,6.837,8.886
Mon Dec 02 20:51:17 2024,695,-14.684,14.684,6.905,6.905,2.682,26.358,18.909,25.204,60.853,50.707,-3.135,49.398,34.388,12.909,6.936,9.318
Mon Dec 02 20:51:17 2024,700,-14.850,14.850,6.950,6.950,3.002,26.979,19.325,25.458,61.585,52.266,-3.106,50.589,36.139,12.806,7.007,9.642
Mon Dec 02 20:51:17 2024,705,-14.970,14.970,6.920,6.920,3.468,27.727,19.715,25.451,62.771,54.569,-3.133,52.143,38.165,12.722,7.073,9.840
Mon Dec 02 20:51:17 2024,710,-15.011,15.011,6.787,6.787,4.090,28.583,20.035,25.064,64.496,57.686,-3.243,54.042,40.371,12.675,7.127,9.839
Mon Dec 02 20:51:17 2024,715,-15.109,15.109,6.780,6.780,4.521,29.247,20.290,24.663,65.824,60.528,-3.467,55.665,42.419,12.671,7.142,9.946
Mon Dec 02 20:51:17 2024,720,-15.256,15.256,6.844,6.844,4.981,29.993,20.549,23.976,67.417,64.326,-3.836,57.674,45.041,12.718,7.124,10.110
Mon Dec 02 20:51:17 2024,725,-15.350,15.350,6.896,6.896,5.347,30.566,20.713,23.422,68.863,67.595,4.208,59.361,47.317,12.768,7.092,10.219
Mon Dec 02 20:51:17 2024,730,-15.326,15.326,6.972,6.972,5.603,30.896,20.630,22.987,70.460,70.862,4.605,60.985,49.426,12.884,6.988,10.209
Mon Dec 02 20:51:17 2024,735,-15.312,15.312,7.048,7.048,5.880,31.260,20.564,22.514,72.201,74.363,5.069,62.708,51.808,12.998,6.886,10.210
Mon Dec 02 20:51:17 2024,740,-15.389,15.389,7.179,7.179,5.980,31.566,20.532,22.251,74.216,77.523,5.582,64.532,54.280,13.222,6.709,10.339
Mon Dec 02 20:51:17 2024,745,-15.465,15.465,7.300,7.300,6.052,31.831,20.507,22.056,76.059,80.250,6.072,66.168,56.574,13.427,6.537,10.467
Mon Dec 02 20:51:17 2024,750,-15.598,15.598,7.313,7.313,6.155,32.136,20.557,21.838,77.812,83.016,6.586,67.762,59.110,13.578,6.408,10.619
Mon Dec 02 20:51:17 2024,755,-15.748,15.748,7.259,7.259,6.262,32.426,20.646,21.642,79.297,85.450,7.057,69.134,61.478,13.678,6.319,10.768
Mon Dec 02 20:51:17 2024,760,-15.891,15.891,7.208,7.208,6.364,32.702,20.730,21.486,80.732,87.687,7.532,70.446,63.769,13.772,6.228,10.914
Mon Dec 02 20:51:17 2024,765,-15.835,15.835,7.059,7.059,6.570,32.969,20.591,20.660,82.128,89.641,8.076,71.545,65.937,13.840,6.158,10.745
Mon Dec 02 20:51:17 2024,770,-15.819,15.819,6.940,6.940,6.739,33.214,20.503,20.082,83.440,91.357,8.616,72.600,67.981,13.905,6.088,10.647
Mon Dec 02 20:51:17 2024,775,-15.878,15.878,6.860,6.860,6.942,33.589,20.562,19.772,84.624,92.910,9.148,73.748,70.040,13.970,6.009,10.631
Mon Dec 02 20:51:17 2024,780,-15.943,15.943,6.798,6.798,7.124,33.940,20.641,19.580,85.641,94.207,9.621,74.772,71.837,14.025,5.937,10.632
Mon Dec 02 20:51:17 2024,785,-15.920,15.920,6.662,6.662,7.283,34.271,20.684,19.410,86.539,95.243,10.118,75.696,73.281,14.074,5.860,10.687
Mon Dec 02 20:51:17 2024,790,-15.848,15.848,6.514,6.514,7.391,34.510,20.694,19.291,87.149,95.883,10.514,76.340,74.163,14.107,5.800,10.761
Mon Dec 02 20:51:17 2024,795,-15.770,15.770,6.357,6.357,7.515,34.760,20.699,19.256,87.873,96.596,10.996,77.079,75.235,14.136,5.740,10.814
Mon Dec 02 20:51:17 2024,800,-15.688,15.688,6.220,6.220,7.671,34.966,20.679,19.519,88.856,97.482,11.652,77.984,76.884,14.140,5.728,10.727
Mon Dec 02 20:51:17 2024,805,-15.626,15.626,6.118,6.118,7.788,35.116,20.662,19.764,89.606,98.125,12.176,78.672,78.126,14.142,5.721,10.654
Mon Dec 02 20:51:17 2024,810,-15.490,15.490,6.053,6.053,7.864,35.280,20.698,19.948,90.218,98.365,12.675,79.221,78.862,14.068,5.787,10.672
Mon Dec 02 20:51:17 2024,815,-15.386,15.386,6.011,6.011,7.911,35.397,20.729,20.082,90.634,98.481,13.034,79.592,79.307,14.008,5.841,10.696
Mon Dec 02 20:51:17 2024,820,-15.172,15.172,5.881,5.881,8.018,35.527,20.706,20.398,91.143,98.591,13.386,79.992,79.871,13.866,5.976,10.643
Mon Dec 02 20:51:17 2024,825,-14.954,14.954,5.728,5.728,8.132,35.611,20.644,20.736,91.508,98.644,13.566,80.236,80.290,13.714,6.124,10.542
Mon Dec 02 20:51:17 2024,830,-14.824,14.824,5.608,5.608,8.224,35.690,20.606,21.016,91.810,98.686,13.732,80.420,80.611,13.578,6.255,10.476
Mon Dec 02 20:51:17 2024,835,-14.915,14.915,5.552,5.552,8.276,35.772,20.628,21.190,92.000,98.719,13.891,80.485,80.740,13.454,6.367,10.490
Mon Dec 02 20:51:17 2024,840,-15.006,15.006,5.507,5.507,8.320,35.844,20.650,21.339,92.162,98.747,14.034,80.536,80.845,13.346,6.465,10.506
Mon Dec 02 20:51:17 2024,845,-14.882,14.882,5.486,5.486,8.338,35.883,20.680,21.424,92.132,98.554,14.105,80.495,80.659,13.197,6.608,10.528
Mon Dec 02 20:51:17 2024,850,-14.725,14.725,5.477,5.477,8.344,35.903,20.704,21.472,92.054,98.340,14.138,80.437,80.433,13.071,6.731,10.546
Mon Dec 02 20:51:17 2024,855,-14.648,14.648,5.462,5.462,8.399,35.926,20.666,21.556,92.012,98.206,14.199,80.402,80.342,12.955,6.848,10.559
Mon Dec 02 20:51:17 2024,860,-14.661,14.661,5.447,5.447,8.487,35.948,20.578,21.654,92.012,98.171,14.272,80.396,80.390,12.872,6.934,10.564
Mon Dec 02 20:51:17 2024,865,-14.667,14.667,5.448,5.448,8.550,35.998,20.532,21.791,92.036,98.174,14.362,80.419,80.482,12.791,7.018,10.560
Mon Dec 02 20:51:17 2024,870,-14.664,14.664,5.480,5.480,8.574,36.106,20.557,22.018,92.110,98.250,14.500,80.499,80.667,12.702,7.108,10.537
Mon Dec 02 20:51:17 2024,875,-14.658,14.658,5.522,5.522,8.586,36.237,20.606,22.287,92.201,98.348,14.659,80.600,80.890,12.606,7.204,10.508
Mon Dec 02 20:51:17 2024,880,-14.722,14.722,5.462,5.462,8.614,36.371,20.750,22.436,92.082,98.154,14.505,80.403,80.625,12.518,7.294,10.423
Mon Dec 02 20:51:17 2024,885,-14.794,14.794,5.391,5.391,8.644,36.506,20.906,22.580,91.940,97.925,14.319,80.175,80.305,12.431,7.384,10.333
Mon Dec 02 20:51:17 2024,890,-14.881,14.881,5.360,5.360,8.639,36.616,20.998,22.665,91.613,97.567,13.948,79.817,79.783,12.333,7.492,10.232
Mon Dec 02 20:51:17 2024,895,-14.948,14.948,5.376,5.376,8.605,36.659,20.996,22.666,91.244,97.226,13.562,79.484,79.277,12.264,7.574,10.164
Mon Dec 02 20:51:17 2024,900,-15.024,15.024,5.393,5.393,8.567,36.708,20.994,22.680,90.837,96.837,13.143,79.115,78.706,12.185,7.666,10.088
Mon Dec 02 20:51:17 2024,905,-15.105,15.105,5.408,5.408,8.596,36.842,21.063,22.615,90.246,96.335,12.745,78.702,77.781,12.167,7.694,9.999
Mon Dec 02 20:51:17 2024,910,-15.170,15.170,5.420,5.420,8.615,36.943,21.113,22.582,89.793,95.929,12.436,78.378,77.062,12.148,7.721,9.931
Mon Dec 02 20:51:17 2024,915,-15.272,15.272,5.518,5.518,8.569,37.030,21.291,22.611,89.066,95.199,11.903,77.864,75.963,12.078,7.790,10.041
Mon Dec 02 20:51:17 2024,920,-15.387,15.387,5.645,5.645,8.501,37.113,21.512,22.687,88.249,94.329,11.322,77.287,74.722,11.991,7.874,10.215
Mon Dec 02 20:51:17 2024,925,-15.467,15.467,5.746,5.746,8.440,37.200,21.739,22.795,87.526,93.471,10.798,76.801,73.600,11.974,7.895,10.392
Mon Dec 02 20:51:17 2024,930,-15.523,15.523,5.835,5.835,8.382,37.295,21.990,22.935,86.824,92.562,10.302,76.352,72.485,12.013,7.866,10.582
Mon Dec 02 20:51:17 2024,935,-15.556,15.556,5.934,5.934,8.308,37.376,22.264,23.066,86.052,91.548,9.825,75.840,71.270,12.074,7.816,10.805
Mon Dec 02 20:51:17 2024,940,-15.504,15.504,6.065,6.065,8.179,37.396,22.607,23.118,85.047,90.261,9.297,75.101,69.787,12.216,7.688,11.129
Mon Dec 02 20:51:17 2024,945,-15.456,15.456,6.186,6.186,8.059,37.413,22.923,23.181,84.142,89.067,8.936,74.433,68.431,12.347,7.568,11.432
Mon Dec 02 20:51:17 2024,950,-15.354,15.354,6.257,6.257,7.885,37.480,23.355,23.298,82.666,87.005,-8.485,73.218,66.235,12.469,7.477,11.598
Mon Dec 02 20:51:17 2024,955,-15.253,15.253,6.309,6.309,7.718,37.554,23.763,23.442,81.257,84.941,-8.199,72.034,64.103,12.577,7.394,11.720
Mon Dec 02 20:51:17 2024,960,-15.154,15.154,6.373,6.373,7.557,37.572,24.136,23.588,79.817,82.691,-7.985,70.663,61.713,12.678,7.315,11.698
Mon Dec 02 20:51:17 2024,965,-15.059,15.059,6.447,6.447,7.402,37.536,24.473,23.733,78.357,80.295,-7.849,69.137,59.125,12.773,7.226,11.545
Mon Dec 02 20:51:17 2024,970,-14.977,14.977,6.513,6.513,7.265,37.507,24.769,23.874,77.097,78.192,-7.850,67.821,56.909,12.859,7.124,11.415
Mon Dec 02 20:51:17 2024,975,-15.001,15.001,6.626,6.626,7.063,37.542,25.708,23.516,75.087,75.884,-7.528,65.667,54.402,13.077,6.881,11.712
Mon Dec 02 20:51:17 2024,980,-15.020,15.020,6.714,6.714,6.906,37.573,26.439,23.262,73.548,74.129,-7.344,64.025,52.572,13.248,6.682,11.943
Mon Dec 02 20:51:17 2024,985,-14.923,14.923,6.783,6.783,6.763,37.490,27.118,22.797,71.617,71.872,-7.114,61.953,50.267,13.454,6.414,11.929
Mon Dec 02 20:51:17 2024,990,-14.805,14.805,6.836,6.836,6.645,37.381,27.677,22.363,69.883,69.859,-6.944,60.089,48.270,13.642,6.145,11.837
Mon Dec 02 20:51:17 2024,995,-14.644,14.644,6.915,6.915,6.554,37.213,28.201,21.873,68.098,67.853,-6.715,58.002,46.208,13.845,5.830,11.671
Mon Dec 02 20:51:18 2024,0,-14.359,14.359,7.072,7.072,6.566,36.872,28.529,21.200,66.322,65.952,-6.207,55.398,43.879,14.064,5.446,11.286
Mon Dec 02 20:51:18 2024,5,-14.112,14.112,7.224,7.224,6.554,36.636,28.851,20.596,64.628,64.060,-5.748,52.968,41.659,14.254,5.078,10.927
Mon Dec 02 20:51:18 2024,10,-13.938,-13.938,7.395,7.395,6.504,36.711,29.055,20.070,63.213,62.084,-5.212,50.845,39.410,14.319,4.813,10.538
Mon Dec 02 20:51:18 2024,15,-13.797,-13.797,7.549,7.549,6.455,36.822,29.215,19.635,62.023,60.377,-4.757,49.050,37.538,14.360,4.576,10.197
Mon Dec 02 20:51:18 2024,20,-13.806,-13.806,7.576,7.576,6.283,37.083,29.038,19.356,60.348,57.848,-3.953,47.344,35.369,14.356,4.582,9.901
Mon Dec 02 20:51:18 2024,25,-13.845,13.845,7.576,7.576,6.122,37.334,28.824,19.161,58.905,55.680,-3.265,45.990,33.644,14.345,4.636,9.669
Mon Dec 02 20:51:18 2024,30,-13.747,13.747,7.735,7.735,5.851,37.069,28.080,18.710,56.969,53.268,-2.796,44.406,31.620,14.204,4.676,9.396
Mon Dec 02 20:51:18 2024,35,-13.505,13.505,8.057,8.057,5.483,36.235,26.833,18.031,54.685,50.855,-2.604,42.730,29.472,13.929,4.683,9.112
Mon Dec 02 20:51:18 2024,40,-13.273,-13.273,8.364,8.364,5.144,35.411,25.682,17.424,52.633,48.868,-2.490,41.250,27.720,13.668,4.650,8.870
Mon Dec 02 20:51:18 2024,45,-13.190,13.190,7.832,7.832,4.630,35.789,25.744,13.181,52.207,47.952,-2.208,40.966,25.890,13.959,4.862,8.643
Mon Dec 02 20:51:18 2024,50,-13.124,13.124,7.424,7.424,4.207,36.071,25.753,9.779,52.161,46.951,-1.988,40.688,24.406,14.176,4.972,8.450
Mon Dec 02 20:51:18 2024,55,-13.214,13.214,7.616,7.616,4.341,36.057,24.933,8.894,49.830,43.162,-1.374,39.472,23.297,14.263,4.891,8.532
Mon Dec 02 20:51:18 2024,60,-13.353,13.353,8.000,8.000,4.652,35.947,23.873,8.892,46.974,39.013,-0.341,38.005,22.354,14.302,4.753,8.708
Mon Dec 02 20:51:18 2024,65,-13.473,13.473,8.321,8.321,4.908,35.859,22.991,8.890,44.738,35.946,0.895,36.792,21.569,14.333,4.634,8.860
Mon Dec 02 20:51:18 2024,70,-13.295,13.295,8.354,8.354,5.054,35.418,19.515,8.693,41.734,29.687,0.820,35.681,19.616,14.701,4.577,8.110
Mon Dec 02 20:51:18 2024,75,-13.197,13.197,8.448,8.448,5.211,35.090,16.887,8.560,39.285,25.125,0.847,34.621,18.055,14.973,4.476,7.621
Mon Dec 02 20:51:18 2024,80,-13.464,13.464,8.612,8.612,4.906,34.704,15.698,8.087,37.171,21.556,0.662,33.311,15.939,15.160,4.396,6.680
Mon Dec 02 20:51:18 2024,85,-13.689,13.689,8.762,8.762,4.651,34.361,14.553,7.661,35.288,18.453,0.504,32.144,14.087,15.340,4.303,5.859
Mon Dec 02 20:51:18 2024,90,-13.955,13.955,8.616,8.616,4.432,34.036,14.000,7.402,34.168,17.018,0.472,31.098,12.970,15.537,4.192,5.511
Mon Dec 02 20:51:18 2024,95,-14.318,14.318,8.226,8.226,4.184,33.640,13.714,7.194,33.275,16.288,0.535,29.873,12.077,15.794,4.030,5.396
Mon Dec 02 20:51:18 2024,100,-14.581,14.581,7.969,7.969,4.000,33.356,13.459,7.022,32.569,15.635,0.579,28.981,11.385,15.979,3.900,5.272
Mon Dec 02 20:51:18 2024,105,-14.827,14.827,7.713,7.713,3.880,33.050,13.412,6.620,31.147,15.309,0.519,27.732,11.190,16.263,3.660,5.658
Mon Dec 02 20:51:18 2024,110,-15.051,15.051,7.483,7.483,3.761,32.780,13.336,6.292,30.016,14.962,0.481,26.679,10.937,16.497,3.457,5.908
Mon Dec 02 20:51:18 2024,115,-15.386,15.386,7.290,7.290,3.694,32.443,13.262,5.877,28.986,14.768,0.276,25.740,10.844,16.621,3.342,6.162
Mon Dec 02 20:51:18 2024,120,-15.712,15.712,7.105,7.105,3.630,32.119,13.194,5.471,28.008,14.584,0.082,24.847,10.758,16.736,3.234,6.405
Mon Dec 02 20:51:18 2024,125,-15.981,15.981,6.961,6.961,3.547,31.827,13.094,5.102,27.188,14.431,-0.119,24.191,10.745,16.825,3.153,6.662
Mon Dec 02 20:51:18 2024,130,-16.248,16.248,6.844,6.844,3.386,31.464,12.866,4.648,26.318,14.280,-0.266,23.749,10.888,16.894,3.094,7.085
Mon Dec 02 20:51:18 2024,135,-16.390,16.390,6.760,6.760,3.206,31.164,12.744,4.238,25.531,14.160,-0.462,23.194,10.899,16.878,3.116,7.381
Mon Dec 02 20:51:18 2024,140,-16.499,16.499,6.684,6.684,2.995,30.854,12.637,3.801,24.712,14.040,-0.689,22.596,10.879,16.828,3.170,7.673
Mon Dec 02 20:51:18 2024,145,-16.581,16.581,6.618,6.618,2.780,30.559,12.545,3.374,23.942,13.924,-0.919,22.059,10.842,16.759,3.242,7.945
Mon Dec 02 20:51:18 2024,150,-16.825,16.825,6.541,6.541,2.598,30.373,12.439,3.011,20.966,13.615,-1.115,21.653,10.733,16.701,3.301,8.185
Mon Dec 02 20:51:18 2024,155,-17.241,17.241,6.448,6.448,2.443,30.291,12.316,2.695,17.261,13.101,-1.288,21.418,10.545,16.653,3.349,8.403
Mon Dec 02 20:51:18 2024,160,-17.378,17.378,6.457,6.457,2.213,29.894,12.118,2.340,17.614,12.762,-1.529,21.549,10.376,16.524,3.478,8.584
Mon Dec 02 20:51:18 2024,165,-17.408,17.408,6.507,6.507,1.993,29.445,11.917,2.033,17.664,12.512,-1.756,18.008,10.228,16.383,3.618,8.716
Mon Dec 02 20:51:18 2024,170,-17.440,17.440,6.555,6.555,1.777,29.006,11.721,1.730,17.488,12.265,-1.980,17.441,10.081,16.244,3.757,8.847
Mon Dec 02 20:51:18 2024,175,-17.649,17.649,6.497,6.497,1.561,28.494,11.424,1.483,17.354,12.001,-1.983,17.318,10.006,16.083,3.918,8.855
Mon Dec 02 20:51:18 2024,180,-17.806,17.806,6.465,6.465,1.359,28.038,11.172,1.240,17.120,11.761,-2.034,17.089,9.920,15.938,4.063,8.888
Mon Dec 02 20:51:18 2024,185,-17.970,17.970,6.499,6.499,1.221,27.448,10.851,0.970,16.599,11.388,-2.009,16.688,9.684,15.817,4.180,8.801
Mon Dec 02 20:51:18 2024,190,-18.110,18.110,6.533,6.533,1.106,26.942,10.578,0.736,16.100,11.067,-1.986,16.307,9.474,15.715,4.275,8.722
Mon Dec 02 20:51:18 2024,195,-18.270,18.270,6.504,6.504,0.887,26.478,10.279,0.291,15.274,10.548,-2.046,15.888,9.258,15.572,4.406,8.600
Mon Dec 02 20:51:18 2024,200,-18.425,18.425,6.454,6.454,0.651,26.078,10.002,-0.239,14.364,10.012,-2.134,15.495,9.057,15.427,4.537,8.474
Mon Dec 02 20:51:18 2024,205,-18.590,18.590,6.434,6.434,0.453,25.760,9.773,-0.697,13.447,9.471,-2.194,15.031,8.762,15.310,4.632,8.273
Mon Dec 02 20:51:18 2024,210,-18.788,18.788,6.465,6.465,0.307,25.546,9.601,-1.173,12.455,8.856,-2.212,14.381,8.266,15.228,4.672,7.916
Mon Dec 02 20:51:18 2024,215,-18.963,18.963,6.492,6.492,0.183,25.363,9.453,-1.601,11.581,8.326,-2.233,13.799,7.834,15.154,4.699,7.607
Mon Dec 02 20:51:18 2024,220,-19.048,19.048,6.435,6.435,0.105,24.990,9.310,-2.112,10.602,7.847,-2.240,12.847,7.339,15.056,4.712,7.306
Mon Dec 02 20:51:18 2024,225,-19.115,19.115,6.377,6.377,-0.016,24.645,9.186,-2.579,9.725,7.433,-2.252,11.957,6.895,14.965,4.708,7.044
Mon Dec 02 20:51:18 2024,230,-19.290,19.290,6.365,6.365,-0.152,24.422,9.099,-3.048,9.127,7.130,-2.270,11.211,6.521,14.886,4.726,6.917
Mon Dec 02 20:51:18 2024,235,-19.467,19.467,6.376,6.376,-0.293,24.318,9.052,-3.391,8.807,6.955,-2.284,10.728,6.277,14.835,4.752,6.882
Mon Dec 02 20:51:18 2024,240,-19.657,19.657,6.387,6.387,-0.446,24.212,9.002,-3.759,8.459,6.768,-2.301,10.207,6.015,14.779,4.780,6.845
Mon Dec 02 20:51:18 2024,245,-19.838,19.838,6.515,6.515,-0.254,24.246,9.122,-3.938,8.031,6.680,-2.454,9.609,5.824,14.720,4.699,6.712
Mon Dec 02 20:51:18 2024,250,-19.998,19.998,6.608,6.608,-0.140,24.258,9.202,-4.125,7.668,6.588,-2.572,9.098,5.646,14.666,4.634,6.608
Mon Dec 02 20:51:18 2024,255,-20.218,20.218,6.655,6.655,-0.229,24.132,9.196,-4.429,7.404,6.410,-2.800,8.793,5.444,14.564,4.679,6.488
Mon Dec 02 20:51:18 2024,260,-20.447,20.447,6.701,6.701,-0.338,23.997,9.184,-4.749,7.135,6.223,-3.043,8.492,5.236,14.454,4.731,6.362
Mon Dec 02 20:51:18 2024,265,-20.634,20.634,6.882,6.882,-0.485,23.705,9.090,-4.971,6.835,6.134,-3.270,8.256,5.157,14.389,4.716,6.286
Mon Dec 02 20:51:18 2024,270,-20.795,20.795,7.109,7.109,-0.642,23.373,8.969,-5.142,6.538,6.086,-3.480,8.057,5.133,14.344,4.672,6.233
Mon Dec 02 20:51:18 2024,275,-20.939,20.939,7.308,7.308,-0.780,23.096,8.863,-5.294,6.276,6.043,-3.665,7.880,5.112,14.305,4.631,6.186
Mon Dec 02 20:51:18 2024,280,-21.233,21.233,7.362,7.362,-0.974,22.937,8.806,-5.641,5.864,5.820,-3.930,7.734,5.011,14.361,4.580,6.225
Mon Dec 02 20:51:18 2024,285,-21.425,21.425,7.418,7.418,-1.106,22.825,8.760,-5.867,5.586,5.682,-4.110,7.624,4.950,14.390,4.545,6.243
Mon Dec 02 20:51:18 2024,290,-21.616,21.616,7.347,7.347,-1.200,22.765,8.710,-6.024,5.336,5.551,-4.151,7.679,4.945,14.522,4.388,6.244
Mon Dec 02 20:51:18 2024,295,-21.787,21.787,7.263,7.263,-1.279,22.722,8.665,-6.154,5.118,5.436,-4.166,7.753,4.949,14.657,4.227,6.242
Mon Dec 02 20:51:18 2024,300,-21.882,21.882,7.114,7.114,-1.389,22.578,8.541,-6.375,4.754,5.224,-4.193,7.865,4.918,14.747,4.085,6.159
Mon Dec 02 20:51:18 2024,305,-21.898,21.898,6.980,6.980,-1.479,22.436,8.416,-6.570,4.436,5.030,-4.216,7.957,4.878,14.777,4.005,6.058
Mon Dec 02 20:51:18 2024,310,-21.914,21.914,6.852,6.852,-1.564,22.318,8.296,-6.758,4.131,4.845,-4.240,8.045,4.840,14.807,3.927,5.964
Mon Dec 02 20:51:18 2024,315,-21.984,21.984,6.746,6.746,-1.654,22.286,8.268,-6.790,4.088,4.888,-4.004,8.558,5.042,15.089,3.636,5.929
Mon Dec 02 20:51:18 2024,320,-22.034,22.034,6.658,6.658,-1.727,22.260,8.234,-6.836,4.021,4.894,-3.851,8.914,5.174,15.284,3.428,5.894
Mon Dec 02 20:51:18 2024,325,-22.010,22.010,6.636,6.636,-1.861,22.251,8.239,-6.902,3.864,4.906,-3.561,9.671,5.488,15.449,3.306,5.939
Mon Dec 02 20:51:18 2024,330,-21.978,21.978,6.622,6.622,-1.996,22.265,8.248,-6.967,3.702,4.918,-3.277,10.437,5.811,15.602,3.202,5.991
Mon Dec 02 20:51:18 2024,335,-21.934,21.934,6.581,6.581,-2.100,22.278,8.238,-6.983,3.576,4.877,-2.893,11.454,6.146,15.713,3.084,5.924
Mon Dec 02 20:51:18 2024,340,-21.891,21.891,6.528,6.528,-2.167,22.288,8.216,-6.964,3.493,4.810,-2.518,12.450,6.428,15.777,2.978,5.796
Mon Dec 02 20:51:18 2024,345,-21.856,21.856,6.471,6.471,-2.211,22.292,8.241,-6.897,3.474,4.813,-2.170,13.514,6.773,15.853,2.861,5.698
Mon Dec 02 20:51:18 2024,350,-21.831,21.831,6.396,6.396,-2.223,22.273,8.357,-6.729,3.568,4.947,-1.803,14.907,7.302,15.963,2.703,5.630
Mon Dec 02 20:51:18 2024,355,-21.806,21.806,6.316,6.316,-2.232,22.259,8.486,-6.544,3.675,5.100,-1.430,16.383,7.866,16.083,2.532,5.562
Mon Dec 02 20:51:18 2024,360,-21.793,21.793,6.244,6.244,-2.338,22.341,8.692,-6.451,3.613,5.294,-1.178,17.852,8.560,16.248,2.333,5.599
Mon Dec 02 20:51:18 2024,365,-21.784,21.784,6.193,6.193,-2.414,22.428,8.838,-6.387,3.565,5.432,-1.022,19.030,9.029,16.366,2.191,5.628
Mon Dec 02 20:51:18 2024,370,-21.775,21.775,6.142,6.142,-2.489,22.514,8.985,-6.323,3.517,5.571,-0.867,20.208,9.499,16.485,2.049,5.656
Mon Dec 02 20:51:18 2024,375,-21.766,21.766,6.092,6.092,-2.565,22.601,9.131,-6.258,3.469,5.709,-0.711,21.386,9.968,16.603,1.907,5.685
Mon Dec 02 20:51:18 2024,380,-21.758,21.758,6.050,6.050,-2.627,22.672,9.252,-6.206,3.430,5.824,-0.583,22.354,10.355,16.701,1.789,5.708
Mon Dec 02 20:51:18 2024,385,-21.758,21.758,6.047,6.047,-2.631,22.678,9.260,-6.201,3.427,5.832,-0.575,22.411,10.380,16.707,1.782,5.710
Mon Dec 02 20:51:18 2024,390,-21.757,21.757,6.046,6.046,-2.632,22.679,9.261,-6.200,3.427,5.833,-0.573,22.419,10.383,16.708,1.781,5.710
Mon Dec 02 20:51:18 2024,395,-21.756,21.756,6.046,6.046,-2.632,22.679,9.261,-6.200,3.427,5.834,-0.572,22.425,10.386,16.708,1.781,5.710
Mon Dec 02 20:51:18 2024,400,-21.755,21.755,6.046,6.046,-2.632,22.679,9.261,-6.199,3.427,5.834,-0.572,22.426,10.386,16.706,1.782,5.710
Mon Dec 02 20:51:18 2024,405,-21.652,21.652,6.352,6.352,-2.682,17.231,9.346,-6.175,3.375,5.697,-0.338,23.724,10.788,16.790,1.518,5.587
Mon Dec 02 20:51:18 2024,410,-21.654,21.654,6.438,6.438,-2.722,17.167,9.463,-6.112,3.378,5.739,-0.097,24.812,11.253,16.858,1.394,5.586
Mon Dec 02 20:51:18 2024,415,-21.696,21.696,6.578,6.578,-2.764,17.104,9.636,-6.004,3.426,5.805,0.402,26.474,12.006,16.931,1.253,5.607
Mon Dec 02 20:51:18 2024,420,-21.894,21.894,6.938,6.938,-2.819,22.846,10.158,-5.044,4.422,6.784,1.500,30.546,15.494,17.508,0.992,6.833
Mon Dec 02 20:51:18 2024,425,-22.151,22.151,7.348,7.348,-2.864,22.920,10.762,-3.756,5.802,8.154,2.764,35.314,20.416,18.294,0.659,8.854
Mon Dec 02 20:51:18 2024,430,-22.242,22.242,7.337,7.337,-2.749,22.977,10.986,-2.788,6.630,8.621,3.589,37.865,23.913,18.971,0.361,10.891
Mon Dec 02 20:51:18 2024,435,-22.272,22.272,7.215,7.215,-2.613,23.052,11.064,-2.100,7.132,8.756,4.140,39.337,26.457,19.481,0.091,12.580
Mon Dec 02 20:51:18 2024,440,-22.352,22.352,7.096,7.096,-2.526,23.127,11.124,-1.415,7.744,8.751,4.944,40.588,28.958,19.811,-0.080,14.292
Mon Dec 02 20:51:18 2024,445,-22.456,22.456,6.998,6.998,-2.485,23.168,11.164,-0.852,8.330,8.650,5.830,41.530,31.178,19.972,-0.151,15.761
Mon Dec 02 20:51:18 2024,450,-22.576,22.576,6.961,6.961,-2.438,23.213,11.102,0.083,9.004,8.410,6.972,42.978,34.134,19.987,-0.118,17.320
Mon Dec 02 20:51:18 2024,455,-22.681,22.681,7.127,7.127,-2.396,23.237,10.753,0.918,9.644,7.886,8.259,45.172,37.632,19.571,0.243,18.310
Mon Dec 02 20:51:18 2024,460,-22.761,22.761,7.267,7.267,-2.364,23.255,10.472,1.562,10.082,7.467,9.356,47.055,41.018,19.233,0.526,19.046
Mon Dec 02 20:51:18 2024,465,-22.697,22.697,7.659,7.659,-2.484,23.321,10.172,2.004,10.621,7.485,9.286,47.955,44.203,18.938,0.792,19.150
Mon Dec 02 20:51:18 2024,470,-22.595,22.595,8.081,8.081,-2.637,23.397,9.907,2.309,11.120,7.646,8.797,48.411,47.169,18.701,1.014,19.038
Mon Dec 02 20:51:18 2024,475,-22.578,22.578,8.317,8.317,-2.613,23.357,9.859,2.673,11.406,7.958,8.840,47.295,48.205,18.509,1.087,18.289
Mon Dec 02 20:51:18 2024,480,-22.625,22.625,8.431,8.431,-2.458,23.228,9.969,3.109,11.538,8.407,9.309,44.878,47.167,18.330,1.020,17.071
Mon Dec 02 20:51:18 2024,485,-22.668,22.668,8.534,8.534,-2.318,23.113,10.068,3.500,11.631,8.820,9.740,42.683,45.758,18.165,0.918,16.038
Mon Dec 02 20:51:18 2024,490,-22.702,22.702,8.612,8.612,-2.211,23.027,10.146,3.801,11.685,9.141,10.073,41.004,44.352,18.034,0.817,15.283
Mon Dec 02 20:51:18 2024,495,-22.718,22.718,8.652,8.652,-2.157,22.984,10.185,3.953,11.707,9.305,10.241,40.161,43.527,17.967,0.758,14.913
Mon Dec 02 20:51:18 2024,500,-22.850,22.850,8.782,8.782,-1.811,23.405,10.288,4.794,12.090,9.277,10.922,40.640,42.488,17.673,1.384,15.150
Mon Dec 02 20:51:18 2024,505,-22.955,22.955,8.898,8.898,-1.539,23.712,10.386,5.470,12.262,9.378,11.497,40.384,41.130,17.426,1.764,15.035
Mon Dec 02 20:51:18 2024,510,-23.044,23.044,9.065,9.065,-1.416,24.010,10.418,5.942,12.349,9.378,11.855,40.396,40.282,17.294,1.959,14.794
Mon Dec 02 20:51:18 2024,515,-23.177,23.177,9.430,9.430,-1.430,24.539,10.348,6.456,12.530,9.055,12.122,41.602,40.338,17.255,2.151,14.535
Mon Dec 02 20:51:18 2024,520,-23.275,23.275,9.696,9.696,-1.435,24.932,10.299,6.841,12.541,8.822,12.331,42.464,40.342,17.224,2.283,14.341
Mon Dec 02 20:51:18 2024,525,-23.362,23.362,9.946,9.946,-1.432,24.955,10.525,7.285,12.316,8.897,12.066,42.815,40.181,17.282,2.377,14.656
Mon Dec 02 20:51:18 2024,530,-23.443,23.443,10.181,10.181,-1.431,25.004,10.713,7.694,12.068,8.943,11.858,43.189,40.036,17.331,2.442,14.910
Mon Dec 02 20:51:18 2024,535,-23.376,23.376,10.362,10.362,-1.325,24.878,10.811,8.041,11.788,9.044,11.409,42.743,38.844,17.209,2.631,14.995
Mon Dec 02 20:51:18 2024,540,-23.272,23.272,10.550,10.550,-1.190,24.708,10.901,8.410,11.471,9.166,10.874,42.096,37.359,17.041,2.856,15.045
Mon Dec 02 20:51:18 2024,545,-23.168,23.168,10.725,10.725,-1.049,24.559,11.014,8.776,11.148,9.315,10.388,41.141,35.582,16.772,3.173,15.162
Mon Dec 02 20:51:18 2024,550,-23.057,23.057,10.892,10.892,-0.890,24.437,11.180,9.170,10.794,9.524,9.948,39.577,33.138,16.304,3.682,15.410
Mon Dec 02 20:51:18 2024,555,-22.947,22.947,11.062,11.062,-0.731,24.313,11.341,9.567,10.421,9.731,9.501,38.091,30.824,15.855,4.146,15.635
Mon Dec 02 20:51:18 2024,560,-22.957,22.957,11.254,11.254,-0.555,24.245,11.308,9.820,10.180,9.782,9.006,36.628,28.263,15.501,4.488,15.656
Mon Dec 02 20:51:18 2024,565,-22.956,22.956,11.426,11.426,-0.399,24.183,11.295,10.065,9.924,9.842,8.563,35.324,26.078,15.175,4.780,15.689
Mon Dec 02 20:51:18 2024,570,-22.923,22.923,11.514,11.514,-0.334,24.264,11.367,10.212,9.741,9.994,8.432,34.552,24.559,14.938,4.930,15.913
Mon Dec 02 20:51:18 2024,575,-22.887,22.887,11.552,11.552,-0.317,24.375,11.451,10.291,9.617,10.143,8.440,34.154,23.656,14.789,4.972,16.152
Mon Dec 02 20:51:18 2024,580,-22.851,22.851,11.589,11.589,-0.299,24.482,11.534,10.369,9.480,10.288,8.445,33.773,22.826,14.643,4.977,16.388
Mon Dec 02 20:51:18 2024,585,-22.926,22.926,11.895,11.895,-0.229,24.381,11.711,10.422,9.393,10.524,7.426,32.569,21.993,14.388,15.022,16.605
Mon Dec 02 20:51:18 2024,590,-22.970,22.970,12.110,12.110,-0.180,24.332,11.846,10.474,9.302,10.712,6.738,31.698,21.339,14.192,34.817,16.794
Mon Dec 02 20:51:18 2024,595,-23.006,23.006,12.385,12.385,0.021,24.557,12.005,10.672,9.008,10.969,5.984,31.256,21.251,14.064,34.909,17.208
Mon Dec 02 20:51:18 2024,600,-23.041,23.041,12.636,12.636,0.179,24.757,12.151,10.846,20.060,11.204,5.301,30.860,21.156,13.944,35.016,17.579
Mon Dec 02 20:51:18 2024,605,-23.086,23.086,13.024,13.024,0.434,24.950,12.389,11.029,31.608,11.638,4.802,30.527,21.249,13.819,35.110,17.996
Mon Dec 02 20:51:18 2024,610,-23.129,23.129,13.384,13.384,0.679,25.116,12.613,11.182,31.925,12.060,4.443,30.272,21.380,13.714,35.191,18.358
Mon Dec 02 20:51:18 2024,615,-23.173,23.173,13.750,13.750,0.958,25.361,12.849,11.411,32.418,12.564,3.782,30.009,21.501,13.631,35.352,18.808
Mon Dec 02 20:51:18 2024,620,-23.226,23.226,14.145,14.145,1.326,25.780,13.121,11.811,33.328,13.270,2.440,29.798,21.597,13.591,35.686,19.471
Mon Dec 02 20:51:18 2024,625,-23.266,23.266,14.442,14.442,1.605,26.107,13.328,12.114,34.067,13.806,1.441,29.771,21.655,13.560,35.962,19.978
Mon Dec 02 20:51:18 2024,630,-23.278,23.278,14.698,14.698,1.895,26.384,13.517,12.389,34.826,14.322,0.398,30.586,22.158,13.398,36.095,20.445
Mon Dec 02 20:51:18 2024,635,-23.290,23.290,14.930,14.930,2.158,26.640,13.690,12.639,35.530,14.790,-0.542,31.349,22.569,13.254,36.229,20.870
Mon Dec 02 20:51:18 2024,640,-23.268,23.268,15.140,15.140,2.403,26.951,13.767,12.947,36.490,15.348,-1.628,32.342,22.930,13.062,36.586,21.548
Mon Dec 02 20:51:18 2024,645,-23.234,23.234,15.300,15.300,2.592,27.226,13.786,13.218,37.389,15.838,-2.654,33.265,23.176,12.882,37.000,22.212
Mon Dec 02 20:51:18 2024,650,-23.202,23.202,15.455,15.455,2.776,27.494,13.805,13.479,38.289,16.316,-3.649,34.202,23.378,12.702,37.437,22.865
Mon Dec 02 20:51:18 2024,655,-22.978,22.978,15.618,15.618,2.819,27.337,13.917,13.963,39.537,16.998,-4.862,34.987,23.683,12.209,37.882,24.167
Mon Dec 02 20:51:18 2024,660,-22.797,22.797,15.740,15.740,2.902,27.312,14.010,14.422,40.778,17.652,-6.040,35.948,23.938,11.758,38.369,25.313
Mon Dec 02 20:51:18 2024,665,-22.678,22.678,15.638,15.638,3.052,27.572,14.078,14.941,42.071,18.288,-7.150,37.343,24.187,11.354,38.704,25.987
Mon Dec 02 20:51:18 2024,670,-22.583,22.583,15.526,15.526,3.188,27.828,14.136,15.397,43.207,18.838,-8.096,38.582,24.356,11.003,38.999,26.532
Mon Dec 02 20:51:18 2024,675,-22.432,22.432,15.324,15.324,3.253,27.923,14.109,15.680,44.029,19.229,-8.619,39.595,24.315,10.722,39.571,26.968
Mon Dec 02 20:51:18 2024,680,-22.259,22.259,15.086,15.086,3.294,27.962,14.052,15.902,44.755,19.576,-9.000,40.524,24.172,10.453,40.274,27.374
Mon Dec 02 20:51:18 2024,685,-22.096,22.096,14.859,14.859,3.331,28.000,13.997,16.111,45.453,19.911,-9.363,41.387,24.003,10.186,40.969,27.764
Mon Dec 02 20:51:18 2024,690,-21.976,21.976,14.520,14.520,3.537,28.076,14.016,16.554,46.166,20.508,-9.238,42.338,24.086,10.229,41.470,27.784
Mon Dec 02 20:51:18 2024,695,-21.889,21.889,14.294,14.294,3.662,28.129,14.022,16.840,46.672,20.908,-9.210,42.982,24.075,10.221,41.851,27.842
Mon Dec 02 20:51:18 2024,700,-21.740,21.740,13.680,13.680,3.780,28.246,14.034,17.052,47.048,21.304,-9.001,43.477,23.868,9.993,42.405,27.876
Mon Dec 02 20:51:18 2024,705,-21.609,21.609,13.108,13.108,3.877,28.355,14.047,17.222,47.354,21.649,-8.805,43.877,23.655,9.765,42.906,27.901
Mon Dec 02 20:51:18 2024,710,-21.469,21.469,12.557,12.557,3.958,28.441,14.102,17.401,47.704,22.219,-8.442,44.246,23.724,9.534,43.313,28.053
Mon Dec 02 20:51:18 2024,715,-21.342,21.342,12.100,12.100,4.010,28.490,14.187,17.565,48.051,22.931,-7.966,44.546,24.056,9.330,43.565,28.308
Mon Dec 02 20:51:18 2024,720,-21.207,21.207,11.686,11.686,4.042,28.560,14.274,17.652,48.385,23.615,-7.471,44.886,24.418,9.145,43.879,28.597
Mon Dec 02 20:51:18 2024,725,-21.012,21.012,11.373,11.373,4.010,28.693,14.393,17.512,48.739,24.359,-6.751,45.345,25.101,9.006,44.363,29.092
Mon Dec 02 20:51:18 2024,730,-20.830,20.830,11.068,11.068,3.977,28.818,14.508,17.370,49.081,25.098,-6.075,45.833,25.753,8.859,44.827,29.564
Mon Dec 02 20:51:18 2024,735,-20.832,20.832,10.820,10.820,4.050,29.206,14.654,17.313,49.448,25.873,-5.678,46.573,26.274,8.825,45.225,29.876
Mon Dec 02 20:51:18 2024,740,-21.047,21.047,10.578,10.578,4.266,29.996,14.878,17.345,49.936,26.892,-5.496,47.755,26.766,8.917,45.646,30.086
Mon Dec 02 20:51:18 2024,745,-21.157,21.157,10.470,10.470,4.400,30.414,15.008,17.230,50.232,27.659,-5.293,48.777,27.406,8.808,46.092,30.504
Mon Dec 02 20:51:18 2024,750,-21.248,21.248,10.520,10.520,4.523,30.636,15.074,16.963,50.393,28.309,-5.131,49.973,28.337,8.500,46.657,31.198
Mon Dec 02 20:51:18 2024,755,-21.330,21.330,10.535,10.535,4.630,30.858,15.141,16.754,50.556,28.906,-5.006,50.970,29.078,8.271,47.125,31.745
Mon Dec 02 20:51:18 2024,760,-21.466,21.466,10.557,10.557,4.588,31.210,15.430,16.634,51.084,29.470,-5.012,52.432,30.268,7.996,47.882,32.571
Mon Dec 02 20:51:18 2024,765,-21.618,21.618,10.581,10.581,4.482,31.603,15.805,16.560,51.754,29.996,-5.089,54.033,31.605,7.717,48.735,33.485
Mon Dec 02 20:51:18 2024,770,-21.750,21.750,10.611,10.611,4.448,31.795,16.084,16.428,52.080,30.394,-4.928,54.961,32.594,7.442,49.089,34.033
Mon Dec 02 20:51:18 2024,775,-21.881,21.881,10.647,10.647,4.432,31.881,16.348,16.279,52.253,30.696,-4.644,55.538,33.444,7.164,49.172,34.389
Mon Dec 02 20:51:18 2024,780,-21.997,21.997,10.690,10.690,4.466,32.030,16.555,16.183,52.401,30.890,-4.466,56.016,34.029,6.965,49.314,34.637
Mon Dec 02 20:51:18 2024,785,-22.111,22.111,10.762,10.762,4.631,32.276,16.676,16.163,52.411,30.818,-4.315,56.124,34.047,6.881,49.419,34.573
Mon Dec 02 20:51:18 2024,790,-22.215,22.215,10.820,10.820,4.754,32.478,16.803,16.130,52.451,30.809,-4.188,56.298,34.183,6.784,49.524,34.579
Mon Dec 02 20:51:18 2024,795,-22.178,22.178,10.788,10.788,4.907,32.459,16.735,16.111,52.149,30.669,-3.967,55.833,33.808,6.651,49.332,34.344
