Timestamp,Millis,thumb_tm_aa,thumb_tm_flex,thumb_mcp_aa,thumb_mcp_flex,index_mcp_aa,index_mcp_flex,index_pip,middle_mcp_aa,middle_mcp_flex,middle_pip,ring_mcp_aa,ring_mcp_flex,ring_pip,little_mcp_aa,little_mcp_flex,little_pip
Mon Dec 02 21:19:24 2024,285,-19.546,-19.546,-2.992,-2.992,-5.162,14.610,6.506,1.570,17.865,9.369,-5.298,8.689,5.843,12.588,5.800,3.816
Mon Dec 02 21:19:24 2024,290,-19.498,-19.498,-3.003,-3.003,-5.118,14.656,6.578,1.616,17.842,9.474,-5.262,8.726,5.950,12.627,5.785,3.903
Mon Dec 02 21:19:24 2024,295,-19.454,-19.454,-2.873,-2.873,-5.029,14.735,6.671,1.697,17.762,9.592,-5.157,8.885,6.162,12.656,5.805,4.089
Mon Dec 02 21:19:24 2024,300,-19.426,-19.426,-2.778,-2.778,-4.977,14.776,6.731,1.754,17.716,9.673,-5.083,9.020,6.314,12.678,5.824,4.221
Mon Dec 02 21:19:24 2024,305,-19.459,-19.459,-2.770,-2.770,-5.069,14.662,6.681,1.736,17.802,9.635,-5.084,9.177,6.310,12.686,5.862,4.214
Mon Dec 02 21:19:24 2024,310,-19.487,-19.487,-2.762,-2.762,-5.147,14.566,6.638,1.721,17.872,9.602,-5.084,9.310,6.306,12.693,5.893,4.208
Mon Dec 02 21:19:24 2024,315,-19.492,-19.492,-2.751,-2.751,-5.157,14.550,6.558,1.717,17.869,9.537,-5.085,9.338,6.264,12.645,5.922,4.169
Mon Dec 02 21:19:24 2024,320,-19.480,-19.480,-2.736,-2.736,-5.114,14.596,6.453,1.722,17.811,9.450,-5.085,9.286,6.193,12.557,5.948,4.107
Mon Dec 02 21:19:24 2024,325,-19.468,-19.468,-2.745,-2.745,-5.084,14.637,6.387,1.730,17.779,9.386,-5.077,9.292,6.145,12.521,5.954,4.056
Mon Dec 02 21:19:24 2024,330,-19.458,-19.458,-2.813,-2.813,-5.084,14.666,6.412,1.747,17.812,9.372,-5.047,9.446,6.149,12.615,5.916,4.026
Mon Dec 02 21:19:24 2024,335,-19.446,-19.446,-2.860,-2.860,-5.090,14.677,6.427,1.748,17.837,9.352,-5.029,9.559,6.147,12.693,5.877,4.002
Mon Dec 02 21:19:24 2024,340,-19.438,-19.438,-2.849,-2.849,-5.115,14.639,6.418,1.707,17.847,9.313,-5.047,9.555,6.131,12.723,5.842,4.000
Mon Dec 02 21:19:24 2024,345,-19.432,-19.432,-2.796,-2.796,-5.150,14.568,6.391,1.639,17.839,9.264,-5.087,9.469,6.105,12.718,5.813,4.012
Mon Dec 02 21:19:24 2024,350,-19.441,-19.441,-2.758,-2.758,-5.167,14.537,6.380,1.597,17.837,9.231,-5.109,9.428,6.088,12.719,5.774,4.024
Mon Dec 02 21:19:24 2024,355,-19.472,-19.472,-2.750,-2.750,-5.152,14.578,6.396,1.606,17.853,9.229,-5.098,9.463,6.085,12.728,5.727,4.031
Mon Dec 02 21:19:24 2024,360,-19.500,-19.500,-2.742,-2.742,-5.136,14.614,6.408,1.616,17.864,9.226,-5.091,9.484,6.077,12.737,5.686,4.032
Mon Dec 02 21:19:24 2024,365,-19.527,-19.527,-2.733,-2.733,-5.098,14.662,6.396,1.649,17.851,9.197,-5.107,9.394,5.991,12.765,5.631,3.958
Mon Dec 02 21:19:24 2024,370,-19.554,-19.554,-2.724,-2.724,-5.054,14.712,6.378,1.688,17.831,9.162,-5.130,9.272,5.886,12.797,5.575,3.866
Mon Dec 02 21:19:24 2024,375,-19.567,-19.567,-2.742,-2.742,-5.036,14.718,6.392,1.707,17.809,9.195,-5.165,9.137,5.844,12.791,5.560,3.841
Mon Dec 02 21:19:24 2024,380,-19.555,-19.555,-2.815,-2.815,-5.062,14.641,6.468,1.692,17.778,9.368,-5.228,8.949,5.910,12.709,5.620,3.942
Mon Dec 02 21:19:24 2024,385,-19.546,-19.546,-2.875,-2.875,-5.083,14.575,6.531,1.679,17.751,9.511,-5.279,8.794,5.965,12.643,5.669,4.026
Mon Dec 02 21:19:24 2024,390,-19.578,-19.578,-2.852,-2.852,-5.148,14.463,6.504,1.608,17.745,9.506,-5.321,8.753,6.003,12.608,5.688,4.096
Mon Dec 02 21:19:24 2024,395,-19.609,-19.609,-2.824,-2.824,-5.204,14.366,6.471,1.544,17.740,9.481,-5.352,8.738,6.031,12.586,5.700,4.150
Mon Dec 02 21:19:24 2024,400,-19.614,-19.614,-2.807,-2.807,-5.214,14.363,6.467,1.544,17.755,9.487,-5.332,8.805,6.068,12.614,5.691,4.178
Mon Dec 02 21:19:24 2024,405,-19.586,-19.586,-2.801,-2.801,-5.165,14.478,6.502,1.629,17.795,9.536,-5.240,8.995,6.126,12.712,5.655,4.177
Mon Dec 02 21:19:24 2024,410,-19.562,-19.562,-2.795,-2.795,-5.126,14.568,6.530,1.710,17.816,9.582,-5.153,9.160,6.180,12.790,5.614,4.177
Mon Dec 02 21:19:24 2024,415,-19.559,-19.559,-2.783,-2.783,-5.133,14.567,6.527,1.770,17.804,9.611,-5.092,9.215,6.219,12.775,5.560,4.176
Mon Dec 02 21:19:24 2024,420,-19.559,-19.559,-2.771,-2.771,-5.148,14.550,6.519,1.826,17.783,9.638,-5.033,9.251,6.254,12.744,5.501,4.176
Mon Dec 02 21:19:24 2024,425,-19.546,-19.546,-2.799,-2.799,-5.137,14.583,6.528,1.855,17.800,9.636,-5.033,9.334,6.265,12.757,5.494,4.163
Mon Dec 02 21:19:24 2024,430,-19.526,-19.526,-2.855,-2.855,-5.110,14.648,6.548,1.865,17.839,9.614,-5.073,9.446,6.258,12.800,5.521,4.141
Mon Dec 02 21:19:24 2024,435,-19.512,-19.512,-2.893,-2.893,-5.083,14.707,6.574,1.881,17.868,9.610,-5.102,9.557,6.267,12.842,5.543,4.139
Mon Dec 02 21:19:24 2024,440,-19.532,-19.532,-2.807,-2.807,-5.062,14.734,6.637,1.938,17.854,9.723,-5.058,9.651,6.371,12.874,5.543,4.258
Mon Dec 02 21:19:24 2024,445,-19.554,-19.554,-2.722,-2.722,-5.040,14.762,6.699,1.996,17.836,9.838,-5.012,9.751,6.478,12.912,5.541,4.386
Mon Dec 02 21:19:24 2024,450,-19.561,-19.561,-2.737,-2.737,-5.027,14.777,6.691,1.998,17.844,9.844,-4.999,9.810,6.505,12.978,5.528,4.457
Mon Dec 02 21:19:24 2024,455,-19.562,-19.562,-2.818,-2.818,-5.017,14.788,6.638,1.966,17.870,9.784,-5.003,9.854,6.485,13.071,5.504,4.505
Mon Dec 02 21:19:24 2024,460,-19.568,-19.568,-2.862,-2.862,-5.013,14.788,6.598,1.940,17.888,9.732,-5.015,9.870,6.462,13.131,5.485,4.531
Mon Dec 02 21:19:24 2024,465,-19.603,-19.603,-2.746,-2.746,-5.038,14.731,6.605,1.936,17.865,9.704,-5.072,9.759,6.415,13.042,5.487,4.460
Mon Dec 02 21:19:24 2024,470,-19.632,-19.632,-2.648,-2.648,-5.059,14.682,6.613,1.932,17.845,9.681,-5.119,9.664,6.376,12.963,5.483,4.398
Mon Dec 02 21:19:24 2024,475,-19.612,-19.612,-2.714,-2.714,-5.047,14.692,6.663,1.920,17.821,9.682,-5.100,9.694,6.417,12.950,5.428,4.355
Mon Dec 02 21:19:24 2024,480,-19.563,-19.563,-2.871,-2.871,-5.016,14.738,6.737,1.900,17.793,9.696,-5.042,9.794,6.502,12.973,5.341,4.322
Mon Dec 02 21:19:24 2024,485,-19.545,-19.545,-2.929,-2.929,-4.997,14.746,6.775,1.895,17.765,9.725,-5.027,9.791,6.539,12.973,5.289,4.309
Mon Dec 02 21:19:24 2024,490,-19.576,-19.576,-2.830,-2.830,-4.993,14.686,6.762,1.914,17.730,9.791,-5.087,9.600,6.506,12.934,5.275,4.324
Mon Dec 02 21:19:24 2024,495,-19.608,-19.608,-2.735,-2.735,-4.991,14.619,6.747,1.928,17.696,9.847,-5.147,9.412,6.471,12.893,5.262,4.336
Mon Dec 02 21:19:24 2024,500,-19.641,-19.641,-2.731,-2.731,-5.035,14.571,6.666,1.860,17.726,9.717,-5.196,9.336,6.397,12.843,5.276,4.316
Mon Dec 02 21:19:24 2024,505,-19.675,-19.675,-2.746,-2.746,-5.090,14.526,6.568,1.771,17.766,9.543,-5.244,9.281,6.311,12.790,5.296,4.287
Mon Dec 02 21:19:24 2024,510,-19.695,-19.695,-2.734,-2.734,-5.109,14.514,6.508,1.710,17.784,9.426,-5.284,9.225,6.243,12.760,5.303,4.266
Mon Dec 02 21:19:24 2024,515,-19.691,-19.691,-2.667,-2.667,-5.065,14.564,6.510,1.688,17.770,9.389,-5.318,9.158,6.192,12.772,5.284,4.257
Mon Dec 02 21:19:24 2024,520,-19.681,-19.681,-2.622,-2.622,-5.024,14.612,6.518,1.680,17.751,9.370,-5.330,9.117,6.161,12.790,5.264,4.253
Mon Dec 02 21:19:24 2024,525,-19.638,-19.638,-2.688,-2.688,-4.982,14.663,6.572,1.750,17.697,9.439,-5.233,9.200,6.234,12.842,5.223,4.277
Mon Dec 02 21:19:24 2024,530,-19.581,-19.581,-2.785,-2.785,-4.933,14.723,6.643,1.847,17.627,9.537,-5.100,9.321,6.338,12.911,5.171,4.311
Mon Dec 02 21:19:24 2024,535,-19.556,-19.556,-2.810,-2.810,-4.937,14.732,6.693,1.896,17.614,9.584,-5.060,9.378,6.378,12.940,5.165,4.343
Mon Dec 02 21:19:24 2024,540,-19.562,-19.562,-2.760,-2.760,-5.002,14.683,6.736,1.909,17.665,9.587,-5.112,9.385,6.356,12.934,5.208,4.383
Mon Dec 02 21:19:24 2024,545,-19.567,-19.567,-2.720,-2.720,-5.053,14.645,6.770,1.921,17.705,9.591,-5.154,9.391,6.339,12.930,5.243,4.415
Mon Dec 02 21:19:24 2024,550,-19.562,-19.562,-2.738,-2.738,-5.008,14.702,6.752,1.977,17.723,9.666,-5.146,9.408,6.338,12.974,5.227,4.365
Mon Dec 02 21:19:24 2024,555,-19.557,-19.557,-2.756,-2.756,-4.961,14.761,6.733,2.036,17.733,9.744,-5.138,9.425,6.337,13.019,5.210,4.313
Mon Dec 02 21:19:24 2024,560,-19.569,-19.569,-2.731,-2.731,-4.950,14.776,6.697,2.053,17.723,9.750,-5.128,9.394,6.336,13.039,5.165,4.309
Mon Dec 02 21:19:24 2024,565,-19.598,-19.598,-2.665,-2.665,-4.970,14.752,6.642,2.033,17.697,9.693,-5.116,9.316,6.334,13.038,5.092,4.348
Mon Dec 02 21:19:24 2024,570,-19.619,-19.619,-2.620,-2.620,-4.982,14.742,6.610,2.022,17.680,9.652,-5.104,9.278,6.330,13.039,5.040,4.378
Mon Dec 02 21:19:24 2024,575,-19.619,-19.619,-2.649,-2.649,-4.970,14.780,6.656,2.039,17.707,9.668,-5.082,9.392,6.322,13.048,5.074,4.381
Mon Dec 02 21:19:24 2024,580,-19.618,-19.618,-2.678,-2.678,-4.958,14.817,6.701,2.055,17.730,9.682,-5.060,9.502,6.316,13.056,5.106,4.384
Mon Dec 02 21:19:24 2024,585,-19.625,-19.625,-2.650,-2.650,-4.953,14.832,6.763,2.074,17.736,9.759,-5.020,9.576,6.380,13.072,5.107,4.387
Mon Dec 02 21:19:24 2024,590,-19.636,-19.636,-2.590,-2.590,-4.953,14.833,6.829,2.092,17.731,9.867,-4.971,9.621,6.481,13.091,5.088,4.388
Mon Dec 02 21:19:24 2024,595,-19.632,-19.632,-2.584,-2.584,-4.947,14.836,6.849,2.109,17.707,9.905,-4.954,9.596,6.504,13.098,5.052,4.359
Mon Dec 02 21:19:24 2024,600,-19.603,-19.603,-2.667,-2.667,-4.931,14.840,6.789,2.122,17.652,9.824,-4.991,9.454,6.395,13.088,4.991,4.280
Mon Dec 02 21:19:24 2024,605,-19.574,-19.574,-2.753,-2.753,-4.915,14.844,6.726,2.133,17.597,9.734,-5.033,9.315,6.280,13.076,4.933,4.206
Mon Dec 02 21:19:24 2024,610,-19.593,-19.593,-2.795,-2.795,-4.953,14.801,6.685,2.095,17.624,9.704,-5.058,9.288,6.266,13.067,4.977,4.218
Mon Dec 02 21:19:24 2024,615,-19.642,-19.642,-2.806,-2.806,-5.022,14.732,6.659,2.028,17.702,9.710,-5.072,9.334,6.316,13.060,5.081,4.283
Mon Dec 02 21:19:24 2024,620,-19.662,-19.662,-2.806,-2.806,-5.044,14.717,6.680,2.005,17.738,9.726,-5.064,9.393,6.362,13.061,5.136,4.324
Mon Dec 02 21:19:24 2024,625,-19.618,-19.618,-2.780,-2.780,-4.965,14.825,6.815,2.075,17.688,9.766,-5.008,9.506,6.419,13.084,5.097,4.322
Mon Dec 02 21:19:24 2024,630,-19.578,-19.578,-2.756,-2.756,-4.890,14.926,6.942,2.141,17.642,9.803,-4.955,9.612,6.472,13.105,5.061,4.321
Mon Dec 02 21:19:24 2024,635,-19.520,-19.520,-2.794,-2.794,-4.861,14.958,6.967,2.105,17.637,9.841,-4.940,9.681,6.525,13.140,5.025,4.368
Mon Dec 02 21:19:24 2024,640,-19.474,-19.474,-2.840,-2.840,-4.855,14.960,6.954,2.049,17.642,9.867,-4.941,9.718,6.562,13.170,5.000,4.416
Mon Dec 02 21:19:24 2024,645,-19.442,-19.442,-2.877,-2.877,-4.863,14.945,6.934,2.027,17.643,9.890,-4.960,9.727,6.582,13.166,5.011,4.448
Mon Dec 02 21:19:24 2024,650,-19.438,-19.438,-2.902,-2.902,-4.898,14.893,6.901,2.071,17.642,9.906,-5.016,9.680,6.570,13.095,5.094,4.451
Mon Dec 02 21:19:24 2024,655,-19.435,-19.435,-2.921,-2.921,-4.925,14.849,6.874,2.106,17.640,9.918,-5.065,9.640,6.559,13.034,5.167,4.454
Mon Dec 02 21:19:24 2024,660,-19.454,-19.454,-2.914,-2.914,-4.906,14.861,6.886,2.077,17.665,9.911,-5.091,9.634,6.569,13.007,5.191,4.446
Mon Dec 02 21:19:24 2024,665,-19.475,-19.475,-2.902,-2.902,-4.878,14.883,6.905,2.038,17.694,9.901,-5.112,9.634,6.581,12.986,5.207,4.437
Mon Dec 02 21:19:24 2024,670,-19.470,-19.470,-2.904,-2.904,-4.871,14.899,6.924,2.000,17.713,9.872,-5.109,9.657,6.578,12.976,5.219,4.427
Mon Dec 02 21:19:24 2024,675,-19.440,-19.440,-2.920,-2.920,-4.885,14.906,6.941,1.971,17.719,9.832,-5.084,9.696,6.561,12.977,5.226,4.416
Mon Dec 02 21:19:24 2024,680,-19.409,-19.409,-2.930,-2.930,-4.895,14.919,6.959,1.946,17.722,9.793,-5.056,9.746,6.547,12.981,5.235,4.411
Mon Dec 02 21:19:24 2024,685,-19.404,-19.404,-2.888,-2.888,-4.861,14.964,6.978,1.977,17.706,9.795,-5.026,9.848,6.573,13.004,5.259,4.455
Mon Dec 02 21:19:24 2024,690,-19.403,-19.403,-2.838,-2.838,-4.822,15.012,6.996,2.016,17.688,9.803,-4.997,9.953,6.604,13.030,5.284,4.505
Mon Dec 02 21:19:24 2024,695,-19.398,-19.398,-2.847,-2.847,-4.856,14.971,7.007,2.032,17.701,9.861,-4.977,9.997,6.653,13.081,5.282,4.551
Mon Dec 02 21:19:24 2024,700,-19.392,-19.392,-2.896,-2.896,-4.938,14.872,7.013,2.029,17.734,9.946,-4.966,9.990,6.706,13.142,5.260,4.586
Mon Dec 02 21:19:24 2024,705,-19.385,-19.385,-2.934,-2.934,-5.001,14.796,7.009,2.022,17.761,10.002,-4.963,9.978,6.738,13.184,5.239,4.601
Mon Dec 02 21:19:24 2024,710,-19.378,-19.378,-2.894,-2.894,-4.937,14.883,6.950,1.992,17.752,9.863,-4.999,9.946,6.638,13.102,5.230,4.494
Mon Dec 02 21:19:24 2024,715,-19.372,-19.372,-2.856,-2.856,-4.873,14.967,6.900,1.966,17.738,9.736,-5.032,9.919,6.547,13.026,5.222,4.399
Mon Dec 02 21:19:24 2024,720,-19.334,-19.334,-2.859,-2.859,-4.854,14.984,6.899,1.970,17.732,9.750,-5.077,9.883,6.536,12.987,5.269,4.422
Mon Dec 02 21:19:24 2024,725,-19.292,-19.292,-2.888,-2.888,-4.874,14.949,6.933,1.993,17.733,9.851,-5.109,9.858,6.583,12.991,5.332,4.513
Mon Dec 02 21:19:24 2024,730,-19.258,-19.258,-2.929,-2.929,-4.896,14.917,6.949,2.008,17.753,9.940,-5.126,9.867,6.633,12.990,5.392,4.590
Mon Dec 02 21:19:24 2024,735,-19.277,-19.277,-2.992,-2.992,-4.914,14.914,6.886,1.982,17.831,9.923,-5.076,10.010,6.660,12.976,5.400,4.558
Mon Dec 02 21:19:24 2024,740,-19.294,-19.294,-3.046,-3.046,-4.930,14.912,6.831,1.960,17.894,9.908,-5.034,10.131,6.685,12.964,5.408,4.529
Mon Dec 02 21:19:24 2024,745,-19.328,-19.328,-3.003,-3.003,-4.905,14.918,6.854,1.963,17.844,9.862,-5.040,10.072,6.645,12.982,5.374,4.520
Mon Dec 02 21:19:24 2024,750,-19.367,-19.367,-2.911,-2.911,-4.862,14.926,6.918,1.980,17.724,9.802,-5.074,9.920,6.574,13.014,5.320,4.522
Mon Dec 02 21:19:24 2024,755,-19.391,-19.391,-2.849,-2.849,-4.828,14.941,6.962,1.999,17.639,9.787,-5.091,9.822,6.545,13.049,5.290,4.540
Mon Dec 02 21:19:24 2024,760,-19.368,-19.368,-2.884,-2.884,-4.831,14.970,6.945,2.016,17.697,9.879,-5.061,9.896,6.624,13.078,5.325,4.584
Mon Dec 02 21:19:24 2024,765,-19.344,-19.344,-2.922,-2.922,-4.833,14.998,6.926,2.036,17.753,9.979,-5.029,9.978,6.709,13.109,5.363,4.632
Mon Dec 02 21:19:24 2024,770,-19.331,-19.331,-2.942,-2.942,-4.868,14.967,6.896,1.997,17.769,9.921,-5.041,9.964,6.675,13.081,5.388,4.598
Mon Dec 02 21:19:24 2024,775,-19.320,-19.320,-2.960,-2.960,-4.913,14.920,6.860,1.939,17.773,9.820,-5.066,9.927,6.608,13.035,5.411,4.542
Mon Dec 02 21:19:24 2024,780,-19.315,-19.315,-2.948,-2.948,-4.922,14.914,6.851,1.940,17.770,9.789,-5.039,9.960,6.597,13.043,5.416,4.525
Mon Dec 02 21:19:24 2024,785,-19.322,-19.322,-2.880,-2.880,-4.868,14.978,6.886,2.046,17.749,9.876,-4.916,10.122,6.680,13.144,5.386,4.574
Mon Dec 02 21:19:24 2024,790,-19.329,-19.329,-2.817,-2.817,-4.818,15.040,6.922,2.142,17.716,9.957,-4.805,10.266,6.756,13.238,5.354,4.623
Mon Dec 02 21:19:24 2024,795,-19.317,-19.317,-2.794,-2.794,-4.769,15.095,6.974,2.178,17.682,9.986,-4.808,10.206,6.753,13.271,5.300,4.664
Mon Dec 02 21:19:24 2024,800,-19.302,-19.302,-2.783,-2.783,-4.727,15.142,7.023,2.194,17.653,9.996,-4.842,10.098,6.728,13.284,5.247,4.700
Mon Dec 02 21:19:24 2024,805,-19.298,-19.298,-2.799,-2.799,-4.706,15.173,7.048,2.210,17.632,9.997,-4.886,10.015,6.701,13.284,5.228,4.706
Mon Dec 02 21:19:24 2024,810,-19.306,-19.306,-2.839,-2.839,-4.716,24.828,7.036,2.221,17.628,9.985,-4.922,9.990,6.680,13.269,5.253,4.676
Mon Dec 02 21:19:24 2024,815,-19.316,-19.316,-2.876,-2.876,-4.723,24.825,7.022,2.239,17.618,9.975,-4.953,9.967,6.658,13.255,5.275,4.639
Mon Dec 02 21:19:24 2024,820,-19.336,-19.336,-2.851,-2.851,-4.692,24.794,7.009,2.285,17.586,9.993,-4.897,9.975,6.648,13.261,5.236,4.593
Mon Dec 02 21:19:24 2024,825,-19.358,-19.358,-2.812,-2.812,-4.653,24.755,6.995,2.338,17.547,10.017,-4.823,9.989,6.639,13.271,5.183,4.543
Mon Dec 02 21:19:24 2024,830,-19.389,-19.389,-2.717,-2.717,-4.662,24.766,6.923,2.347,17.549,9.988,-4.794,9.994,6.611,13.240,5.210,4.518
Mon Dec 02 21:19:24 2024,835,-19.419,-19.419,-2.607,-2.607,-4.705,24.809,6.828,2.321,17.583,9.927,-4.809,9.990,6.575,13.186,5.290,4.520
Mon Dec 02 21:19:24 2024,840,-19.450,-19.450,-2.497,-2.497,-4.749,24.855,6.730,2.293,17.617,9.866,-4.823,9.986,6.539,13.132,5.370,4.522
Mon Dec 02 21:19:24 2024,845,-19.414,-19.414,-2.680,-2.680,-4.754,24.864,6.782,2.286,17.620,9.908,-4.815,9.976,6.562,13.242,5.302,4.525
Mon Dec 02 21:19:24 2024,850,-19.383,-19.383,-2.841,-2.841,-4.758,15.127,6.826,2.281,17.623,9.944,-4.808,9.966,6.582,13.338,5.242,4.528
Mon Dec 02 21:19:24 2024,855,-19.383,-19.383,-2.858,-2.858,-4.749,24.855,6.874,2.313,17.600,9.995,-4.745,10.041,6.625,13.421,5.195,4.549
Mon Dec 02 21:19:24 2024,860,-19.404,-19.404,-2.771,-2.771,-4.734,24.822,6.922,2.370,17.560,10.053,-4.647,10.172,6.683,13.490,5.159,4.584
Mon Dec 02 21:19:24 2024,865,-19.428,-19.428,-2.700,-2.700,-4.724,24.795,6.962,2.409,17.537,10.081,-4.586,10.277,6.714,13.525,5.139,4.591
Mon Dec 02 21:19:24 2024,870,-19.454,-19.454,-2.695,-2.695,-4.736,24.790,6.967,2.384,17.572,10.011,-4.647,10.277,6.656,13.449,5.170,4.518
Mon Dec 02 21:19:24 2024,875,-19.477,-19.477,-2.695,-2.695,-4.749,24.788,6.969,2.355,17.608,9.940,-4.713,10.268,6.596,13.371,5.203,4.445
Mon Dec 02 21:19:24 2024,880,-19.480,-19.480,-2.703,-2.703,-4.781,24.829,6.932,2.306,17.657,9.939,-4.699,10.298,6.607,13.365,5.220,4.466
Mon Dec 02 21:19:24 2024,885,-19.473,-19.473,-2.712,-2.712,-4.817,24.884,6.885,2.255,17.704,9.972,-4.649,10.342,6.651,13.396,5.227,4.528
Mon Dec 02 21:19:24 2024,890,-19.455,-19.455,-2.738,-2.738,-4.824,24.904,6.854,2.236,17.719,10.000,-4.618,10.345,6.673,13.422,5.218,4.568
Mon Dec 02 21:19:24 2024,895,-19.408,-19.408,-2.805,-2.805,-4.741,24.806,6.879,2.319,17.638,10.012,-4.654,10.224,6.626,13.431,5.168,4.529
Mon Dec 02 21:19:24 2024,900,-19.367,-19.367,-2.866,-2.866,-4.665,24.718,6.900,2.394,17.565,10.024,-4.687,10.115,6.583,13.438,5.123,4.494
Mon Dec 02 21:19:24 2024,905,-19.333,-19.333,-2.915,-2.915,-4.604,24.648,6.918,2.454,17.506,10.033,-4.714,10.027,6.548,13.444,5.086,4.467
Mon Dec 02 21:19:24 2024,910,-19.309,-19.309,-2.950,-2.950,-4.560,24.598,6.931,2.497,17.464,10.038,-4.733,9.964,6.524,13.447,5.059,4.446
Mon Dec 02 21:19:24 2024,915,-19.348,-19.348,-2.794,-2.794,-4.696,24.740,6.987,2.403,17.560,10.060,-4.689,10.183,6.605,13.448,5.142,4.505
Mon Dec 02 21:19:24 2024,920,-19.347,-19.347,-2.764,-2.764,-4.713,24.755,7.014,2.400,17.564,10.071,-4.686,10.215,6.616,13.451,5.152,4.512
Mon Dec 02 21:19:24 2024,925,-19.347,-19.347,-2.733,-2.733,-4.733,24.773,7.038,2.396,17.569,10.079,-4.681,10.255,6.627,13.456,5.164,4.517
Mon Dec 02 21:19:24 2024,930,-19.368,-19.368,-2.728,-2.728,-4.750,24.789,6.973,2.399,17.561,10.012,-4.642,10.327,6.616,13.481,5.176,4.485
Mon Dec 02 21:19:24 2024,935,-19.396,-19.396,-2.732,-2.732,-4.768,24.805,6.882,2.405,17.548,9.924,-4.592,10.407,6.598,13.512,5.189,4.443
Mon Dec 02 21:19:24 2024,940,-19.452,-19.452,-2.708,-2.708,-4.802,24.841,6.833,2.368,17.574,9.877,-4.593,10.434,6.609,13.521,5.203,4.473
Mon Dec 02 21:19:24 2024,945,-19.525,-19.525,-2.657,-2.657,-4.847,24.892,6.847,2.290,17.641,9.889,-4.656,10.388,6.651,13.499,5.217,4.584
Mon Dec 02 21:19:24 2024,950,-19.608,-19.608,-2.599,-2.599,-4.898,24.949,6.863,2.202,17.714,9.904,-4.726,10.336,6.699,13.475,5.233,4.709
Mon Dec 02 21:19:24 2024,955,-19.486,-19.486,-2.684,-2.684,-4.816,24.863,6.965,2.210,17.690,9.977,-4.749,10.281,6.735,13.491,5.199,4.735
Mon Dec 02 21:19:24 2024,960,-19.378,-19.378,-2.761,-2.761,-4.741,24.786,7.052,2.222,17.663,10.039,-4.765,10.236,6.764,13.507,5.169,4.750
Mon Dec 02 21:19:24 2024,965,-19.355,-19.355,-2.766,-2.766,-4.714,24.760,7.055,2.228,17.664,10.050,-4.750,10.242,6.754,13.496,5.152,4.717
Mon Dec 02 21:19:24 2024,970,-19.419,-19.419,-2.703,-2.703,-4.740,24.792,6.981,2.226,17.689,10.011,-4.710,10.292,6.712,13.465,5.154,4.650
Mon Dec 02 21:19:24 2024,975,-19.487,-19.487,-2.632,-2.632,-4.766,24.825,6.915,2.223,17.708,9.968,-4.671,10.333,6.669,13.427,5.152,4.581
Mon Dec 02 21:19:24 2024,980,-19.499,-19.499,-2.587,-2.587,-4.757,24.824,6.991,2.221,17.680,9.954,-4.690,10.257,6.675,13.394,5.134,4.580
Mon Dec 02 21:19:24 2024,985,-19.504,-19.504,-2.549,-2.549,-4.745,24.820,7.076,2.218,17.645,9.945,-4.714,10.176,6.685,13.365,5.116,4.588
Mon Dec 02 21:19:24 2024,990,-19.500,-19.500,-2.564,-2.564,-4.748,24.829,7.106,2.224,17.621,9.937,-4.690,10.211,6.719,13.393,5.099,4.611
Mon Dec 02 21:19:24 2024,995,-19.484,-19.484,-2.639,-2.639,-4.766,24.854,7.071,2.238,17.616,9.930,-4.612,10.380,6.778,13.483,5.083,4.652
Mon Dec 02 21:19:25 2024,0,-19.476,-19.476,-2.684,-2.684,-4.770,24.862,7.048,2.250,17.606,9.932,-4.570,10.470,6.813,13.530,5.075,4.682
Mon Dec 02 21:19:25 2024,5,-19.490,-19.490,-2.660,-2.660,-4.734,24.821,7.053,2.267,17.575,9.961,-4.620,10.358,6.794,13.463,5.088,4.692
Mon Dec 02 21:19:25 2024,10,-19.506,-19.506,-2.625,-2.625,-4.692,24.773,7.062,2.284,17.541,9.994,-4.682,10.218,6.767,13.379,5.104,4.699
Mon Dec 02 21:19:25 2024,15,-19.500,-19.500,-2.651,-2.651,-4.734,24.825,7.060,2.244,17.561,10.006,-4.719,10.169,6.763,13.388,5.109,4.733
Mon Dec 02 21:19:25 2024,20,-19.485,-19.485,-2.700,-2.700,-4.806,24.913,7.052,2.186,17.601,10.005,-4.734,10.177,6.771,13.440,5.108,4.771
Mon Dec 02 21:19:25 2024,25,-19.458,-19.458,-2.762,-2.762,-4.858,15.020,7.048,2.130,17.633,10.004,-4.753,10.171,6.786,13.469,5.101,4.791
Mon Dec 02 21:19:25 2024,30,-19.416,-19.416,-2.829,-2.829,-4.821,15.053,7.057,2.111,17.625,10.002,-4.770,10.130,6.809,13.418,5.083,4.751
Mon Dec 02 21:19:25 2024,35,-19.369,-19.369,-2.898,-2.898,-4.775,15.094,7.067,2.095,17.612,10.000,-4.790,10.084,6.835,13.357,5.061,4.704
Mon Dec 02 21:19:25 2024,40,-19.352,-19.352,-2.896,-2.896,-4.743,16.511,7.093,2.100,17.631,10.028,-4.751,10.205,6.892,13.391,5.074,4.746
Mon Dec 02 21:19:25 2024,45,-19.344,-19.344,-2.864,-2.864,-4.716,23.429,7.126,2.113,17.662,10.069,-4.689,10.400,6.965,13.463,5.101,4.828
Mon Dec 02 21:19:25 2024,50,-19.334,-19.334,-2.837,-2.837,-4.709,24.808,7.133,2.114,17.682,10.063,-4.673,10.491,6.960,13.489,5.123,4.844
Mon Dec 02 21:19:25 2024,55,-19.322,-19.322,-2.828,-2.828,-4.748,19.991,7.082,2.088,17.676,9.961,-4.762,10.331,6.797,13.407,5.131,4.716
Mon Dec 02 21:19:25 2024,60,-19.310,-19.310,-2.821,-2.821,-4.782,15.092,7.036,2.062,17.667,9.869,-4.844,10.188,6.652,13.334,5.137,4.602
Mon Dec 02 21:19:25 2024,65,-19.298,-19.298,-2.847,-2.847,-4.758,15.116,7.056,2.039,17.668,9.883,-4.823,10.244,6.710,13.384,5.130,4.637
Mon Dec 02 21:19:25 2024,70,-19.286,-19.286,-2.883,-2.883,-4.716,15.162,7.095,2.018,17.671,9.931,-4.772,10.361,6.830,13.469,5.118,4.718
Mon Dec 02 21:19:25 2024,75,-19.288,-19.288,-2.878,-2.878,-4.704,18.399,7.128,2.010,17.701,9.987,-4.738,10.466,6.926,13.510,5.125,4.800
Mon Dec 02 21:19:25 2024,80,-19.311,-19.311,-2.809,-2.809,-4.744,24.845,7.144,2.027,17.759,10.042,-4.741,10.529,6.962,13.472,5.163,4.869
Mon Dec 02 21:19:25 2024,85,-19.329,-19.329,-2.754,-2.754,-4.775,24.867,7.157,2.040,17.798,10.087,-4.743,10.579,6.991,13.442,5.193,4.924
Mon Dec 02 21:19:25 2024,90,-19.283,-19.283,-2.804,-2.804,-4.757,24.854,7.148,2.047,17.770,10.047,-4.760,10.548,6.921,13.444,5.191,4.839
Mon Dec 02 21:19:25 2024,95,-19.219,-19.219,-2.886,-2.886,-4.724,24.832,7.133,2.052,17.719,9.982,-4.781,10.492,6.824,13.458,5.179,4.715
Mon Dec 02 21:19:25 2024,100,-19.228,-19.228,-2.907,-2.907,-4.744,15.138,7.126,2.014,17.712,9.958,-4.840,10.404,6.783,13.425,5.221,4.712
Mon Dec 02 21:19:25 2024,105,-19.300,-19.300,-2.873,-2.873,-4.806,15.066,7.126,1.945,17.743,9.972,-4.922,10.299,6.792,13.359,5.303,4.815
Mon Dec 02 21:19:25 2024,110,-19.356,-19.356,-2.851,-2.851,-4.862,15.007,7.120,1.879,17.776,9.968,-4.988,10.243,6.805,13.301,5.376,4.899
Mon Dec 02 21:19:25 2024,115,-19.341,-19.341,-2.870,-2.870,-4.870,15.013,7.097,1.852,17.811,9.920,-4.972,10.349,6.818,13.295,5.389,4.896
Mon Dec 02 21:19:25 2024,120,-19.295,-19.295,-2.907,-2.907,-4.858,24.956,7.066,1.842,17.847,9.850,-4.922,10.527,6.832,13.311,5.377,4.856
Mon Dec 02 21:19:25 2024,125,-19.260,-19.260,-2.919,-2.919,-4.836,24.925,7.070,1.852,17.848,9.825,-4.902,10.578,6.824,13.339,5.342,4.836
Mon Dec 02 21:19:25 2024,130,-19.248,-19.248,-2.890,-2.890,-4.800,24.897,7.126,1.893,17.794,9.873,-4.934,10.421,6.780,13.380,5.276,4.851
Mon Dec 02 21:19:25 2024,135,-19.240,-19.240,-2.857,-2.857,-4.764,24.869,7.184,1.938,17.733,9.924,-4.973,10.243,6.731,13.419,5.208,4.867
Mon Dec 02 21:19:25 2024,140,-19.282,-19.282,-2.852,-2.852,-4.787,24.892,7.159,1.942,17.740,9.908,-5.005,10.214,6.711,13.342,5.269,4.850
Mon Dec 02 21:19:25 2024,145,-19.326,-19.326,-2.854,-2.854,-4.816,24.920,7.124,1.939,17.757,9.883,-5.030,10.216,6.701,13.259,5.342,4.832
Mon Dec 02 21:19:25 2024,150,-19.371,-19.371,-2.855,-2.855,-4.844,24.948,7.089,1.935,17.773,9.858,-5.054,10.217,6.689,13.176,5.415,4.813
Mon Dec 02 21:19:25 2024,155,-19.369,-19.369,-2.822,-2.822,-4.876,24.959,7.080,1.853,17.831,9.854,-5.015,10.235,6.679,13.256,5.347,4.802
Mon Dec 02 21:19:25 2024,160,-19.379,-19.379,-2.801,-2.801,-4.902,24.973,7.066,1.798,17.872,9.847,-4.995,10.247,6.669,13.291,5.318,4.791
Mon Dec 02 21:19:25 2024,165,-19.393,-19.393,-2.811,-2.811,-4.890,24.982,7.073,1.816,17.851,9.905,-5.026,10.140,6.671,13.276,5.310,4.804
Mon Dec 02 21:19:25 2024,170,-19.404,-19.404,-2.824,-2.824,-4.876,19.998,7.082,1.840,17.827,9.957,-5.055,10.044,6.672,13.256,5.308,4.818
Mon Dec 02 21:19:25 2024,175,-19.408,-19.408,-2.815,-2.815,-4.860,15.016,7.070,1.870,17.807,9.983,-5.062,9.983,6.664,13.244,5.296,4.808
Mon Dec 02 21:19:25 2024,180,-19.398,-19.398,-2.754,-2.754,-4.840,24.951,7.002,1.918,17.798,9.951,-5.017,9.998,6.625,13.245,5.257,4.741
Mon Dec 02 21:19:25 2024,185,-19.389,-19.389,-2.710,-2.710,-4.818,24.919,6.964,1.956,17.782,9.932,-4.980,10.008,6.604,13.250,5.227,4.705
Mon Dec 02 21:19:25 2024,190,-19.378,-19.378,-2.724,-2.724,-4.773,24.866,7.058,1.955,17.744,9.948,-4.947,10.032,6.671,13.287,5.221,4.811
Mon Dec 02 21:19:25 2024,195,-19.367,-19.367,-2.738,-2.738,-4.728,24.813,7.154,1.955,17.703,9.964,-4.914,10.057,6.738,13.325,5.214,4.919
Mon Dec 02 21:19:25 2024,200,-19.382,-19.382,-2.713,-2.713,-4.694,24.756,7.216,1.977,17.699,9.970,-4.887,10.124,6.740,13.332,5.216,4.917
Mon Dec 02 21:19:25 2024,205,-19.418,-19.418,-2.656,-2.656,-4.662,24.692,7.267,2.017,17.715,9.970,-4.859,10.234,6.695,13.318,5.226,4.833
Mon Dec 02 21:19:25 2024,210,-19.443,-19.443,-2.629,-2.629,-4.643,24.659,7.284,2.044,17.720,9.963,-4.851,10.288,6.658,13.300,5.234,4.777
Mon Dec 02 21:19:25 2024,215,-19.445,-19.445,-2.713,-2.713,-4.669,24.702,7.167,2.037,17.696,9.920,-4.928,10.138,6.620,13.253,5.244,4.794
Mon Dec 02 21:19:25 2024,220,-19.447,-19.447,-2.787,-2.787,-4.692,24.742,7.063,2.030,17.673,9.880,-4.997,10.004,6.586,13.210,5.253,4.809
Mon Dec 02 21:19:25 2024,225,-19.419,-19.419,-2.799,-2.799,-4.691,24.746,7.063,2.028,17.665,9.862,-4.993,9.964,6.579,13.256,5.212,4.820
Mon Dec 02 21:19:25 2024,230,-19.387,-19.387,-2.775,-2.775,-4.678,24.728,7.116,2.029,17.668,9.860,-4.954,9.985,6.588,13.330,5.160,4.823
Mon Dec 02 21:19:25 2024,235,-19.344,-19.344,-2.772,-2.772,-4.668,24.714,7.188,2.040,17.658,9.888,-4.896,10.044,6.634,13.402,5.122,4.844
Mon Dec 02 21:19:25 2024,240,-19.307,-19.307,-2.830,-2.830,-4.670,24.719,7.252,2.068,17.623,9.972,-4.839,10.155,6.737,13.410,5.149,4.890
Mon Dec 02 21:19:25 2024,245,-19.260,-19.260,-2.904,-2.904,-4.672,24.724,7.336,2.104,17.578,10.081,-4.765,10.298,6.870,13.421,5.183,4.950
Mon Dec 02 21:19:25 2024,250,-19.288,-19.288,-2.874,-2.874,-4.706,24.765,7.325,2.073,17.592,10.063,-4.819,10.229,6.860,13.424,5.159,4.974
Mon Dec 02 21:19:25 2024,255,-19.331,-19.331,-2.823,-2.823,-4.748,24.817,7.297,2.028,17.618,10.021,-4.901,10.115,6.821,13.426,5.122,4.993
Mon Dec 02 21:19:25 2024,260,-19.353,-19.353,-2.822,-2.822,-4.756,24.827,7.262,1.998,17.639,9.978,-4.943,10.072,6.783,13.434,5.097,4.992
Mon Dec 02 21:19:25 2024,265,-19.328,-19.328,-2.914,-2.914,-4.698,24.761,7.225,2.002,17.644,9.946,-4.901,10.174,6.757,13.449,5.102,4.958
Mon Dec 02 21:19:25 2024,270,-19.306,-19.306,-2.995,-2.995,-4.647,24.702,7.192,2.006,17.650,9.918,-4.864,10.264,6.734,13.462,5.107,4.926
Mon Dec 02 21:19:25 2024,275,-19.273,-19.273,-2.983,-2.983,-4.629,24.683,7.251,2.035,17.637,9.997,-4.843,10.325,6.808,13.512,5.090,4.958
Mon Dec 02 21:19:25 2024,280,-19.235,-19.235,-2.942,-2.942,-4.623,24.676,7.339,2.072,17.619,10.111,-4.826,10.380,6.913,13.575,5.067,5.010
Mon Dec 02 21:19:25 2024,285,-19.209,-19.209,-2.951,-2.951,-4.618,24.670,7.363,2.060,17.616,10.136,-4.828,10.381,6.938,13.581,5.064,5.022
Mon Dec 02 21:19:25 2024,290,-19.197,-19.197,-3.004,-3.004,-4.616,24.666,7.326,2.007,17.624,10.080,-4.845,10.334,6.889,13.537,5.080,4.995
Mon Dec 02 21:19:25 2024,295,-19.184,-19.184,-3.066,-3.066,-4.615,24.664,7.283,1.940,17.630,10.011,-4.870,10.273,6.831,13.482,5.100,4.967
Mon Dec 02 21:19:25 2024,300,-19.240,-19.240,-3.002,-3.002,-4.624,24.683,7.316,1.918,17.625,10.074,-4.924,10.188,6.910,13.480,5.122,5.067
Mon Dec 02 21:19:25 2024,305,-19.299,-19.299,-2.936,-2.936,-4.634,24.704,7.350,1.897,17.619,10.138,-4.978,10.103,6.990,13.478,5.144,5.168
Mon Dec 02 21:19:25 2024,310,-19.282,-19.282,-2.956,-2.956,-4.659,24.743,7.312,1.880,17.624,10.106,-5.005,10.076,6.964,13.422,5.178,5.121
Mon Dec 02 21:19:25 2024,315,-19.216,-19.216,-3.029,-3.029,-4.692,24.789,7.233,1.866,17.637,10.014,-5.011,10.090,6.871,13.339,5.217,4.982
Mon Dec 02 21:19:25 2024,320,-19.152,-19.152,-3.114,-3.114,-4.730,19.987,7.162,1.842,17.648,9.931,-5.026,10.098,6.792,13.258,5.261,4.870
Mon Dec 02 21:19:25 2024,325,-19.138,-19.138,-3.193,-3.193,-4.770,15.102,7.189,1.770,17.636,9.953,-5.075,10.061,6.850,13.250,5.303,4.993
Mon Dec 02 21:19:25 2024,330,-19.130,-19.130,-3.259,-3.259,-4.803,15.054,7.222,1.706,17.619,9.981,-5.121,10.026,6.911,13.249,5.339,5.116
Mon Dec 02 21:19:25 2024,335,-19.134,-19.134,-3.272,-3.272,-4.801,15.053,7.204,1.690,17.595,9.926,-5.149,9.996,6.867,13.236,5.344,5.095
Mon Dec 02 21:19:25 2024,340,-19.149,-19.149,-3.227,-3.227,-4.761,15.100,7.137,1.727,17.571,9.788,-5.158,9.974,6.716,13.212,5.317,4.926
Mon Dec 02 21:19:25 2024,345,-19.164,-19.164,-3.184,-3.184,-4.721,15.146,7.071,1.762,17.546,9.655,-5.167,9.952,6.570,13.189,5.291,4.764
Mon Dec 02 21:19:25 2024,350,-19.200,-19.200,-3.141,-3.141,-4.728,20.018,7.091,1.732,17.562,9.588,-5.224,9.884,6.485,13.192,5.318,4.815
Mon Dec 02 21:19:25 2024,355,-19.261,-19.261,-3.091,-3.091,-4.774,24.870,7.186,1.638,17.613,9.565,-5.333,9.762,6.434,13.220,5.392,5.055
Mon Dec 02 21:19:25 2024,360,-19.244,-19.244,-3.100,-3.100,-4.785,24.878,7.193,1.606,17.606,9.579,-5.366,9.713,6.439,13.215,5.407,5.081
Mon Dec 02 21:19:25 2024,365,-19.200,-19.200,-3.134,-3.134,-4.789,24.885,7.175,1.592,17.581,9.620,-5.370,9.691,6.479,13.202,5.403,5.048
Mon Dec 02 21:19:25 2024,370,-19.172,-19.172,-3.135,-3.135,-4.775,24.875,7.171,1.596,17.546,9.661,-5.370,9.661,6.509,13.188,5.382,5.014
Mon Dec 02 21:19:25 2024,375,-19.205,-19.205,-3.029,-3.029,-4.705,24.812,7.211,1.659,17.482,9.687,-5.355,9.609,6.497,13.172,5.307,4.976
Mon Dec 02 21:19:25 2024,380,-19.242,-19.242,-2.920,-2.920,-4.636,15.251,7.254,1.723,17.419,9.709,-5.340,9.559,6.482,13.157,5.231,4.940
Mon Dec 02 21:19:25 2024,385,-19.242,-19.242,-2.950,-2.950,-4.648,24.752,7.317,1.734,17.438,9.788,-5.284,9.702,6.576,13.239,5.262,5.046
Mon Dec 02 21:19:25 2024,390,-19.228,-19.228,-3.021,-3.021,-4.688,24.779,7.366,1.720,17.482,9.858,-5.232,9.865,6.678,13.328,5.318,5.168
Mon Dec 02 21:19:25 2024,395,-19.214,-19.214,-3.087,-3.087,-4.721,24.803,7.405,1.714,17.515,9.920,-5.196,9.979,6.752,13.389,5.356,5.260
Mon Dec 02 21:19:25 2024,400,-19.210,-19.210,-3.112,-3.112,-4.722,24.806,7.392,1.738,17.496,9.925,-5.226,9.873,6.698,13.331,5.331,5.210
Mon Dec 02 21:19:25 2024,405,-19.208,-19.208,-3.130,-3.130,-4.722,24.807,7.382,1.757,17.482,9.929,-5.249,9.791,6.657,13.286,5.309,5.173
Mon Dec 02 21:19:25 2024,410,-19.210,-19.210,-3.088,-3.088,-4.694,24.786,7.412,1.752,17.478,9.935,-5.222,9.814,6.703,13.288,5.290,5.172
Mon Dec 02 21:19:25 2024,415,-19.211,-19.211,-3.036,-3.036,-4.665,24.763,7.449,1.741,17.479,9.940,-5.182,9.869,6.768,13.306,5.277,5.188
Mon Dec 02 21:19:25 2024,420,-19.226,-19.226,-3.014,-3.014,-4.663,24.765,7.477,1.712,17.487,9.944,-5.163,9.927,6.830,13.323,5.279,5.223
Mon Dec 02 21:19:25 2024,425,-19.258,-19.258,-3.052,-3.052,-4.711,24.805,7.480,1.664,17.504,9.945,-5.187,9.969,6.862,13.330,5.306,5.282
Mon Dec 02 21:19:25 2024,430,-19.292,-19.292,-3.090,-3.090,-4.760,24.847,7.481,1.617,17.519,9.946,-5.211,10.011,6.896,13.338,5.333,5.340
Mon Dec 02 21:19:25 2024,435,-19.294,-19.294,-3.074,-3.074,-4.785,24.889,7.398,1.606,17.542,9.912,-5.211,10.068,6.896,13.332,5.364,5.341
Mon Dec 02 21:19:25 2024,440,-19.296,-19.296,-3.055,-3.055,-4.816,15.059,7.299,1.594,17.570,9.871,-5.211,10.135,6.896,13.324,5.400,5.342
Mon Dec 02 21:19:25 2024,445,-19.292,-19.292,-3.038,-3.038,-4.850,14.998,7.268,1.583,17.563,9.849,-5.235,10.113,6.878,13.275,5.428,5.299
Mon Dec 02 21:19:25 2024,450,-19.283,-19.283,-3.030,-3.030,-4.879,14.941,7.325,1.578,17.514,9.852,-5.281,9.989,6.845,13.190,5.436,5.216
Mon Dec 02 21:19:25 2024,455,-19.274,-19.274,-3.031,-3.031,-4.905,14.892,7.366,1.566,17.480,9.848,-5.326,9.882,6.807,13.121,5.443,5.141
Mon Dec 02 21:19:25 2024,460,-19.274,-19.274,-3.092,-3.092,-4.916,14.893,7.316,1.510,17.522,9.795,-5.366,9.852,6.746,13.134,5.445,5.114
Mon Dec 02 21:19:25 2024,465,-19.274,-19.274,-3.167,-3.167,-4.927,14.902,7.246,1.441,17.581,9.730,-5.409,9.834,6.675,13.162,5.445,5.092
Mon Dec 02 21:19:25 2024,470,-19.268,-19.268,-3.219,-3.219,-4.920,14.907,7.289,1.443,17.545,9.770,-5.458,9.756,6.678,13.205,5.445,5.160
Mon Dec 02 21:19:25 2024,475,-19.259,-19.259,-3.261,-3.261,-4.901,14.910,7.407,1.490,17.446,9.879,-5.517,9.631,6.725,13.260,5.444,5.291
Mon Dec 02 21:19:25 2024,480,-19.254,-19.254,-3.294,-3.294,-4.885,14.913,7.503,1.529,17.370,9.962,-5.562,9.532,6.756,13.307,5.439,5.391
Mon Dec 02 21:19:25 2024,485,-19.279,-19.279,-3.266,-3.266,-4.891,14.927,7.467,1.515,17.444,9.866,-5.528,9.592,6.653,13.305,5.405,5.267
Mon Dec 02 21:19:25 2024,490,-19.301,-19.301,-3.240,-3.240,-4.897,14.939,7.434,1.503,17.511,9.778,-5.496,9.646,6.560,13.302,5.374,5.154
Mon Dec 02 21:19:25 2024,495,-19.328,-19.328,-3.210,-3.210,-4.929,14.912,7.352,1.490,17.550,9.719,-5.521,9.620,6.504,13.286,5.388,5.129
Mon Dec 02 21:19:25 2024,500,-19.351,-19.351,-3.187,-3.187,-4.966,14.872,7.266,1.479,17.562,9.693,-5.570,9.557,6.487,13.267,5.421,5.159
Mon Dec 02 21:19:25 2024,505,-19.364,-19.364,-3.177,-3.177,-4.986,14.852,7.211,1.473,17.575,9.690,-5.598,9.521,6.489,13.269,5.435,5.191
Mon Dec 02 21:19:25 2024,510,-19.334,-19.334,-3.228,-3.228,-4.932,14.920,7.288,1.486,17.596,9.799,-5.535,9.601,6.589,13.377,5.356,5.240
Mon Dec 02 21:19:25 2024,515,-19.308,-19.308,-3.273,-3.273,-4.882,14.982,7.358,1.498,17.613,9.898,-5.478,9.673,6.680,13.474,5.284,5.284
Mon Dec 02 21:19:25 2024,520,-19.366,-19.366,-3.175,-3.175,-4.859,15.012,7.433,1.555,17.598,9.929,-5.449,9.676,6.682,13.506,5.261,5.307
Mon Dec 02 21:19:25 2024,525,-19.449,-19.449,-3.036,-3.036,-4.853,15.022,7.494,1.617,17.570,9.922,-5.440,9.648,6.645,13.500,5.266,5.314
Mon Dec 02 21:19:25 2024,530,-19.501,-19.501,-2.956,-2.956,-4.858,15.018,7.514,1.647,17.553,9.906,-5.442,9.608,6.608,13.477,5.277,5.303
Mon Dec 02 21:19:25 2024,535,-19.474,-19.474,-3.026,-3.026,-4.890,14.979,7.437,1.599,17.563,9.866,-5.477,9.538,6.569,13.408,5.303,5.245
Mon Dec 02 21:19:25 2024,540,-19.447,-19.447,-3.098,-3.098,-4.924,14.938,7.357,1.548,17.572,9.824,-5.513,9.466,6.529,13.335,5.330,5.184
Mon Dec 02 21:19:25 2024,545,-19.437,-19.437,-3.068,-3.068,-4.914,14.946,7.323,1.584,17.612,9.858,-5.519,9.444,6.520,13.342,5.306,5.148
Mon Dec 02 21:19:25 2024,550,-19.435,-19.435,-3.014,-3.014,-4.894,14.966,7.315,1.636,17.644,9.903,-5.514,9.446,6.524,13.372,5.274,5.133
Mon Dec 02 21:19:25 2024,555,-19.446,-19.446,-2.963,-2.963,-4.858,15.002,7.327,1.673,17.649,9.930,-5.504,9.467,6.542,13.392,5.252,5.135
Mon Dec 02 21:19:25 2024,560,-19.489,-19.489,-2.927,-2.927,-4.788,15.073,7.390,1.667,17.589,9.903,-5.481,9.536,6.590,13.385,5.258,5.184
Mon Dec 02 21:19:25 2024,565,-19.526,-19.526,-2.901,-2.901,-4.725,15.137,7.448,1.663,17.536,9.886,-5.458,9.608,6.637,13.378,5.264,5.222
Mon Dec 02 21:19:25 2024,570,-19.513,-19.513,-2.939,-2.939,-4.714,15.152,7.479,1.670,17.542,9.940,-5.427,9.698,6.676,13.361,5.262,5.172
Mon Dec 02 21:19:25 2024,575,-19.496,-19.496,-2.978,-2.978,-4.714,15.157,7.499,1.677,17.556,9.995,-5.400,9.774,6.706,13.348,5.260,5.119
Mon Dec 02 21:19:25 2024,580,-19.499,-19.499,-2.991,-2.991,-4.711,15.171,7.497,1.682,17.562,9.999,-5.415,9.771,6.694,13.360,5.269,5.127
Mon Dec 02 21:19:25 2024,585,-19.526,-19.526,-2.963,-2.963,-4.707,24.812,7.471,1.680,17.554,9.938,-5.470,9.675,6.640,13.394,5.284,5.203
Mon Dec 02 21:19:25 2024,590,-19.563,-19.563,-2.928,-2.928,-4.700,24.790,7.444,1.684,17.550,9.884,-5.524,9.572,6.586,13.432,5.294,5.283
Mon Dec 02 21:19:25 2024,595,-19.633,-19.633,-2.888,-2.888,-4.673,24.762,7.458,1.739,17.577,9.976,-5.467,9.582,6.626,13.439,5.258,5.255
Mon Dec 02 21:19:25 2024,600,-19.706,-19.706,-2.850,-2.850,-4.645,24.733,7.479,1.800,17.603,10.087,-5.395,9.609,6.679,13.441,5.215,5.211
Mon Dec 02 21:19:25 2024,605,-19.763,-19.763,-2.825,-2.825,-4.656,24.748,7.509,1.827,17.598,10.143,-5.385,9.614,6.719,13.442,5.198,5.217
Mon Dec 02 21:19:25 2024,610,-19.804,-19.804,-2.813,-2.813,-4.696,24.794,7.545,1.826,17.575,10.153,-5.420,9.604,6.745,13.439,5.200,5.262
Mon Dec 02 21:19:25 2024,615,-19.847,-19.847,-2.801,-2.801,-4.737,24.842,7.582,1.826,17.550,10.163,-5.457,9.593,6.772,13.437,5.201,5.309
Mon Dec 02 21:19:25 2024,620,-19.823,-19.823,-2.836,-2.836,-4.803,24.893,7.535,1.777,17.690,10.150,-5.446,9.714,6.793,13.485,5.200,5.330
Mon Dec 02 21:19:25 2024,625,-19.800,-19.800,-2.872,-2.872,-4.872,24.949,7.486,1.726,17.832,10.138,-5.436,9.840,6.816,13.534,5.198,5.354
Mon Dec 02 21:19:25 2024,630,-19.809,-19.809,-2.841,-2.841,-4.819,24.890,7.476,1.758,17.820,10.116,-5.420,9.842,6.790,13.537,5.185,5.327
Mon Dec 02 21:19:25 2024,635,-19.844,-19.844,-2.752,-2.752,-4.660,24.731,7.496,1.863,17.684,10.084,-5.397,9.741,6.722,13.505,5.158,5.255
Mon Dec 02 21:19:25 2024,640,-19.884,-19.884,-2.686,-2.686,-4.537,24.607,7.519,1.931,17.588,10.076,-5.383,9.653,6.682,13.491,5.134,5.219
Mon Dec 02 21:19:25 2024,645,-19.936,-19.936,-2.710,-2.710,-4.549,24.614,7.554,1.867,17.642,10.148,-5.402,9.613,6.748,13.546,5.122,5.310
Mon Dec 02 21:19:25 2024,650,-19.981,-19.981,-2.738,-2.738,-4.571,24.632,7.585,1.803,17.698,10.215,-5.421,9.585,6.811,13.596,5.112,5.396
Mon Dec 02 21:19:25 2024,655,-19.950,-19.950,-2.797,-2.797,-4.577,24.630,7.612,1.796,17.694,10.218,-5.410,9.686,6.844,13.597,5.145,5.414
Mon Dec 02 21:19:25 2024,660,-19.880,-19.880,-2.863,-2.863,-4.572,24.617,7.632,1.824,17.656,10.184,-5.383,9.843,6.852,13.570,5.197,5.390
Mon Dec 02 21:19:25 2024,665,-19.834,-19.834,-2.884,-2.884,-4.569,24.608,7.638,1.842,17.633,10.150,-5.365,9.943,6.848,13.549,5.235,5.375
Mon Dec 02 21:19:25 2024,670,-19.843,-19.843,-2.752,-2.752,-4.567,24.606,7.595,1.835,17.653,10.095,-5.364,9.891,6.794,13.534,5.245,5.383
Mon Dec 02 21:19:25 2024,675,-19.852,-19.852,-2.641,-2.641,-4.564,24.604,7.558,1.830,17.670,10.049,-5.363,9.846,6.748,13.522,5.254,5.389
Mon Dec 02 21:19:25 2024,680,-19.866,-19.866,-2.676,-2.676,-4.534,24.570,7.565,1.833,17.675,10.067,-5.354,9.877,6.751,13.533,5.258,5.400
Mon Dec 02 21:19:25 2024,685,-19.879,-19.879,-2.754,-2.754,-4.498,24.530,7.584,1.838,17.676,10.104,-5.344,9.928,6.770,13.551,5.260,5.412
Mon Dec 02 21:19:25 2024,690,-19.880,-19.880,-2.822,-2.822,-4.468,24.494,7.627,1.842,17.678,10.153,-5.311,9.998,6.815,13.587,5.245,5.438
Mon Dec 02 21:19:25 2024,695,-19.845,-19.845,-2.854,-2.854,-4.455,24.477,7.726,1.841,17.679,10.226,-5.228,10.105,6.921,13.667,5.188,5.500
Mon Dec 02 21:19:25 2024,700,-19.817,-19.817,-2.879,-2.879,-4.445,24.464,7.809,1.841,17.680,10.286,-5.159,10.193,7.010,13.733,5.141,5.551
Mon Dec 02 21:19:25 2024,705,-19.838,-19.838,-2.855,-2.855,-4.436,24.455,7.809,1.834,17.693,10.314,-5.209,10.155,7.000,13.706,5.165,5.560
Mon Dec 02 21:19:25 2024,710,-19.867,-19.867,-2.826,-2.826,-4.428,24.450,7.792,1.826,17.706,10.330,-5.276,10.098,6.971,13.666,5.200,5.558
Mon Dec 02 21:19:25 2024,715,-19.896,-19.896,-2.792,-2.792,-4.431,24.453,7.777,1.826,17.722,10.335,-5.303,10.090,6.970,13.652,5.205,5.553
Mon Dec 02 21:19:25 2024,720,-19.924,-19.924,-2.752,-2.752,-4.446,24.469,7.764,1.838,17.741,10.324,-5.276,10.149,7.003,13.677,5.170,5.545
Mon Dec 02 21:19:25 2024,725,-19.953,-19.953,-2.712,-2.712,-4.460,24.486,7.752,1.850,17.760,10.312,-5.249,10.209,7.038,13.702,5.136,5.536
Mon Dec 02 21:19:25 2024,730,-19.987,-19.987,-2.687,-2.687,-4.382,24.405,7.755,1.876,17.683,10.310,-5.282,10.071,7.029,13.691,5.137,5.578
Mon Dec 02 21:19:25 2024,735,-20.019,-20.019,-2.662,-2.662,-4.306,24.328,7.758,1.902,17.607,10.307,-5.314,9.937,7.019,13.680,5.140,5.617
Mon Dec 02 21:19:25 2024,740,-20.022,-20.022,-2.658,-2.658,-4.249,24.264,7.781,1.916,17.583,10.292,-5.330,9.876,6.985,13.656,5.158,5.615
Mon Dec 02 21:19:25 2024,745,-19.996,-19.996,-2.673,-2.673,-4.228,24.235,7.818,1.916,17.615,10.269,-5.328,9.905,6.938,13.626,5.186,5.574
Mon Dec 02 21:19:25 2024,750,-19.966,-19.966,-2.691,-2.691,-4.203,24.204,7.860,1.916,17.652,10.242,-5.326,9.939,6.883,13.592,5.220,5.526
Mon Dec 02 21:19:25 2024,755,-20.000,-20.000,-2.641,-2.641,-4.216,24.220,7.847,1.912,17.652,10.276,-5.315,9.977,6.915,13.538,5.236,5.497
Mon Dec 02 21:19:25 2024,760,-20.038,-20.038,-2.587,-2.587,-4.228,24.238,7.834,1.908,17.654,10.311,-5.303,10.021,6.949,13.478,5.253,5.464
Mon Dec 02 21:19:25 2024,765,-20.043,-20.043,-2.570,-2.570,-4.235,24.244,7.838,1.902,17.674,10.317,-5.305,10.036,6.955,13.498,5.228,5.456
Mon Dec 02 21:19:25 2024,770,-20.030,-20.030,-2.572,-2.572,-4.239,24.244,7.853,1.895,17.707,10.308,-5.317,10.035,6.945,13.566,5.174,5.461
Mon Dec 02 21:19:25 2024,775,-20.019,-20.019,-2.582,-2.582,-4.233,24.235,7.860,1.894,17.727,10.302,-5.324,10.033,6.936,13.607,5.147,5.468
Mon Dec 02 21:19:25 2024,780,-20.008,-20.008,-2.631,-2.631,-4.182,24.184,7.836,1.924,17.712,10.312,-5.326,10.018,6.926,13.566,5.214,5.482
Mon Dec 02 21:19:25 2024,785,-19.996,-19.996,-2.684,-2.684,-4.127,24.127,7.808,1.957,17.693,10.323,-5.328,10.003,6.916,13.516,5.292,5.498
Mon Dec 02 21:19:25 2024,790,-20.020,-20.020,-2.653,-2.653,-4.124,24.125,7.826,1.966,17.704,10.352,-5.340,9.976,6.918,13.507,5.290,5.478
Mon Dec 02 21:19:25 2024,795,-20.057,-20.057,-2.590,-2.590,-4.146,24.148,7.859,1.962,17.725,10.384,-5.356,9.950,6.927,13.518,5.252,5.445
Mon Dec 02 21:19:25 2024,800,-20.088,-20.088,-2.523,-2.523,-4.149,24.153,7.880,1.949,17.739,10.384,-5.372,9.926,6.926,13.530,5.229,5.432
Mon Dec 02 21:19:25 2024,805,-20.089,-20.089,-2.464,-2.464,-4.092,24.093,7.855,1.910,17.724,10.289,-5.382,9.924,6.900,13.542,5.258,5.487
Mon Dec 02 21:19:25 2024,810,-20.087,-20.087,-2.403,-2.403,-4.025,24.025,7.823,1.864,17.702,10.179,-5.391,9.925,6.872,13.552,5.295,5.552
Mon Dec 02 21:19:25 2024,815,-20.070,-20.070,-2.444,-2.444,-4.043,24.044,7.839,1.844,17.724,10.204,-5.361,9.970,6.906,13.514,5.319,5.532
Mon Dec 02 21:19:25 2024,820,-20.046,-20.046,-2.527,-2.527,-4.091,24.099,7.874,1.825,17.766,10.279,-5.311,10.040,6.970,13.451,5.345,5.482
Mon Dec 02 21:19:25 2024,825,-20.047,-20.047,-2.560,-2.560,-4.106,24.117,7.867,1.811,17.791,10.285,-5.295,10.083,6.980,13.401,5.379,5.440
Mon Dec 02 21:19:25 2024,830,-20.096,-20.096,-2.508,-2.508,-4.065,24.068,7.784,1.799,17.790,10.170,-5.337,10.084,6.895,13.359,5.435,5.402
Mon Dec 02 21:19:25 2024,835,-20.151,-20.151,-2.452,-2.452,-4.022,24.020,7.694,1.786,17.787,10.048,-5.379,10.084,6.808,13.313,5.496,5.364
Mon Dec 02 21:19:25 2024,840,-20.179,-20.179,-2.434,-2.434,-4.030,24.028,7.694,1.770,17.760,10.066,-5.361,10.066,6.849,13.288,5.512,5.395
Mon Dec 02 21:19:25 2024,845,-20.210,-20.210,-2.421,-2.421,-4.050,24.052,7.714,1.750,17.717,10.121,-5.324,10.040,6.929,13.262,5.522,5.448
Mon Dec 02 21:19:25 2024,850,-20.232,-20.232,-2.400,-2.400,-4.031,24.032,7.768,1.777,17.698,10.182,-5.237,10.148,7.025,13.317,5.484,5.496
Mon Dec 02 21:19:25 2024,855,-20.247,-20.247,-2.361,-2.361,-3.942,23.939,7.896,1.888,17.703,10.277,-5.040,10.508,7.183,13.518,5.355,5.552
Mon Dec 02 21:19:25 2024,860,-20.264,-20.264,-2.325,-2.325,-3.858,23.861,8.005,1.995,17.678,10.360,-4.880,10.774,7.310,13.681,5.243,5.593
Mon Dec 02 21:19:25 2024,865,-20.296,-20.296,-2.311,-2.311,-3.804,23.806,8.004,2.080,17.569,10.374,-4.906,10.553,7.272,13.649,5.229,5.566
Mon Dec 02 21:19:25 2024,870,-20.328,-20.328,-2.304,-2.304,-3.764,23.765,7.974,2.148,17.454,10.369,-4.978,10.236,7.195,13.571,5.242,5.523
Mon Dec 02 21:19:25 2024,875,-20.367,-20.367,-2.258,-2.258,-3.763,23.768,7.923,2.217,17.404,10.333,-4.986,10.100,7.122,13.564,5.246,5.499
Mon Dec 02 21:19:25 2024,880,-20.403,-20.403,-2.174,-2.174,-3.808,23.828,7.856,2.275,17.436,10.268,-4.911,10.209,7.069,13.643,5.238,5.503
Mon Dec 02 21:19:25 2024,885,-20.444,-20.444,-2.084,-2.084,-3.857,23.906,7.773,2.344,17.459,10.190,-4.819,10.337,7.000,13.729,5.228,5.490
Mon Dec 02 21:19:25 2024,890,-20.431,-20.431,-2.167,-2.167,-3.828,23.892,7.700,2.370,17.461,10.160,-4.736,10.384,6.892,13.638,5.272,5.243
Mon Dec 02 21:19:25 2024,895,-20.418,-20.418,-2.243,-2.243,-3.801,23.882,7.631,2.394,17.461,10.132,-4.659,10.428,6.793,13.557,5.311,5.019
Mon Dec 02 21:19:25 2024,900,-20.445,-20.445,-2.209,-2.209,-3.773,23.865,7.541,2.428,17.447,10.065,-4.623,10.455,6.708,13.483,5.351,4.865
Mon Dec 02 21:19:25 2024,905,-20.495,-20.495,-2.099,-2.099,-3.752,23.849,7.460,2.459,17.425,9.989,-4.632,10.461,6.661,13.439,5.381,4.812
Mon Dec 02 21:19:25 2024,910,-20.554,-20.554,-1.970,-1.970,-3.728,23.830,7.365,2.496,17.400,9.900,-4.642,10.468,6.606,13.388,5.416,4.750
Mon Dec 02 21:19:25 2024,915,-20.476,-20.476,-2.084,-2.084,-3.730,23.860,7.486,2.472,17.398,9.909,-4.630,10.534,6.653,13.417,5.428,4.777
Mon Dec 02 21:19:25 2024,920,-20.403,-20.403,-2.188,-2.188,-3.731,23.893,7.599,2.451,17.393,9.913,-4.620,10.598,6.696,13.442,5.440,4.801
Mon Dec 02 21:19:25 2024,925,-20.349,-20.349,-2.233,-2.233,-3.681,23.875,7.694,2.511,17.357,10.004,-4.604,10.582,6.722,13.491,5.401,4.802
Mon Dec 02 21:19:25 2024,930,-20.312,-20.312,-2.241,-2.241,-3.610,23.833,7.771,2.609,17.302,10.132,-4.587,10.527,6.735,13.547,5.340,4.791
Mon Dec 02 21:19:25 2024,935,-20.295,-20.295,-2.219,-2.219,-3.564,23.811,7.816,2.686,17.257,10.222,-4.569,10.502,6.745,13.590,5.295,4.780
Mon Dec 02 21:19:25 2024,940,-20.374,-20.374,-2.041,-2.041,-3.626,23.869,7.718,2.681,17.286,10.150,-4.538,10.626,6.739,13.579,5.319,4.768
Mon Dec 02 21:19:25 2024,945,-20.440,-20.440,-1.894,-1.894,-3.679,23.917,7.636,2.677,17.305,10.090,-4.511,10.731,6.734,13.570,5.339,4.758
Mon Dec 02 21:19:25 2024,950,-20.467,-20.467,-1.852,-1.852,-3.700,23.935,7.621,2.658,17.323,10.058,-4.532,10.714,6.707,13.536,5.371,4.750
Mon Dec 02 21:19:25 2024,955,-20.412,-20.412,-2.010,-2.010,-3.660,23.891,7.726,2.623,17.331,10.088,-4.623,10.500,6.658,13.477,5.411,4.750
Mon Dec 02 21:19:25 2024,960,-20.385,-20.385,-2.087,-2.087,-3.626,23.861,7.806,2.597,17.327,10.100,-4.694,10.354,6.626,13.448,5.429,4.760
Mon Dec 02 21:19:25 2024,965,-20.388,-20.388,-2.061,-2.061,-3.585,23.842,7.859,2.593,17.305,10.102,-4.726,10.321,6.636,13.485,5.390,4.792
Mon Dec 02 21:19:25 2024,970,-20.390,-20.390,-2.033,-2.033,-3.541,23.824,7.917,2.589,17.277,10.103,-4.761,10.284,6.648,13.525,5.348,4.826
Mon Dec 02 21:19:25 2024,975,-20.336,-20.336,-2.102,-2.102,-3.574,23.860,7.942,2.522,17.340,10.110,-4.725,10.465,6.748,13.608,5.300,4.884
Mon Dec 02 21:19:25 2024,980,-20.260,-20.260,-2.209,-2.209,-3.633,23.917,7.959,2.430,17.436,10.120,-4.663,10.730,6.883,13.708,5.246,4.953
Mon Dec 02 21:19:25 2024,985,-20.220,-20.220,-2.257,-2.257,-3.644,23.932,7.951,2.381,17.492,10.113,-4.642,10.863,6.930,13.746,5.227,4.971
Mon Dec 02 21:19:25 2024,990,-20.227,-20.227,-2.227,-2.227,-3.585,23.888,7.900,2.387,17.497,10.079,-4.680,10.825,6.849,13.695,5.256,4.917
Mon Dec 02 21:19:25 2024,995,-20.233,-20.233,-2.204,-2.204,-3.532,23.848,7.863,2.386,17.504,10.049,-4.717,10.786,6.779,13.644,5.288,4.871
Mon Dec 02 21:19:26 2024,0,-20.224,-20.224,-2.249,-2.249,-3.529,23.837,7.967,2.289,17.556,10.051,-4.779,10.703,6.791,13.513,5.387,4.907
Mon Dec 02 21:19:26 2024,5,-20.211,-20.211,-2.314,-2.314,-3.539,23.835,8.110,2.167,17.607,10.061,-4.847,10.609,6.826,13.364,5.502,4.965
Mon Dec 02 21:19:26 2024,10,-20.191,-20.191,-2.369,-2.369,-3.509,23.816,8.186,2.121,17.613,10.089,-4.927,10.488,6.813,13.303,5.536,5.004
Mon Dec 02 21:19:26 2024,15,-20.148,-20.148,-2.446,-2.446,-3.409,23.766,8.215,2.150,17.576,10.159,-5.070,10.263,6.732,13.322,5.483,5.042
Mon Dec 02 21:19:26 2024,20,-20.113,-20.113,-2.513,-2.513,-3.322,23.727,8.241,2.174,17.546,10.222,-5.193,10.078,6.667,13.341,5.437,5.076
Mon Dec 02 21:19:26 2024,25,-20.141,-20.141,-2.555,-2.555,-3.361,23.799,8.310,2.073,17.646,10.240,-5.100,10.445,6.848,13.318,5.532,5.133
Mon Dec 02 21:19:26 2024,30,-20.164,-20.164,-2.588,-2.588,-3.393,23.858,8.365,1.991,17.727,10.254,-5.024,10.743,6.998,13.299,5.608,5.179
Mon Dec 02 21:19:26 2024,35,-20.188,-20.188,-2.575,-2.575,-3.448,23.874,8.329,1.884,17.800,10.217,-5.049,10.818,7.014,13.189,5.738,5.182
Mon Dec 02 21:19:26 2024,40,-20.208,-20.208,-2.500,-2.500,-3.522,23.838,8.171,1.762,17.839,10.113,-5.211,10.563,6.838,12.971,5.918,5.123
Mon Dec 02 21:19:26 2024,45,-20.220,-20.220,-2.442,-2.442,-3.561,23.809,8.058,1.672,17.846,10.031,-5.331,10.388,6.709,12.828,6.040,5.094
Mon Dec 02 21:19:26 2024,50,-20.204,-20.204,-2.403,-2.403,-3.481,23.730,8.050,1.641,17.770,9.975,-5.373,10.407,6.666,12.881,6.016,5.161
Mon Dec 02 21:19:26 2024,55,-20.188,-20.188,-2.370,-2.370,-3.397,23.656,8.055,1.620,17.689,9.929,-5.401,10.443,6.639,12.949,5.979,5.230
Mon Dec 02 21:19:26 2024,60,-20.166,-20.166,-2.375,-2.375,-3.305,23.615,8.118,1.661,17.631,9.953,-5.388,10.522,6.674,12.916,6.047,5.282
Mon Dec 02 21:19:26 2024,65,-20.139,-20.139,-2.403,-2.403,-3.196,23.599,8.224,1.743,17.580,10.020,-5.349,10.635,6.750,12.821,6.182,5.330
Mon Dec 02 21:19:26 2024,70,-20.116,-20.116,-2.391,-2.391,-3.109,23.581,8.297,1.792,17.546,10.074,-5.314,10.747,6.820,12.747,6.297,5.395
Mon Dec 02 21:19:26 2024,75,-20.121,-20.121,-2.271,-2.271,-3.130,23.536,8.236,1.726,17.580,10.058,-5.310,10.792,6.838,12.773,6.288,5.469
Mon Dec 02 21:19:26 2024,80,-20.128,-20.128,-2.123,-2.123,-3.155,23.485,8.160,1.642,17.619,10.039,-5.304,10.847,6.859,12.807,6.278,5.562
Mon Dec 02 21:19:26 2024,85,-20.048,-20.048,-2.121,-2.121,-3.148,23.447,8.122,1.618,17.590,10.052,-5.342,10.781,6.846,12.812,6.287,5.567
Mon Dec 02 21:19:26 2024,90,-19.943,-19.943,-2.174,-2.174,-3.129,23.415,8.101,1.617,17.538,10.077,-5.393,10.674,6.821,12.807,6.302,5.538
Mon Dec 02 21:19:26 2024,95,-19.857,-19.857,-2.187,-2.187,-3.101,23.387,8.092,1.612,17.482,10.073,-5.438,10.610,6.795,12.778,6.333,5.506
Mon Dec 02 21:19:26 2024,100,-19.844,-19.844,-2.046,-2.046,-3.042,23.378,8.127,1.592,17.420,9.968,-5.460,10.704,6.763,12.660,6.414,5.458
Mon Dec 02 21:19:26 2024,105,-19.835,-19.835,-1.915,-1.915,-2.986,23.374,8.160,1.573,17.359,9.869,-5.482,10.790,6.733,12.550,6.490,5.413
Mon Dec 02 21:19:26 2024,110,-19.832,-19.832,-1.810,-1.810,-2.940,23.372,8.187,1.557,17.310,9.789,-5.498,10.860,6.710,12.461,6.551,5.377
Mon Dec 02 21:19:26 2024,115,-19.748,-19.748,-1.722,-1.722,-2.920,23.412,8.146,1.537,17.382,9.778,-5.453,11.077,6.729,12.417,6.652,5.362
Mon Dec 02 21:19:26 2024,120,-19.644,-19.644,-1.632,-1.632,-2.905,23.462,8.090,1.514,17.481,9.780,-5.393,11.336,6.758,12.380,6.766,5.351
Mon Dec 02 21:19:26 2024,125,-19.539,-19.539,-1.543,-1.543,-2.889,23.512,8.034,1.491,17.581,9.781,-5.334,11.595,6.787,12.343,6.881,5.340
Mon Dec 02 21:19:26 2024,130,-19.435,-19.435,-1.453,-1.453,-2.873,23.562,7.978,1.469,17.680,9.783,-5.274,11.854,6.816,12.305,6.995,5.329
Mon Dec 02 21:19:26 2024,135,-19.469,-19.469,-1.264,-1.264,-2.861,23.397,8.021,1.547,17.615,9.894,-5.361,11.598,6.792,12.302,6.938,5.365
Mon Dec 02 21:19:26 2024,140,-19.538,-19.538,-1.050,-1.050,-2.850,23.179,8.088,1.651,17.508,10.034,-5.484,11.213,6.754,12.307,6.838,5.412
Mon Dec 02 21:19:26 2024,145,-19.579,-19.579,-0.888,-0.888,-2.841,23.070,8.102,1.696,17.467,10.068,-5.544,11.081,6.777,12.323,6.805,5.511
Mon Dec 02 21:19:26 2024,150,-19.614,-19.614,-0.772,-0.772,-2.831,23.094,8.048,1.674,17.505,9.971,-5.532,11.253,6.884,12.357,6.850,5.701
Mon Dec 02 21:19:26 2024,155,-19.665,-19.665,-0.684,-0.684,-2.824,23.107,8.010,1.662,17.530,9.903,-5.529,11.366,6.964,12.382,6.878,5.846
Mon Dec 02 21:19:26 2024,160,-19.821,-19.821,-0.555,0.161,-2.736,23.034,8.167,1.690,17.520,9.985,-5.464,11.469,7.036,12.416,6.852,5.906
Mon Dec 02 21:19:26 2024,165,-19.978,-19.978,-0.520,0.520,-2.654,22.971,8.314,1.738,17.512,10.068,-5.389,11.587,7.115,12.495,6.795,5.976
Mon Dec 02 21:19:26 2024,170,-20.102,-20.102,-0.529,0.529,-2.585,22.921,8.443,1.815,17.508,10.155,-5.301,11.718,7.199,12.636,6.689,6.049
Mon Dec 02 21:19:26 2024,175,-20.165,-20.165,-0.521,0.521,-2.541,22.898,8.534,1.945,17.497,10.246,-5.191,11.871,7.288,12.892,6.492,6.128
Mon Dec 02 21:19:26 2024,180,-20.242,-20.242,-0.514,0.514,-2.497,22.876,8.624,2.072,17.478,10.335,-5.083,12.020,7.375,13.142,6.297,6.204
Mon Dec 02 21:19:26 2024,185,-20.209,-20.209,-0.493,0.493,-2.476,22.823,8.519,2.036,17.401,10.188,-5.127,11.931,7.292,13.087,6.336,6.143
Mon Dec 02 21:19:26 2024,190,-20.200,-20.200,-0.488,0.488,-2.455,22.776,8.437,2.016,17.326,10.070,-5.156,11.868,7.228,13.060,6.352,6.097
Mon Dec 02 21:19:26 2024,195,-20.186,-20.186,-0.483,0.483,-2.463,22.790,8.418,2.020,17.352,10.061,-5.130,11.996,7.257,13.104,6.345,6.137
Mon Dec 02 21:19:26 2024,200,-20.173,-20.173,-0.476,0.476,-2.485,22.833,8.430,2.034,17.424,10.105,-5.080,12.209,7.329,13.179,6.325,6.218
Mon Dec 02 21:19:26 2024,205,-20.182,-20.182,-0.469,0.469,-2.486,22.859,8.428,2.060,17.470,10.121,-5.037,12.361,7.358,13.251,6.289,6.265
Mon Dec 02 21:19:26 2024,210,-20.254,-20.254,-0.466,0.466,-2.415,22.833,8.377,2.134,17.450,10.050,-5.006,12.338,7.248,13.329,6.205,6.208
Mon Dec 02 21:19:26 2024,215,-20.324,-20.324,-0.462,0.462,-2.352,22.812,8.332,2.201,17.429,9.986,-4.977,12.320,7.149,13.401,6.128,6.158
Mon Dec 02 21:19:26 2024,220,-20.393,-20.393,-0.459,0.459,-2.292,22.795,8.289,2.265,17.407,9.926,-4.950,12.302,7.056,13.469,6.056,6.111
Mon Dec 02 21:19:26 2024,225,-20.319,-20.319,-0.474,0.474,-2.327,22.784,8.257,2.368,17.355,10.098,-4.775,12.530,7.223,13.413,6.088,6.025
Mon Dec 02 21:19:26 2024,230,-20.307,-20.307,-0.485,-0.327,-2.325,22.775,8.231,2.430,17.322,10.155,-4.692,12.622,7.269,13.408,6.080,5.975
Mon Dec 02 21:19:26 2024,235,-20.298,-20.298,-0.498,-0.498,-2.324,22.767,8.208,2.487,17.291,10.206,-4.617,12.706,7.310,13.403,6.074,5.930
Mon Dec 02 21:19:26 2024,240,-20.308,-20.308,-0.456,0.456,-2.262,22.671,8.190,2.327,17.379,9.986,-4.894,12.435,7.157,13.317,6.167,5.999
Mon Dec 02 21:19:26 2024,245,-20.319,-20.319,-0.489,0.489,-2.256,22.684,8.210,2.313,17.384,9.936,-4.865,12.492,7.148,13.321,6.160,5.977
Mon Dec 02 21:19:26 2024,250,-20.337,-20.337,-0.525,0.525,-2.265,22.736,8.254,2.317,17.377,9.902,-4.762,12.638,7.166,13.354,6.124,5.935
Mon Dec 02 21:19:26 2024,255,-20.343,-20.343,-0.563,0.563,-2.269,22.769,8.282,2.318,17.378,9.878,-4.696,12.717,7.172,13.372,6.102,5.914
Mon Dec 02 21:19:26 2024,260,-20.303,-20.303,-0.632,0.632,-2.254,22.735,8.253,2.299,17.411,9.886,-4.748,12.548,7.132,13.340,6.129,5.966
Mon Dec 02 21:19:26 2024,265,-20.269,-20.269,-0.696,0.696,-2.242,22.707,8.229,2.284,17.439,9.894,-4.792,12.408,7.099,13.313,6.152,6.009
Mon Dec 02 21:19:26 2024,270,-20.224,-20.224,-0.714,0.714,-2.092,22.646,8.266,2.398,17.382,9.990,-4.772,12.390,7.124,13.405,6.057,5.996
Mon Dec 02 21:19:26 2024,275,-20.193,-20.193,-0.720,0.720,-1.968,22.605,8.300,2.494,17.325,10.070,-4.750,12.391,7.150,13.485,5.976,5.979
Mon Dec 02 21:19:26 2024,280,-20.114,-20.114,-0.668,0.668,-1.903,22.624,8.316,2.568,17.299,10.142,-4.676,12.500,7.206,13.590,5.903,5.989
Mon Dec 02 21:19:26 2024,285,-20.022,-20.022,-0.587,0.587,-1.935,22.693,8.306,2.579,17.320,10.172,-4.580,12.674,7.269,13.672,5.873,6.024
Mon Dec 02 21:19:26 2024,290,-19.929,-19.929,-0.526,0.526,-1.969,22.761,8.309,2.588,17.336,10.211,-4.488,12.842,7.344,13.758,5.839,6.080
Mon Dec 02 21:19:26 2024,295,-19.910,-19.910,-0.518,0.518,-1.979,22.766,8.373,2.585,17.330,10.261,-4.495,12.827,7.407,13.792,5.827,6.191
Mon Dec 02 21:19:26 2024,300,-19.903,19.903,-0.517,0.517,-1.986,22.763,8.439,2.580,17.321,10.309,-4.511,12.794,7.465,13.818,5.819,6.301
Mon Dec 02 21:19:26 2024,305,-19.896,19.896,-0.517,0.517,-1.975,22.725,8.462,2.589,17.298,10.317,-4.499,12.790,7.472,13.836,5.812,6.344
Mon Dec 02 21:19:26 2024,310,-19.888,19.888,-0.565,0.565,-1.952,22.664,8.452,2.607,17.266,10.294,-4.467,12.808,7.439,13.846,5.806,6.333
Mon Dec 02 21:19:26 2024,315,-19.886,19.886,-0.657,-0.657,-1.933,22.622,8.445,2.623,17.237,10.267,-4.443,12.830,7.413,13.867,5.790,6.320
Mon Dec 02 21:19:26 2024,320,-19.906,19.906,-0.695,-0.695,-1.944,22.677,8.452,2.623,17.232,10.222,-4.460,12.865,7.426,13.930,5.733,6.303
Mon Dec 02 21:19:26 2024,325,-19.923,19.923,-0.726,-0.726,-1.954,22.726,8.459,2.622,17.230,10.186,-4.475,12.894,7.439,13.982,5.686,6.290
Mon Dec 02 21:19:26 2024,330,-19.938,19.938,-0.724,-0.724,-1.955,22.749,8.465,2.639,17.232,10.205,-4.481,12.874,7.436,14.009,5.665,6.336
Mon Dec 02 21:19:26 2024,335,-19.951,19.951,-0.705,-0.705,-1.952,22.755,8.471,2.663,17.236,10.248,-4.481,12.833,7.427,14.021,5.661,6.407
Mon Dec 02 21:19:26 2024,340,-19.960,19.960,-0.690,-0.690,-1.952,22.752,8.465,2.678,17.241,10.282,-4.488,12.802,7.411,14.008,5.672,6.431
Mon Dec 02 21:19:26 2024,345,-19.958,19.958,-0.685,-0.685,-1.966,22.720,8.420,2.670,17.260,10.298,-4.519,12.788,7.373,13.920,5.731,6.320
Mon Dec 02 21:19:26 2024,350,-19.956,19.956,-0.679,-0.679,-1.980,22.692,8.380,2.664,17.276,10.312,-4.547,12.776,7.337,13.836,5.785,6.216
Mon Dec 02 21:19:26 2024,355,-19.994,19.994,-0.676,-0.676,-1.979,22.690,8.410,2.646,17.285,10.284,-4.564,12.779,7.354,13.834,5.796,6.240
Mon Dec 02 21:19:26 2024,360,-20.039,20.039,-0.673,-0.673,-1.972,22.695,8.458,2.628,17.289,10.247,-4.575,12.786,7.387,13.858,5.791,6.301
Mon Dec 02 21:19:26 2024,365,-20.069,20.069,-0.667,-0.667,-1.954,22.675,8.512,2.631,17.274,10.237,-4.566,12.796,7.416,13.878,5.777,6.342
Mon Dec 02 21:19:26 2024,370,-20.045,20.045,-0.657,-0.657,-1.914,22.600,8.558,2.687,17.222,10.300,-4.512,12.808,7.423,13.884,5.746,6.319
Mon Dec 02 21:19:26 2024,375,-20.022,20.022,-0.647,-0.647,-1.873,22.524,8.605,2.744,17.170,10.364,-4.457,12.820,7.430,13.890,5.714,6.294
Mon Dec 02 21:19:26 2024,380,-20.034,20.034,-0.695,-0.695,-1.859,22.587,8.589,2.746,17.187,10.346,-4.431,12.915,7.433,13.901,5.717,6.255
Mon Dec 02 21:19:26 2024,385,-20.051,20.051,-0.760,-0.760,-1.848,22.676,8.563,2.741,17.210,10.318,-4.406,13.028,7.435,13.912,5.724,6.211
Mon Dec 02 21:19:26 2024,390,-20.055,20.055,-0.799,-0.799,-1.848,22.707,8.548,2.736,17.222,10.306,-4.413,13.062,7.433,13.924,5.723,6.207
Mon Dec 02 21:19:26 2024,395,-20.046,20.046,-0.816,-0.816,-1.862,22.672,8.540,2.729,17.228,10.312,-4.460,13.011,7.426,13.938,5.715,6.254
Mon Dec 02 21:19:26 2024,400,-20.040,20.040,-0.833,-0.833,-1.877,22.638,8.533,2.720,17.236,10.318,-4.512,12.957,7.420,13.951,5.707,6.305
Mon Dec 02 21:19:26 2024,405,-20.152,20.152,-0.754,-0.754,-1.890,22.719,8.621,2.696,17.249,10.337,-4.511,13.003,7.501,13.893,5.768,6.356
Mon Dec 02 21:19:26 2024,410,-20.246,20.246,-0.691,-0.691,-1.901,22.788,8.694,2.676,17.259,10.352,-4.511,13.041,7.568,13.844,5.818,6.398
Mon Dec 02 21:19:26 2024,415,-20.328,-20.328,-0.610,-0.610,-1.922,22.804,8.725,2.673,17.255,10.356,-4.534,13.000,7.572,13.812,5.830,6.389
Mon Dec 02 21:19:26 2024,420,-20.388,-20.388,-0.523,-0.523,-1.958,22.747,8.691,2.698,17.233,10.343,-4.591,12.847,7.486,13.802,5.785,6.306
Mon Dec 02 21:19:26 2024,425,-20.458,-20.458,-0.483,0.483,-1.988,22.706,8.677,2.712,17.216,10.320,-4.634,12.730,7.411,13.788,5.748,6.229
Mon Dec 02 21:19:26 2024,430,-20.597,-20.597,-0.486,0.486,-1.990,22.713,8.758,2.672,17.218,10.238,-4.617,12.768,7.366,13.754,5.758,6.158
Mon Dec 02 21:19:26 2024,435,-20.734,-20.734,-0.504,0.504,-1.993,22.721,8.836,2.633,17.213,10.158,-4.600,12.804,7.321,13.721,5.767,6.088
Mon Dec 02 21:19:26 2024,440,-20.860,-20.860,-0.525,0.525,-2.007,22.736,8.907,2.623,17.226,10.215,-4.596,12.788,7.364,13.702,5.756,6.077
Mon Dec 02 21:19:26 2024,445,-20.950,-20.950,-0.534,0.534,-2.027,22.754,8.955,2.640,17.250,10.371,-4.601,12.734,7.470,13.700,5.728,6.115
Mon Dec 02 21:19:26 2024,450,-21.028,-21.028,-0.542,0.542,-2.045,22.770,8.997,2.654,17.266,10.505,-4.606,12.687,7.560,13.698,5.705,6.148
Mon Dec 02 21:19:26 2024,455,-21.087,-21.087,-0.549,0.549,-2.058,22.781,9.028,2.664,17.275,10.605,-4.609,12.652,7.628,13.697,5.687,6.172
Mon Dec 02 21:19:26 2024,460,-21.114,-21.114,-0.552,0.552,-2.064,22.787,9.042,2.670,17.278,10.651,-4.611,12.636,7.660,13.697,5.678,6.183
Mon Dec 02 21:19:26 2024,465,-21.052,-21.052,-0.515,0.515,-2.073,22.787,9.104,2.802,17.159,10.618,-4.632,12.787,7.672,13.781,5.558,6.133
Mon Dec 02 21:19:26 2024,470,-21.065,-21.065,-0.510,0.510,-2.083,22.793,9.139,2.848,17.123,10.659,-4.641,12.816,7.712,13.806,5.510,6.130
Mon Dec 02 21:19:26 2024,475,-21.081,-21.081,-0.504,0.504,-2.093,22.804,9.183,2.889,17.090,10.702,-4.655,12.840,7.745,13.846,5.451,6.132
Mon Dec 02 21:19:26 2024,480,-21.100,-21.100,-0.494,0.494,-2.095,22.831,9.249,2.863,17.117,10.732,-4.687,12.814,7.720,13.942,5.364,6.156
Mon Dec 02 21:19:26 2024,485,-21.123,-21.123,-0.490,0.490,-2.098,22.859,9.314,2.838,17.144,10.763,-4.720,12.788,7.694,14.038,5.276,6.181
Mon Dec 02 21:19:26 2024,490,-21.170,-21.170,-0.492,0.492,-2.108,22.882,9.339,2.807,17.176,10.770,-4.746,12.799,7.670,14.118,5.175,6.156
Mon Dec 02 21:19:26 2024,495,-21.233,-21.233,-0.499,0.499,-2.121,22.901,9.344,2.773,17.212,10.765,-4.770,12.829,7.645,14.191,5.063,6.105
Mon Dec 02 21:19:26 2024,500,-21.290,-21.290,-0.507,0.507,-2.131,22.917,9.348,2.746,17.241,10.761,-4.789,12.852,7.625,14.251,4.973,6.064
Mon Dec 02 21:19:26 2024,505,-21.301,-21.301,-0.494,0.494,-2.135,22.912,9.347,2.704,17.262,10.702,-4.874,12.744,7.558,14.274,4.838,5.919
Mon Dec 02 21:19:26 2024,510,-21.331,-21.331,-0.489,0.489,-2.141,22.911,9.346,2.666,17.280,10.656,-4.940,12.668,7.504,14.302,4.717,5.804
Mon Dec 02 21:19:26 2024,515,-21.381,-21.381,-0.469,0.469,-2.206,22.892,9.384,2.602,17.338,10.752,-5.015,12.608,7.571,14.434,4.584,5.873
Mon Dec 02 21:19:26 2024,520,-21.444,-21.444,-0.448,0.448,-2.292,22.874,9.434,2.529,17.412,10.894,-5.092,12.555,7.678,14.601,4.449,6.005
Mon Dec 02 21:19:26 2024,525,-21.558,-21.558,-0.476,0.476,-2.350,22.867,9.497,2.480,17.465,10.987,-5.145,12.508,7.731,14.770,4.287,6.071
Mon Dec 02 21:19:26 2024,530,-21.712,-21.712,-0.594,0.594,-2.368,22.865,9.567,2.466,17.486,11.012,-5.166,12.476,7.715,14.919,4.114,6.053
Mon Dec 02 21:19:26 2024,535,-21.880,-21.880,-0.750,0.750,-2.391,22.868,9.644,2.448,17.508,11.040,-5.190,12.440,7.703,15.074,3.931,6.041
Mon Dec 02 21:19:26 2024,540,-22.045,-22.045,-0.825,0.825,-2.442,22.910,9.738,2.410,17.531,11.068,-5.228,12.391,7.728,15.197,3.770,6.084
Mon Dec 02 21:19:26 2024,545,-22.234,-22.234,-0.895,0.895,-2.502,22.964,9.846,2.364,17.553,11.101,-5.273,12.334,7.762,15.330,3.593,6.140
Mon Dec 02 21:19:26 2024,550,-22.417,-22.417,-1.004,1.004,-2.537,23.007,9.939,2.341,17.561,11.118,-5.313,12.288,7.772,15.451,3.417,6.157
Mon Dec 02 21:19:26 2024,555,-22.606,-22.606,-1.177,1.177,-2.539,23.043,10.020,2.347,17.553,11.114,-5.350,12.252,7.751,15.567,3.228,6.118
Mon Dec 02 21:19:26 2024,560,-22.822,-22.822,-1.374,1.374,-2.541,23.083,10.109,2.354,17.545,11.110,-5.390,12.212,7.727,15.695,3.017,6.074
Mon Dec 02 21:19:26 2024,565,-22.876,-22.876,-1.310,1.310,-2.489,23.030,10.161,2.374,17.530,11.202,-5.350,12.305,7.810,15.781,2.915,6.103
Mon Dec 02 21:19:26 2024,570,-22.940,-22.940,-1.248,1.248,-2.435,22.975,10.218,2.396,17.513,11.299,-5.310,12.401,7.896,15.876,2.802,6.132
Mon Dec 02 21:19:26 2024,575,-22.975,-22.975,-1.211,1.211,-2.381,22.956,10.246,2.424,17.500,11.348,-5.296,12.452,7.909,15.937,2.704,6.084
Mon Dec 02 21:19:26 2024,580,-22.986,-22.986,-1.194,1.194,-2.327,22.968,10.250,2.459,17.489,11.360,-5.302,12.468,7.861,15.971,2.618,5.971
Mon Dec 02 21:19:26 2024,585,-22.998,-22.998,-1.178,1.178,-2.274,22.984,10.252,2.494,17.472,11.371,-5.308,12.482,7.815,16.004,2.532,5.862
Mon Dec 02 21:19:26 2024,590,-23.035,-23.035,-1.114,1.114,-2.335,22.980,10.257,2.480,17.502,11.508,-5.314,12.476,7.922,16.041,2.537,5.957
Mon Dec 02 21:19:26 2024,595,-23.067,-23.067,-1.059,1.059,-2.389,22.981,10.262,2.467,17.524,11.627,-5.319,12.470,8.015,16.073,2.541,6.040
Mon Dec 02 21:19:26 2024,600,-23.084,-23.084,-1.014,1.014,-2.362,23.030,10.295,2.517,17.476,11.610,-5.317,12.462,7.970,16.082,2.498,5.981
Mon Dec 02 21:19:26 2024,605,-23.090,-23.090,-0.980,0.980,-2.292,23.108,10.340,2.593,17.399,11.521,-5.311,12.455,7.858,16.078,2.435,5.854
Mon Dec 02 21:19:26 2024,610,-23.096,-23.096,-0.952,0.952,-2.227,23.191,10.381,2.663,17.325,11.438,-5.306,12.448,7.753,16.074,2.376,5.734
Mon Dec 02 21:19:26 2024,615,-23.120,-23.120,-0.901,0.901,-2.268,23.045,10.462,2.657,17.328,11.588,-5.265,12.392,7.839,16.029,2.441,5.815
Mon Dec 02 21:19:26 2024,620,-23.140,-23.140,-0.860,0.860,-2.291,22.952,10.526,2.659,17.321,11.693,-5.234,12.348,7.892,15.993,2.483,5.864
Mon Dec 02 21:19:26 2024,625,-23.121,-23.121,-0.829,0.829,-2.308,22.961,10.547,2.752,17.244,11.730,-5.178,12.356,7.850,16.032,2.494,5.852
Mon Dec 02 21:19:26 2024,630,-23.091,-23.091,-0.810,0.810,-2.320,23.036,10.535,2.894,17.103,11.715,-5.114,12.398,7.751,16.115,2.478,5.799
Mon Dec 02 21:19:26 2024,635,-23.077,-23.077,-0.792,0.792,-2.329,23.105,10.525,3.021,16.954,11.702,-5.057,12.435,7.662,16.189,2.463,5.753
Mon Dec 02 21:19:26 2024,640,-23.033,-23.033,-0.735,0.735,-2.479,23.170,10.522,3.219,16.719,11.811,-4.951,12.578,7.774,16.158,2.518,5.709
Mon Dec 02 21:19:26 2024,645,-23.030,-23.030,-0.687,0.687,-2.610,23.245,10.518,3.416,23.532,11.904,-4.849,12.709,7.855,16.145,2.561,5.665
Mon Dec 02 21:19:26 2024,650,-23.030,-23.030,-0.636,0.636,-2.695,23.336,10.518,3.556,23.714,11.894,-4.774,12.842,7.838,16.217,2.578,5.632
Mon Dec 02 21:19:26 2024,655,-23.105,-23.105,-0.608,0.608,-2.784,23.450,10.521,3.705,23.912,11.852,-4.694,12.999,7.789,16.325,2.587,5.597
Mon Dec 02 21:19:26 2024,660,-23.228,-23.228,-0.615,0.615,-2.850,23.534,10.522,3.818,24.064,11.820,-4.634,13.118,7.754,16.406,2.590,5.571
Mon Dec 02 21:19:26 2024,665,-23.476,7.903,-0.628,0.628,-2.957,23.729,10.404,3.988,24.308,11.760,-4.447,13.364,7.713,16.651,2.516,5.629
Mon Dec 02 21:19:26 2024,670,-23.799,23.799,-0.647,0.647,-3.044,23.880,10.324,4.129,24.511,11.712,-4.307,13.557,7.678,16.834,2.456,5.665
Mon Dec 02 21:19:26 2024,675,-24.146,24.146,-0.648,0.648,-3.290,24.009,10.396,4.138,24.537,11.797,-4.189,13.548,7.806,17.061,2.334,5.981
Mon Dec 02 21:19:26 2024,680,-24.524,24.524,-0.837,0.837,-3.520,24.114,10.497,4.106,24.502,11.900,-4.104,13.477,7.952,17.244,2.224,6.308
Mon Dec 02 21:19:26 2024,685,-24.962,24.962,-1.277,1.277,-3.705,24.166,10.734,4.086,24.454,12.136,-4.007,13.330,8.171,17.414,2.108,6.629
Mon Dec 02 21:19:26 2024,690,-25.345,25.345,-1.792,1.792,-3.798,24.152,11.052,4.085,24.407,12.451,-3.920,13.139,8.411,17.533,2.014,6.865
Mon Dec 02 21:19:26 2024,695,-25.888,25.888,-2.554,2.554,-3.923,24.170,11.408,4.062,24.334,12.786,-3.826,12.918,8.683,17.662,1.912,7.139
Mon Dec 02 21:19:26 2024,700,-25.962,25.962,4.458,4.458,-4.235,24.396,11.619,3.824,24.034,12.852,-3.823,12.773,8.890,17.725,1.870,7.417
Mon Dec 02 21:19:26 2024,705,-25.998,25.998,6.490,6.490,-4.553,24.654,11.796,3.570,23.722,12.874,-3.835,12.648,9.076,17.772,1.840,7.682
Mon Dec 02 21:19:26 2024,710,-26.073,26.073,8.272,8.272,-4.827,24.889,11.948,3.352,23.460,12.893,-3.843,12.541,9.237,17.813,1.814,7.911
Mon Dec 02 21:19:26 2024,715,-25.096,25.096,10.603,10.603,-5.368,25.375,11.666,2.968,17.029,12.744,-4.171,11.949,9.474,17.702,1.921,8.426
Mon Dec 02 21:19:26 2024,720,-24.596,24.596,12.723,12.723,-5.794,25.910,11.557,2.666,17.300,12.676,-4.392,11.515,9.671,17.632,1.989,8.839
Mon Dec 02 21:19:26 2024,725,-24.855,24.855,14.952,14.952,-6.231,13.454,11.727,2.392,17.280,12.760,-4.612,11.090,9.848,17.525,2.080,9.288
Mon Dec 02 21:19:26 2024,730,-25.142,25.142,17.050,17.050,-6.627,12.809,11.878,2.150,16.990,12.837,-4.809,10.698,10.010,17.428,2.161,9.699
Mon Dec 02 21:19:26 2024,735,-25.620,25.620,19.068,19.068,-6.866,12.281,12.086,2.029,16.569,13.137,-5.046,9.948,10.181,17.300,2.245,10.117
Mon Dec 02 21:19:26 2024,740,-26.214,26.214,20.887,20.887,-6.969,11.876,12.323,2.007,16.146,13.585,-5.297,8.976,10.346,17.159,2.321,10.511
Mon Dec 02 21:19:26 2024,745,-26.801,26.801,22.908,22.908,-7.122,11.358,12.597,1.959,15.614,14.020,-5.543,7.970,10.537,17.024,2.376,10.930
Mon Dec 02 21:19:26 2024,750,-26.810,26.810,24.394,24.394,-7.397,10.797,12.869,1.820,15.020,14.104,-5.598,7.477,10.732,17.011,2.311,11.186
Mon Dec 02 21:19:26 2024,755,-26.822,26.822,25.867,25.867,-7.677,10.231,13.128,1.681,14.422,14.160,-5.632,7.036,10.924,17.016,2.228,11.432
Mon Dec 02 21:19:26 2024,760,-27.010,27.010,27.166,27.166,-7.970,9.670,13.292,1.536,14.050,14.146,-5.594,6.794,11.117,17.098,2.085,11.660
Mon Dec 02 21:19:26 2024,765,-27.357,27.357,28.562,28.562,-8.320,9.022,13.417,1.362,13.781,14.082,-5.498,6.652,11.344,17.244,1.878,11.912
Mon Dec 02 21:19:26 2024,770,-27.746,27.746,29.907,29.907,-8.691,8.486,13.533,1.199,13.584,14.048,-5.421,6.572,11.546,17.346,1.720,12.104
Mon Dec 02 21:19:26 2024,775,-28.116,28.116,30.761,30.761,-9.022,8.313,13.617,1.089,13.602,14.084,-5.400,6.643,11.650,17.323,1.705,12.126
Mon Dec 02 21:19:26 2024,780,-28.555,28.555,31.744,31.744,-9.361,8.147,13.663,0.987,13.616,14.080,-5.337,6.767,11.767,17.292,1.692,12.124
Mon Dec 02 21:19:26 2024,785,-28.871,28.871,32.454,32.454,-9.508,8.127,13.563,0.969,13.610,13.960,-5.193,6.965,11.840,17.261,1.689,12.056
Mon Dec 02 21:19:26 2024,790,-29.145,29.145,33.034,33.034,-9.496,8.245,13.303,1.032,13.586,13.706,-4.942,7.273,11.885,17.223,1.697,11.911
Mon Dec 02 21:19:26 2024,795,-29.428,29.428,33.582,33.582,-9.485,8.355,13.058,1.091,13.562,13.466,-4.706,7.563,11.931,17.186,1.703,11.773
Mon Dec 02 21:19:26 2024,800,-30.044,30.044,32.543,32.543,-9.367,8.726,12.788,1.301,13.724,13.324,-4.479,8.100,11.799,16.971,2.108,11.454
Mon Dec 02 21:19:26 2024,805,-30.604,30.604,31.819,31.819,-9.276,9.026,12.532,1.476,13.842,13.170,-4.263,8.574,11.704,16.797,2.417,11.178
Mon Dec 02 21:19:26 2024,810,-31.360,31.360,30.863,30.863,-9.346,9.194,12.447,1.538,14.240,13.206,-4.152,9.058,11.665,16.690,2.682,11.050
Mon Dec 02 21:19:26 2024,815,-31.984,31.984,30.083,30.083,-9.434,9.284,12.419,1.560,14.604,13.276,-4.092,9.426,11.647,16.626,2.862,10.985
Mon Dec 02 21:19:26 2024,820,-32.726,32.726,29.274,29.274,-9.526,9.436,12.417,1.561,15.012,13.299,-4.072,9.844,11.611,16.535,3.071,10.880
Mon Dec 02 21:19:26 2024,825,-33.352,33.352,28.750,28.750,-9.589,9.625,12.458,1.531,15.332,13.234,-4.126,10.172,11.557,16.440,3.249,10.751
Mon Dec 02 21:19:26 2024,830,-33.963,33.963,28.246,28.246,-9.651,9.777,12.497,1.502,15.641,13.172,-4.179,10.486,11.505,16.350,3.412,10.626
Mon Dec 02 21:19:26 2024,835,-34.370,34.370,27.677,27.677,-9.781,9.796,12.532,1.489,15.948,13.214,-4.197,10.722,11.510,16.320,3.486,10.556
Mon Dec 02 21:19:26 2024,840,-34.522,34.522,27.045,27.045,-9.983,9.683,12.558,1.494,16.246,13.375,-4.175,10.864,11.581,16.361,3.466,10.550
Mon Dec 02 21:19:26 2024,845,-34.749,34.749,26.377,26.377,-10.093,9.653,12.586,1.488,16.495,13.446,-4.193,11.033,11.587,16.334,3.502,10.418
Mon Dec 02 21:19:26 2024,850,-34.881,34.881,25.836,25.836,-10.121,9.667,12.603,1.479,16.633,13.463,-4.226,11.145,11.558,16.284,3.545,10.237
Mon Dec 02 21:19:26 2024,855,-35.048,35.048,25.151,25.151,-10.155,30.320,12.626,1.468,16.805,13.485,-4.267,11.284,11.523,16.220,3.599,10.011
Mon Dec 02 21:19:26 2024,860,-35.042,35.042,24.360,24.360,-10.163,30.323,12.524,1.463,16.756,13.477,-4.232,11.306,11.549,16.209,3.629,9.970
Mon Dec 02 21:19:26 2024,865,-35.046,35.046,23.568,23.568,-10.171,30.326,12.424,1.458,16.710,13.468,-4.198,11.329,11.574,16.197,3.658,9.927
Mon Dec 02 21:19:26 2024,870,-35.123,35.123,22.876,22.876,-10.177,30.326,12.378,1.401,16.666,13.447,-4.172,11.347,11.572,16.103,3.760,9.849
Mon Dec 02 21:19:26 2024,875,-35.297,35.297,22.247,22.247,-10.181,30.323,12.389,1.278,16.616,13.407,-4.155,11.360,11.535,15.902,3.957,9.724
Mon Dec 02 21:19:26 2024,880,-35.451,35.451,21.698,21.698,-10.186,30.320,12.398,1.173,16.566,13.373,-4.140,11.371,11.504,15.731,4.124,9.617
Mon Dec 02 21:19:26 2024,885,-35.474,35.474,21.036,21.036,-10.087,30.176,12.529,1.154,16.550,13.424,-4.142,11.382,11.508,15.632,4.219,9.598
Mon Dec 02 21:19:26 2024,890,-35.517,35.517,20.333,20.333,-9.988,30.041,12.663,1.128,16.529,13.474,-4.144,11.393,11.510,15.522,4.326,9.572
Mon Dec 02 21:19:26 2024,895,-35.122,35.122,19.937,19.937,-9.903,29.928,12.760,1.088,16.549,13.492,-4.121,11.531,11.578,15.420,4.427,9.558
Mon Dec 02 21:19:26 2024,900,-34.440,34.440,19.646,19.646,-9.814,29.819,12.849,1.037,16.593,13.497,-4.081,11.760,11.693,15.310,4.540,9.550
Mon Dec 02 21:19:26 2024,905,-33.952,33.952,19.424,19.424,-9.750,29.744,12.913,0.998,16.625,13.500,-4.051,11.928,11.778,15.229,4.623,9.543
Mon Dec 02 21:19:26 2024,910,-33.304,33.304,18.925,18.925,-9.672,29.664,12.901,0.974,16.815,13.328,-4.117,11.910,11.504,15.153,4.725,9.352
Mon Dec 02 21:19:26 2024,915,-32.838,32.838,18.550,18.550,-9.612,29.614,12.897,0.954,16.952,13.205,-4.163,11.906,11.312,15.095,4.801,9.215
Mon Dec 02 21:19:26 2024,920,-32.297,32.297,18.109,18.109,-9.600,29.608,12.928,0.881,16.961,13.170,-4.248,11.825,11.257,14.992,4.918,9.215
Mon Dec 02 21:19:26 2024,925,-31.816,31.816,17.704,17.704,-9.611,29.621,12.972,0.796,16.906,13.181,-4.337,11.721,11.273,14.884,5.035,9.278
Mon Dec 02 21:19:26 2024,930,-31.416,31.416,17.412,17.412,-9.625,29.640,13.023,0.730,16.921,13.199,-4.390,11.698,11.291,14.827,5.101,9.332
Mon Dec 02 21:19:26 2024,935,-31.022,31.022,17.260,17.260,-9.651,29.683,13.109,0.684,17.094,13.235,-4.382,11.844,11.323,14.858,5.081,9.386
Mon Dec 02 21:19:26 2024,940,-30.697,30.697,17.135,17.135,-9.674,29.725,13.183,0.647,17.248,13.266,-4.373,11.975,11.350,14.889,5.059,9.432
Mon Dec 02 21:19:26 2024,945,-30.290,30.290,16.866,16.866,-9.634,29.718,13.320,0.623,17.313,13.269,-4.413,11.969,11.319,14.882,5.067,9.407
Mon Dec 02 21:19:26 2024,950,-29.975,29.975,16.630,16.630,-9.588,29.706,13.436,0.608,17.340,13.263,-4.454,11.931,11.282,14.869,5.079,9.370
Mon Dec 02 21:19:26 2024,955,-29.716,29.716,16.369,16.369,-9.554,29.701,13.546,0.581,17.330,13.258,-4.513,11.863,11.252,14.814,5.131,9.339
Mon Dec 02 21:19:26 2024,960,29.606,29.606,16.150,16.150,-9.544,29.700,13.615,0.543,17.267,13.254,-4.579,11.769,11.243,14.713,5.227,9.321
Mon Dec 02 21:19:26 2024,965,29.498,29.498,15.933,15.933,-9.535,29.700,13.683,0.504,17.203,13.250,-4.646,11.674,11.234,14.614,5.322,9.304
Mon Dec 02 21:19:26 2024,970,29.200,29.200,15.833,15.833,-9.588,29.773,13.842,0.452,17.131,13.200,-4.653,11.754,11.245,14.606,5.334,9.302
Mon Dec 02 21:19:26 2024,975,28.918,28.918,15.777,15.777,-9.645,29.848,13.992,0.406,17.070,13.151,-4.648,11.853,11.258,14.618,5.328,9.304
Mon Dec 02 21:19:26 2024,980,28.676,28.676,15.786,15.786,-9.678,29.908,14.172,0.394,17.029,13.133,-4.638,11.918,11.270,14.638,5.312,9.320
Mon Dec 02 21:19:26 2024,985,28.660,28.660,16.050,16.050,-9.605,29.876,14.428,0.526,17.090,13.248,-4.610,11.825,11.276,14.680,5.262,9.392
Mon Dec 02 21:19:26 2024,990,28.598,28.598,16.322,16.322,-9.564,29.878,14.672,0.622,17.121,13.328,-4.587,11.765,11.281,14.721,5.217,9.442
Mon Dec 02 21:19:26 2024,995,-28.534,28.534,16.770,16.770,-9.614,29.950,14.829,0.634,17.101,13.323,-4.579,11.756,11.268,14.747,5.176,9.405
Mon Dec 02 21:19:27 2024,0,-28.490,28.490,17.178,17.178,-9.672,30.022,14.944,0.627,17.076,13.304,-4.574,11.757,11.253,14.768,5.142,9.358
Mon Dec 02 21:19:27 2024,5,-28.623,28.623,17.786,17.786,-9.743,30.096,15.114,0.669,17.012,13.294,-4.559,11.759,11.257,14.858,5.045,9.358
Mon Dec 02 21:19:27 2024,10,-28.979,28.979,18.548,18.548,-9.818,30.158,15.324,0.767,16.908,13.299,-4.532,11.761,11.282,15.023,4.881,9.417
Mon Dec 02 21:19:27 2024,15,-29.374,29.374,19.324,19.324,-9.894,30.221,15.537,0.865,16.801,13.303,-4.505,11.764,11.308,15.190,4.715,9.477
Mon Dec 02 21:19:27 2024,20,-29.690,29.690,19.906,19.906,-9.951,30.269,15.696,0.939,16.720,13.307,-4.484,11.766,11.327,15.316,4.592,9.523
Mon Dec 02 21:19:27 2024,25,-29.700,29.700,22.082,22.082,-10.126,30.292,15.732,1.005,16.418,13.242,-4.668,11.352,11.241,15.532,4.317,9.584
Mon Dec 02 21:19:27 2024,30,-29.936,29.936,23.657,23.657,-10.131,30.260,15.891,1.128,16.270,13.252,-4.700,11.224,11.272,15.655,4.151,9.684
Mon Dec 02 21:19:27 2024,35,-30.193,30.193,25.309,25.309,-10.048,30.166,16.093,1.287,16.162,13.293,-4.691,11.164,11.352,15.733,4.017,9.819
Mon Dec 02 21:19:27 2024,40,-29.669,29.669,25.516,25.516,-9.899,30.012,16.080,1.331,16.057,13.210,-4.790,10.914,11.206,15.743,3.924,9.803
Mon Dec 02 21:19:27 2024,45,-29.146,29.146,25.724,25.724,-9.749,29.858,16.067,1.375,15.952,13.127,-4.889,10.664,11.060,15.753,3.832,9.788
Mon Dec 02 21:19:27 2024,50,-28.622,28.622,25.932,25.932,-9.600,29.704,16.054,1.419,15.848,13.044,-4.988,10.414,10.915,15.762,3.739,9.772
Mon Dec 02 21:19:27 2024,55,-28.098,28.098,26.139,26.139,-9.451,29.549,16.041,1.463,15.743,12.962,-5.087,10.164,10.769,15.772,3.647,9.756
Mon Dec 02 21:19:27 2024,60,-27.574,27.574,26.346,26.346,-9.301,29.395,16.028,1.507,15.638,12.879,-5.186,9.913,10.623,15.782,3.554,9.741
Mon Dec 02 21:19:27 2024,65,-27.051,27.051,26.554,26.554,-9.152,29.241,16.015,1.551,15.533,12.796,-5.284,9.663,10.477,15.792,3.462,9.725
Mon Dec 02 21:19:27 2024,70,-26.527,26.527,26.762,26.762,-9.003,29.087,16.002,1.595,15.429,12.713,-5.383,9.413,10.331,15.802,3.369,9.709
Mon Dec 02 21:19:27 2024,75,-26.003,26.003,26.969,26.969,-8.853,28.933,15.989,1.639,15.324,12.630,-5.482,9.163,10.186,15.812,3.277,9.694
Mon Dec 02 21:19:27 2024,80,-25.480,25.480,27.176,27.176,-8.704,28.779,15.976,1.683,15.219,12.547,-5.581,8.913,10.040,15.821,3.184,9.678
Mon Dec 02 21:19:27 2024,85,-24.956,24.956,27.384,27.384,-8.555,28.625,15.963,1.727,15.114,12.464,-5.680,8.663,9.894,15.831,3.091,9.662
Mon Dec 02 21:19:27 2024,90,-24.432,24.432,27.592,27.592,-8.405,28.470,15.950,1.771,15.010,12.381,-5.779,8.413,9.748,15.841,2.999,9.647
Mon Dec 02 21:19:27 2024,95,-23.908,23.908,27.799,27.799,-8.256,28.316,15.937,1.815,14.905,12.299,-5.878,8.163,9.602,15.851,2.906,9.631
Mon Dec 02 21:19:27 2024,100,-23.385,23.385,28.006,28.006,-8.107,28.162,15.924,1.859,14.800,12.216,-5.977,7.912,9.457,15.861,2.814,9.615
Mon Dec 02 21:19:27 2024,105,-22.861,22.861,28.214,28.214,-7.957,28.008,15.911,1.903,14.695,12.133,-6.076,7.662,9.311,15.870,2.721,9.600
Mon Dec 02 21:19:27 2024,110,-22.337,22.337,28.422,28.422,-7.808,27.854,15.898,1.947,14.591,12.050,-6.175,7.412,9.165,15.880,2.629,9.584
Mon Dec 02 21:19:27 2024,115,-21.813,21.813,28.629,28.629,-7.659,27.700,15.885,1.991,14.486,11.967,-6.273,7.162,9.019,15.890,2.536,9.568
Mon Dec 02 21:19:27 2024,120,-21.355,21.355,27.939,27.939,-7.502,27.563,15.790,1.958,14.751,11.800,-6.295,7.318,8.851,15.936,2.540,9.469
Mon Dec 02 21:19:27 2024,125,-21.010,21.010,26.718,26.718,-7.339,27.448,15.647,1.887,15.242,11.592,-6.264,7.728,8.676,15.994,2.604,9.312
Mon Dec 02 21:19:27 2024,130,-20.766,20.766,25.460,25.460,-7.118,27.344,15.520,1.945,15.659,11.470,-6.221,8.085,8.555,15.914,2.670,9.080
Mon Dec 02 21:19:27 2024,135,-20.540,20.540,24.001,24.001,-6.837,27.274,15.374,2.050,16.104,11.348,-6.162,8.492,8.424,15.784,2.749,8.785
Mon Dec 02 21:19:27 2024,140,-20.612,20.612,22.407,22.407,-6.593,27.276,15.258,2.186,16.542,11.325,-6.010,9.017,8.364,15.763,2.780,8.529
Mon Dec 02 21:19:27 2024,145,-20.981,20.981,20.973,20.973,-6.450,27.315,15.204,2.324,16.863,11.428,-5.786,9.567,8.400,15.878,2.743,8.376
Mon Dec 02 21:19:27 2024,150,-21.303,21.303,19.750,19.750,-6.321,27.344,15.148,2.442,17.052,11.514,-5.608,10.008,8.427,15.966,2.714,8.245
Mon Dec 02 21:19:27 2024,155,-21.601,21.601,17.889,17.889,-6.062,26.993,14.893,2.550,16.926,11.552,-5.717,9.928,8.371,15.857,2.760,8.101
Mon Dec 02 21:19:27 2024,160,-21.826,21.826,16.444,16.444,-5.851,26.668,14.672,2.624,16.779,11.569,-5.852,9.770,8.315,15.739,2.808,7.995
Mon Dec 02 21:19:27 2024,165,-21.934,21.934,14.914,14.914,-5.732,26.475,14.416,2.627,16.739,11.558,-5.874,9.842,8.295,15.604,2.895,7.818
Mon Dec 02 21:19:27 2024,170,-21.966,21.966,13.631,13.631,-5.680,26.382,14.191,2.594,16.762,11.535,-5.835,10.013,8.296,15.485,2.985,7.639
Mon Dec 02 21:19:27 2024,175,-21.990,21.990,12.445,12.445,-5.646,26.314,13.976,2.553,16.799,11.510,-5.782,10.207,8.302,15.372,3.076,7.463
Mon Dec 02 21:19:27 2024,180,-22.048,22.048,11.043,11.043,-5.541,26.233,13.580,2.636,16.853,11.456,-5.715,10.335,8.164,15.429,3.018,7.242
Mon Dec 02 21:19:27 2024,185,-22.107,22.107,9.829,9.829,-5.442,26.164,13.220,2.726,16.886,11.406,-5.655,10.434,8.026,15.500,2.948,7.047
Mon Dec 02 21:19:27 2024,190,-22.162,22.162,8.814,8.814,-5.357,26.104,12.914,2.803,16.898,11.363,-5.604,10.519,7.909,15.561,2.888,6.881
Mon Dec 02 21:19:27 2024,195,-21.867,21.867,7.028,7.028,-5.183,26.204,12.651,2.932,16.896,11.326,-5.262,11.216,8.010,15.686,2.900,6.747
Mon Dec 02 21:19:27 2024,200,-21.732,-21.732,5.860,5.860,-5.093,26.243,12.421,3.009,16.880,11.300,-5.106,11.535,8.015,15.762,2.895,6.632
Mon Dec 02 21:19:27 2024,205,-21.582,-21.582,4.536,4.536,-5.089,26.214,12.079,3.057,16.878,11.290,-5.078,11.610,7.937,15.823,2.917,6.485
Mon Dec 02 21:19:27 2024,210,-21.443,-21.443,3.318,3.318,-5.098,26.178,11.754,3.096,16.870,11.284,-5.072,11.637,7.853,15.876,2.939,6.347
Mon Dec 02 21:19:27 2024,215,-21.388,-21.388,-1.851,1.851,-5.082,26.196,11.530,3.142,16.842,11.310,-5.025,11.798,7.825,15.956,2.922,6.154
Mon Dec 02 21:19:27 2024,220,-21.394,-21.394,-0.894,0.894,-5.058,26.234,11.439,3.174,16.817,11.342,-4.976,11.962,7.834,16.020,2.893,6.008
Mon Dec 02 21:19:27 2024,225,-21.419,-21.419,-0.884,-0.884,-5.024,26.279,11.327,3.234,16.764,11.406,-4.905,12.137,7.856,16.118,2.847,5.863
Mon Dec 02 21:19:27 2024,230,-21.490,-21.490,-1.535,-1.535,-4.993,26.283,11.274,3.328,16.673,11.511,-4.841,12.128,7.902,16.226,2.791,5.911
Mon Dec 02 21:19:27 2024,235,-21.566,-21.566,-2.284,-2.284,-4.961,26.288,11.219,3.426,16.575,11.622,-4.775,12.116,7.952,16.340,2.731,5.962
Mon Dec 02 21:19:27 2024,240,-21.651,-21.651,-2.841,-2.841,-4.966,26.254,11.136,3.441,16.558,11.690,-4.769,12.067,7.952,16.362,2.711,5.921
Mon Dec 02 21:19:27 2024,245,-21.765,-21.765,-3.250,-3.250,-5.007,26.181,11.020,3.381,16.620,11.726,-4.818,11.979,7.907,16.302,2.727,5.794
Mon Dec 02 21:19:27 2024,250,-21.862,-21.862,-3.524,-3.524,-5.062,26.154,10.940,3.334,16.667,11.757,-4.864,11.888,7.883,16.279,2.733,5.739
Mon Dec 02 21:19:27 2024,255,-21.987,-21.987,-3.678,-3.678,-5.233,26.208,10.852,3.235,16.765,11.792,-4.976,11.668,7.865,16.288,2.737,5.776
Mon Dec 02 21:19:27 2024,260,-22.113,-22.113,-3.794,-3.794,-5.370,26.258,10.784,3.156,16.843,11.820,-5.066,11.493,7.852,16.296,2.739,5.810
Mon Dec 02 21:19:27 2024,265,-22.244,-22.244,-3.898,-3.898,-5.492,26.306,10.724,3.086,16.912,11.845,-5.145,11.339,7.841,16.304,2.742,5.840
Mon Dec 02 21:19:27 2024,270,-22.183,-22.183,-3.949,-3.949,-5.195,26.171,10.619,3.207,16.793,11.756,-4.974,11.442,7.695,16.319,2.609,5.605
Mon Dec 02 21:19:27 2024,275,-22.200,-22.200,-4.034,-4.034,-5.150,26.126,10.543,3.182,16.819,11.749,-4.962,11.362,7.662,16.274,2.606,5.560
Mon Dec 02 21:19:27 2024,280,-22.175,-22.175,-4.140,-4.140,-5.203,26.094,10.473,3.066,16.935,11.786,-5.016,11.176,7.696,16.155,2.697,5.610
Mon Dec 02 21:19:27 2024,285,-22.151,-22.151,-4.272,-4.272,-5.238,26.050,10.398,2.956,17.042,11.824,-5.070,10.978,7.728,16.022,2.793,5.656
Mon Dec 02 21:19:27 2024,290,-21.972,-21.972,-4.454,-4.454,-5.083,25.942,10.362,3.027,16.969,11.830,-5.034,10.924,7.700,15.947,2.816,5.596
Mon Dec 02 21:19:27 2024,295,-21.784,-21.784,-4.630,-4.630,-4.906,25.836,10.337,3.127,16.868,11.830,-4.985,10.904,7.665,15.890,2.821,5.523
Mon Dec 02 21:19:27 2024,300,-21.612,-21.612,-4.799,-4.799,-4.738,25.738,10.314,3.222,16.772,11.828,-4.938,10.883,7.632,15.836,2.825,5.453
Mon Dec 02 21:19:27 2024,305,-21.224,-21.224,-4.946,-4.946,-4.842,25.697,10.229,3.020,16.957,11.838,-4.978,10.740,7.686,15.742,2.895,5.457
Mon Dec 02 21:19:27 2024,310,-20.932,-20.932,-5.092,-5.092,-4.876,25.673,10.178,2.914,17.048,11.831,-4.990,10.664,7.704,15.675,2.938,5.434
Mon Dec 02 21:19:27 2024,315,-20.464,-20.464,-5.363,-5.363,-4.900,25.776,10.186,2.862,17.102,11.716,-4.962,10.750,7.646,15.646,2.955,5.326
Mon Dec 02 21:19:27 2024,320,-20.009,-20.009,-5.638,-5.638,-4.922,25.898,10.204,2.822,17.146,11.590,-4.930,10.858,7.580,15.624,2.967,5.210
Mon Dec 02 21:19:27 2024,325,-19.746,-19.746,-5.784,-5.784,-4.943,25.952,10.197,2.812,17.156,11.507,-4.922,10.879,7.519,15.595,2.962,5.105
Mon Dec 02 21:19:27 2024,330,-19.558,-19.558,-5.834,-5.834,-4.986,25.933,10.138,2.844,17.109,11.423,-4.951,10.765,7.414,15.524,2.925,4.923
Mon Dec 02 21:19:27 2024,335,-19.411,-19.411,-5.895,-5.895,-5.016,25.927,10.096,2.865,17.078,11.352,-4.959,10.713,7.347,15.483,2.891,4.796
Mon Dec 02 21:19:27 2024,340,-19.378,-19.378,-5.966,-5.966,-5.006,25.923,10.078,2.874,17.073,11.310,-4.887,10.846,7.397,15.546,2.844,4.818
Mon Dec 02 21:19:27 2024,345,-19.348,-19.348,-6.042,-6.042,-4.996,25.920,10.058,2.885,17.067,11.265,-4.808,10.992,7.452,15.617,2.792,4.842
Mon Dec 02 21:19:27 2024,350,-19.419,-19.419,-6.149,-6.149,-4.985,25.888,10.075,2.861,17.080,11.262,-4.771,11.038,7.504,15.662,2.758,4.884
Mon Dec 02 21:19:27 2024,355,-19.556,-19.556,-6.268,-6.268,-4.977,25.841,10.117,2.814,17.101,11.288,-4.764,11.013,7.548,15.686,2.737,4.935
Mon Dec 02 21:19:27 2024,360,-19.662,-19.662,-6.369,-6.369,-4.978,25.807,10.154,2.775,17.116,11.312,-4.752,11.012,7.597,15.702,2.716,4.968
Mon Dec 02 21:19:27 2024,365,-19.702,-19.702,-6.470,-6.470,-5.021,25.800,10.204,2.735,17.130,11.340,-4.704,11.112,7.699,15.700,2.679,4.954
Mon Dec 02 21:19:27 2024,370,-19.730,-19.730,-6.558,-6.558,-5.064,25.798,10.248,2.702,17.140,11.364,-4.660,11.212,7.795,15.697,2.646,4.937
Mon Dec 02 21:19:27 2024,375,-19.770,-19.770,-6.662,-6.662,-5.094,25.819,10.306,2.642,17.196,11.401,-4.665,11.244,7.864,15.735,2.667,5.086
Mon Dec 02 21:19:27 2024,380,-19.805,-19.805,-6.736,-6.736,-5.109,25.843,10.348,2.592,17.252,11.430,-4.689,11.239,7.899,15.777,2.702,5.254
Mon Dec 02 21:19:27 2024,385,-19.847,-19.847,-6.810,-6.810,-5.112,25.867,10.403,2.564,17.288,11.460,-4.681,11.283,7.949,15.836,2.714,5.414
Mon Dec 02 21:19:27 2024,390,-19.887,-19.887,-6.834,-6.834,-5.048,25.877,10.488,2.670,17.190,11.481,-4.510,11.566,8.047,15.942,2.601,5.424
Mon Dec 02 21:19:27 2024,395,-19.925,-19.925,-6.852,-6.852,-4.998,25.888,10.556,2.754,17.112,11.497,-4.375,11.791,8.125,16.028,2.510,5.433
Mon Dec 02 21:19:27 2024,400,-19.942,-19.942,-6.834,-6.834,-4.987,25.916,10.586,2.768,17.098,11.534,-4.345,11.776,8.187,16.008,2.495,5.457
Mon Dec 02 21:19:27 2024,405,-19.950,-19.950,-6.806,-6.806,-4.992,25.943,10.594,2.752,17.111,11.568,-4.363,11.673,8.227,15.954,2.511,5.480
Mon Dec 02 21:19:27 2024,410,-19.955,-19.955,-6.798,-6.798,-4.995,25.947,10.572,2.758,17.109,11.578,-4.355,11.582,8.229,15.918,2.477,5.445
Mon Dec 02 21:19:27 2024,415,-19.943,-19.943,-6.832,-6.832,-4.989,25.902,10.483,2.818,17.070,11.532,-4.289,11.525,8.149,15.928,2.337,5.277
Mon Dec 02 21:19:27 2024,420,-19.937,-19.937,-6.858,-6.858,-4.985,25.868,10.418,2.863,17.038,11.497,-4.240,11.485,8.087,15.937,2.230,5.152
Mon Dec 02 21:19:27 2024,425,-19.909,-19.909,-6.906,-6.906,-5.015,25.915,10.353,2.857,17.056,11.455,-4.345,11.278,7.951,15.921,2.214,5.046
Mon Dec 02 21:19:27 2024,430,-19.885,-19.885,-6.952,-6.952,-5.050,25.981,10.302,2.834,17.088,11.419,-4.485,11.052,7.816,15.900,2.234,4.967
Mon Dec 02 21:19:27 2024,435,-19.861,-19.861,-6.989,-6.989,-5.066,25.997,10.261,2.849,17.085,11.388,-4.542,10.938,7.741,15.868,2.254,4.906
Mon Dec 02 21:19:27 2024,440,-19.828,-19.828,-7.024,-7.024,-5.057,25.943,10.225,2.922,17.030,11.354,-4.492,10.958,7.732,15.812,2.282,4.858
Mon Dec 02 21:19:27 2024,445,-19.799,-19.799,-7.057,-7.057,-5.049,25.892,10.189,2.995,16.973,11.320,-4.442,10.978,7.724,15.759,2.307,4.810
Mon Dec 02 21:19:27 2024,450,-19.746,-19.746,-7.042,-7.042,-4.989,25.892,10.187,3.011,16.954,11.283,-4.372,11.141,7.755,15.792,2.296,4.789
Mon Dec 02 21:19:27 2024,455,-19.691,-19.691,-7.024,-7.024,-4.926,25.897,10.186,3.024,16.936,11.246,-4.300,11.311,7.787,15.828,2.282,4.769
Mon Dec 02 21:19:27 2024,460,-19.633,-19.633,-7.021,-7.021,-4.928,25.945,10.205,2.989,16.976,11.248,-4.193,11.580,7.872,15.817,2.317,4.771
Mon Dec 02 21:19:27 2024,465,-19.582,-19.582,-7.030,-7.030,-4.986,26.018,10.239,2.919,17.058,11.285,-4.082,11.878,7.987,15.768,2.387,4.791
Mon Dec 02 21:19:27 2024,470,-19.527,-19.527,-7.040,-7.040,-5.049,26.099,10.275,2.842,17.145,11.324,-3.960,12.205,8.112,15.713,2.464,4.813
Mon Dec 02 21:19:27 2024,475,-19.490,-19.490,-7.045,-7.045,-5.090,26.152,10.299,2.791,17.201,11.350,-3.880,12.420,8.195,15.677,2.514,4.828
Mon Dec 02 21:19:27 2024,480,-19.514,-19.514,-7.072,-7.072,-4.858,26.029,10.329,3.037,16.964,11.418,-4.055,11.874,7.900,15.636,2.524,4.661
Mon Dec 02 21:19:27 2024,485,-19.635,-19.635,-6.974,-6.974,-4.747,26.003,10.466,3.068,16.934,11.472,-4.074,11.809,7.915,15.610,2.542,4.717
Mon Dec 02 21:19:27 2024,490,-19.850,-19.850,-6.795,-6.795,-4.637,25.986,10.676,3.042,16.956,11.527,-4.068,11.828,8.025,15.599,2.550,4.874
Mon Dec 02 21:19:27 2024,495,-20.040,-20.040,-6.639,-6.639,-4.540,25.976,10.862,3.019,16.972,11.574,-4.063,11.844,8.121,15.589,2.556,5.012
Mon Dec 02 21:19:27 2024,500,-19.947,-19.947,-6.622,-6.622,-4.317,26.073,11.109,3.147,16.844,11.463,-4.066,11.676,7.967,15.492,2.547,4.853
Mon Dec 02 21:19:27 2024,505,-19.898,-19.898,-6.590,-6.590,-4.133,26.168,11.324,3.243,16.747,11.382,-4.070,11.547,7.859,15.416,2.540,4.746
Mon Dec 02 21:19:27 2024,510,-19.928,-19.928,-6.522,-6.522,-4.010,26.456,11.610,3.242,16.752,11.316,-4.050,11.674,7.828,15.363,2.615,4.696
Mon Dec 02 21:19:27 2024,515,-19.990,-19.990,-6.445,-6.445,-3.931,26.817,11.899,3.198,16.799,11.264,-4.024,11.899,7.835,15.326,2.718,4.676
Mon Dec 02 21:19:27 2024,520,-20.052,-20.052,-6.368,-6.368,-3.852,27.193,12.190,3.154,16.846,11.210,-3.998,12.123,7.842,15.289,2.820,4.655
Mon Dec 02 21:19:27 2024,525,-20.093,-20.093,-6.240,-6.240,-3.775,27.268,12.468,3.214,16.780,11.238,-4.104,11.928,7.810,15.326,2.756,4.727
Mon Dec 02 21:19:27 2024,530,-20.135,-20.135,-6.127,-6.127,-3.703,27.388,12.734,3.255,16.733,11.254,-4.184,11.806,7.786,15.350,2.720,4.780
Mon Dec 02 21:19:27 2024,535,-20.138,-20.138,-6.118,-6.118,-3.618,27.660,13.001,3.274,16.714,11.215,-4.248,11.784,7.713,15.300,2.751,4.691
Mon Dec 02 21:19:27 2024,540,-20.127,-20.127,-6.146,-6.146,-3.529,27.994,13.270,3.286,16.706,11.158,-4.304,11.798,7.624,15.224,2.805,4.553
Mon Dec 02 21:19:27 2024,545,-20.134,-20.134,-6.124,-6.124,-3.445,28.315,13.596,3.303,16.689,11.144,-4.341,11.812,7.584,15.141,2.852,4.482
Mon Dec 02 21:19:27 2024,550,-20.170,-20.170,-6.026,-6.026,-3.382,28.552,13.962,3.329,16.663,11.202,-4.339,11.824,7.628,15.060,2.879,4.531
Mon Dec 02 21:19:27 2024,555,-20.192,-20.192,-5.943,-5.943,-3.317,28.787,14.314,3.357,16.636,11.251,-4.340,11.832,7.661,14.983,2.909,4.567
Mon Dec 02 21:19:27 2024,560,-20.140,-20.140,-5.930,-5.930,-3.209,29.081,14.696,3.408,16.585,11.256,-4.360,11.812,7.634,14.900,2.976,4.540
Mon Dec 02 21:19:27 2024,565,-20.058,-20.058,-5.949,-5.949,-3.083,29.400,15.086,3.468,16.525,11.241,-4.388,11.781,7.581,14.816,3.057,4.487
Mon Dec 02 21:19:27 2024,570,-19.995,-19.995,-5.964,-5.964,-2.987,29.648,15.384,3.514,16.480,11.230,-4.409,11.757,7.541,14.752,3.120,4.447
Mon Dec 02 21:19:27 2024,575,-20.002,-20.002,-5.862,-5.862,-2.848,30.357,16.200,3.547,16.452,11.253,-4.426,11.988,7.612,14.806,3.105,4.528
Mon Dec 02 21:19:27 2024,580,-19.981,-19.981,-5.802,-5.802,-2.747,30.880,16.807,3.576,16.424,11.265,-4.453,12.100,7.636,14.815,3.120,4.560
Mon Dec 02 21:19:27 2024,585,-19.870,-19.870,-5.745,-5.745,-2.657,31.549,17.641,3.608,16.392,11.268,-4.570,12.029,7.566,14.733,3.230,4.511
Mon Dec 02 21:19:27 2024,590,-19.758,-19.758,-5.697,-5.697,-2.584,32.160,18.416,3.636,16.364,11.270,-4.688,11.930,7.488,14.644,3.343,4.453
Mon Dec 02 21:19:27 2024,595,-19.650,-19.650,-5.618,-5.618,-2.468,33.013,19.550,3.683,16.317,11.269,-4.783,11.873,7.407,14.547,3.445,4.386
Mon Dec 02 21:19:27 2024,600,-19.612,-19.612,-5.456,-5.456,-2.240,34.417,21.562,3.780,16.222,11.263,-4.750,12.006,7.354,14.459,3.468,4.322
Mon Dec 02 21:19:27 2024,605,-19.578,-19.578,-5.357,-5.357,-2.118,35.516,23.093,3.844,16.157,11.258,-4.755,12.044,7.302,14.375,3.513,4.268
Mon Dec 02 21:19:27 2024,610,-19.585,-19.585,-5.380,-5.380,-2.215,37.748,25.880,3.906,16.097,11.242,-4.887,11.735,7.154,14.114,3.751,4.149
Mon Dec 02 21:19:27 2024,615,-19.601,-19.601,-5.421,-5.421,-2.369,39.734,28.412,3.954,16.048,11.227,-5.014,11.426,7.020,13.876,3.972,4.045
Mon Dec 02 21:19:27 2024,620,-19.475,-19.475,-5.450,-5.450,-2.911,42.398,31.572,4.041,15.961,11.162,-4.930,11.340,6.918,13.656,4.099,3.957
Mon Dec 02 21:19:27 2024,625,-19.221,-19.221,-5.460,-5.460,-3.780,45.368,35.013,4.156,15.843,11.057,-4.649,11.483,6.863,13.482,4.115,3.895
Mon Dec 02 21:19:27 2024,630,-19.006,-19.006,-5.468,-5.468,-4.560,47.890,38.001,4.253,15.741,10.967,-4.412,11.599,6.817,13.335,4.123,3.843
Mon Dec 02 21:19:27 2024,635,-18.740,-18.740,-5.357,-5.357,-5.898,51.583,42.312,4.242,15.698,10.897,-4.093,11.698,6.761,13.289,3.989,3.604
Mon Dec 02 21:19:27 2024,640,-18.503,-18.503,-5.258,-5.258,-7.195,54.935,46.516,4.235,24.383,10.833,-3.807,11.776,6.717,13.246,3.866,3.391
Mon Dec 02 21:19:27 2024,645,-18.176,-18.176,-5.335,-5.335,-8.051,58.229,50.683,4.183,24.483,10.650,-3.568,12.160,6.598,13.250,3.908,3.189
Mon Dec 02 21:19:27 2024,650,-17.790,-17.790,-5.497,-5.497,-8.855,61.788,55.442,4.108,24.644,10.402,-3.333,12.710,6.438,13.278,4.024,2.976
Mon Dec 02 21:19:27 2024,655,-17.436,-17.436,-5.650,-5.650,-9.741,65.171,60.123,4.041,24.848,10.169,-3.112,13.226,6.289,13.305,4.128,2.778
Mon Dec 02 21:19:27 2024,660,-17.089,-17.089,-5.897,-5.897,-10.072,67.967,65.238,4.103,25.107,10.277,-3.064,13.404,6.216,13.272,4.146,2.619
Mon Dec 02 21:19:27 2024,665,-16.793,-16.793,-6.114,-6.114,-10.574,70.657,70.008,4.151,25.360,10.343,-3.000,13.607,6.142,13.248,4.174,2.468
Mon Dec 02 21:19:27 2024,670,-16.574,-16.574,-6.254,-6.254,-10.940,72.806,73.396,4.187,25.626,10.382,-2.958,13.906,6.054,13.186,4.310,2.337
Mon Dec 02 21:19:27 2024,675,-16.382,-16.382,-6.364,-6.364,-11.307,74.790,76.177,4.217,25.919,10.410,-2.926,14.267,5.954,13.102,4.509,2.213
Mon Dec 02 21:19:27 2024,680,-16.239,-16.239,-6.446,-6.446,-11.670,76.304,78.204,4.241,26.147,10.432,-2.901,14.536,5.878,13.040,4.656,2.123
Mon Dec 02 21:19:27 2024,685,-16.232,-16.232,-6.469,-6.469,-12.302,78.718,82.458,4.262,26.082,10.602,-2.983,14.460,5.838,13.016,4.660,2.143
Mon Dec 02 21:19:27 2024,690,-16.211,-16.211,-6.497,-6.497,-13.010,80.726,85.607,4.280,26.067,10.733,-3.040,14.442,5.799,12.992,4.684,2.145
Mon Dec 02 21:19:27 2024,695,-16.211,-16.211,-6.428,-6.428,-13.412,81.756,87.708,4.224,26.085,10.994,-3.044,14.652,5.980,12.938,4.862,2.375
Mon Dec 02 21:19:27 2024,700,-16.216,-16.216,-6.354,-6.354,-13.712,82.450,89.249,4.165,26.107,11.232,-3.043,14.860,6.166,12.887,5.034,2.604
Mon Dec 02 21:19:27 2024,705,-16.221,-16.221,-6.281,-6.281,-14.049,83.153,90.739,4.106,26.130,11.470,-3.043,15.062,6.353,12.836,5.204,2.830
Mon Dec 02 21:19:27 2024,710,-16.116,-16.116,-6.466,-6.466,14.032,83.224,92.431,4.357,26.385,11.924,-2.811,15.226,6.643,13.109,4.972,3.111
Mon Dec 02 21:19:27 2024,715,-16.052,-16.052,-6.560,-6.560,14.095,83.320,93.543,4.475,26.523,12.218,-2.698,15.337,6.838,13.231,4.889,3.309
Mon Dec 02 21:19:27 2024,720,-15.943,-15.943,-6.665,-6.665,13.972,83.034,94.506,4.503,26.605,12.546,-2.701,15.385,7.082,13.190,4.969,3.542
Mon Dec 02 21:19:27 2024,725,-15.836,-15.836,-6.756,-6.756,13.805,82.634,95.209,4.485,26.646,12.827,-2.754,15.395,7.300,13.087,5.106,3.745
Mon Dec 02 21:19:27 2024,730,-15.796,-15.796,-6.665,-6.665,13.788,82.444,95.972,4.467,26.617,13.093,-2.870,15.279,7.468,12.936,5.229,3.915
Mon Dec 02 21:19:27 2024,735,-15.830,-15.830,-6.408,-6.408,13.927,82.498,96.661,4.453,26.524,13.298,-3.028,15.058,7.555,12.764,5.315,4.024
Mon Dec 02 21:19:27 2024,740,-15.863,-15.863,-6.188,-6.188,14.066,82.543,97.260,4.427,26.436,13.473,-3.171,14.863,7.636,12.607,5.399,4.129
Mon Dec 02 21:19:27 2024,745,-15.912,-15.912,-6.022,-6.022,14.164,82.560,97.807,4.309,26.314,13.594,-3.324,14.687,7.743,12.431,5.552,4.283
Mon Dec 02 21:19:27 2024,750,-15.959,-15.959,-5.908,-5.908,14.228,82.564,98.224,4.182,26.204,13.672,-3.450,14.552,7.838,12.282,5.698,4.424
Mon Dec 02 21:19:27 2024,755,-16.005,-16.005,-5.801,-5.801,14.291,82.566,98.603,4.064,26.103,13.746,-3.569,14.423,7.927,12.144,5.835,4.555
Mon Dec 02 21:19:27 2024,760,-15.895,-15.895,-5.584,-5.584,14.724,83.118,98.953,4.342,26.314,13.922,-3.500,14.452,7.993,12.081,5.829,4.482
Mon Dec 02 21:19:27 2024,765,-15.870,-15.870,-5.445,-5.445,14.973,83.402,99.248,4.447,26.414,14.053,-3.487,14.463,8.083,12.017,5.879,4.507
Mon Dec 02 21:19:27 2024,770,-15.954,-15.954,-5.390,-5.390,15.055,83.477,99.488,4.434,26.493,14.192,-3.471,14.563,8.248,11.994,5.986,4.650
Mon Dec 02 21:19:27 2024,775,-16.045,-16.045,-5.356,-5.356,15.096,83.505,99.679,4.402,26.557,14.311,-3.458,14.663,8.403,11.981,6.086,4.793
Mon Dec 02 21:19:27 2024,780,-16.142,-16.142,-5.322,-5.322,15.138,83.533,99.868,4.367,26.625,14.434,-3.446,14.764,8.562,11.967,6.189,4.939
Mon Dec 02 21:19:27 2024,785,-16.079,-16.079,-5.406,-5.406,15.451,84.305,100.348,4.543,26.861,14.563,-3.315,14.835,8.613,11.996,6.048,4.812
Mon Dec 02 21:19:27 2024,790,-16.082,-16.082,-5.428,-5.428,15.614,84.666,100.596,4.611,26.978,14.652,-3.237,14.911,8.683,12.004,6.016,4.790
Mon Dec 02 21:19:27 2024,795,-16.136,-16.136,-5.404,-5.404,15.759,84.931,100.770,4.639,27.032,14.732,-3.106,15.067,8.779,12.005,6.039,4.789
Mon Dec 02 21:19:27 2024,800,-16.194,-16.194,-5.377,-5.377,15.898,85.176,100.929,4.662,27.076,14.808,-2.973,15.227,8.877,12.004,6.067,4.791
Mon Dec 02 21:19:27 2024,805,-16.233,-16.233,-5.243,-5.243,16.274,85.748,101.017,4.710,27.362,14.932,-2.918,15.471,8.927,11.967,6.162,4.745
Mon Dec 02 21:19:27 2024,810,-16.260,-16.260,-5.084,-5.084,16.705,86.377,101.057,4.762,27.715,15.060,-2.904,15.708,8.950,11.921,6.271,4.686
Mon Dec 02 21:19:27 2024,815,-16.291,-16.291,-4.904,-4.904,17.200,87.092,101.078,4.809,28.073,15.167,-2.897,15.894,8.937,11.867,6.380,4.618
Mon Dec 02 21:19:27 2024,820,-16.324,-16.324,-4.731,-4.731,17.674,87.775,101.056,4.833,28.325,15.196,-2.903,15.932,8.853,11.814,6.455,4.554
Mon Dec 02 21:19:27 2024,825,-16.359,-16.359,-4.552,-4.552,18.176,88.481,101.025,4.859,28.589,15.228,-2.909,15.970,8.766,11.760,6.533,4.488
Mon Dec 02 21:19:27 2024,830,-16.295,-16.295,-4.475,-4.475,18.747,89.177,101.150,4.893,28.929,15.381,-2.791,16.264,8.832,11.721,6.608,4.447
Mon Dec 02 21:19:27 2024,835,-16.207,-16.207,-4.431,-4.431,19.311,89.828,101.305,4.927,29.271,15.559,-2.647,16.604,8.938,11.689,6.677,4.417
Mon Dec 02 21:19:27 2024,840,-16.160,-16.160,-4.363,-4.363,19.868,90.493,101.406,4.980,29.641,15.742,-2.594,16.803,9.000,11.624,6.748,4.362
Mon Dec 02 21:19:27 2024,845,-16.203,-16.203,-4.234,-4.234,20.418,91.220,101.402,5.076,30.090,15.942,-2.741,16.718,8.970,11.480,6.829,4.252
Mon Dec 02 21:19:27 2024,850,-16.234,-16.234,-4.142,-4.142,20.829,91.749,101.393,5.147,30.420,16.091,-2.848,16.654,8.947,11.374,6.888,4.170
Mon Dec 02 21:19:27 2024,855,-16.268,-16.268,-4.043,-4.043,21.278,92.316,101.377,5.225,30.777,16.254,-2.963,16.582,8.923,11.260,6.950,4.084
Mon Dec 02 21:19:27 2024,860,-16.258,-16.258,-4.140,-4.140,21.635,92.580,101.350,5.010,31.135,16.666,-2.837,16.949,9.210,11.301,7.042,4.264
Mon Dec 02 21:19:27 2024,865,-16.276,-16.276,-4.042,-4.042,22.045,92.931,101.479,4.958,31.454,17.107,-2.873,17.001,9.397,11.225,7.100,4.330
Mon Dec 02 21:19:27 2024,870,-16.299,-16.299,-3.853,-3.853,22.373,93.163,101.733,4.962,31.652,17.579,-2.961,16.942,9.569,11.114,7.119,4.379
Mon Dec 02 21:19:27 2024,875,-16.324,-16.324,-3.654,-3.654,22.732,93.410,102.001,4.965,31.865,18.087,-3.055,16.874,9.752,10.994,7.138,4.433
Mon Dec 02 21:19:27 2024,880,-16.327,-16.327,-3.642,-3.642,22.933,93.649,101.772,4.881,32.293,18.482,-3.142,23.145,9.873,10.963,7.275,4.508
Mon Dec 02 21:19:27 2024,885,-16.326,-16.326,-3.658,-3.658,23.102,93.874,101.483,4.786,32.738,18.847,-3.226,23.236,9.978,10.945,7.419,4.583
Mon Dec 02 21:19:27 2024,890,-16.303,-16.303,-3.613,-3.613,23.342,94.158,101.271,4.770,33.265,19.326,-3.248,23.332,10.129,10.849,7.547,4.608
Mon Dec 02 21:19:27 2024,895,-16.261,-16.261,-3.511,-3.511,23.617,94.453,101.180,4.843,33.785,19.843,-3.197,23.376,10.303,10.687,7.637,4.576
Mon Dec 02 21:19:27 2024,900,-16.222,-16.222,-3.416,-3.416,23.879,94.733,101.095,4.912,34.279,20.338,-3.149,23.448,10.468,10.534,7.721,4.547
Mon Dec 02 21:19:27 2024,905,-16.173,-16.173,-3.383,-3.383,24.155,95.090,100.948,4.968,34.862,20.904,-3.310,23.733,10.621,10.634,7.808,4.724
Mon Dec 02 21:19:27 2024,910,-16.128,-16.128,-3.351,-3.351,24.415,95.421,100.811,5.018,35.404,21.437,-3.459,24.008,10.762,10.723,7.882,4.886
Mon Dec 02 21:19:27 2024,915,-16.093,-16.093,-3.326,-3.326,24.623,95.681,100.704,5.055,35.833,21.863,-3.578,24.231,10.873,10.791,7.935,5.014
Mon Dec 02 21:19:27 2024,920,-16.066,-16.066,-3.307,-3.307,24.787,95.883,100.623,5.082,36.167,22.197,-3.671,24.408,10.959,10.843,7.974,5.114
Mon Dec 02 21:19:27 2024,925,-16.056,-16.056,-3.300,-3.300,24.847,95.954,100.600,5.092,36.286,22.316,-3.704,24.471,10.988,10.861,7.988,5.149
Mon Dec 02 21:19:27 2024,930,-16.196,-16.196,-3.146,-3.146,25.087,96.131,100.344,4.822,36.443,23.111,-3.787,24.429,11.094,10.484,8.116,5.056
Mon Dec 02 21:19:27 2024,935,-16.222,-16.222,-3.091,-3.091,25.253,96.296,100.225,4.758,36.682,23.540,-3.864,24.516,11.174,10.403,8.176,5.086
Mon Dec 02 21:19:27 2024,940,-16.171,-16.171,-3.054,-3.054,25.607,96.687,100.107,4.797,37.020,23.920,-3.880,24.632,11.218,10.428,8.174,5.084
Mon Dec 02 21:19:27 2024,945,-16.076,-16.076,-3.026,-3.026,26.097,97.226,99.981,4.897,37.436,24.297,-3.863,24.782,11.244,10.514,8.136,5.065
Mon Dec 02 21:19:27 2024,950,-16.003,-16.003,-3.003,-3.003,26.496,97.658,99.878,4.977,37.769,24.600,-3.849,24.910,11.265,10.583,8.105,5.050
Mon Dec 02 21:19:27 2024,955,-15.983,-15.983,-3.026,-3.026,26.560,97.798,99.695,4.994,37.912,24.667,-3.802,24.926,11.184,10.644,8.101,4.971
Mon Dec 02 21:19:27 2024,960,-15.961,-15.961,-3.042,-3.042,26.641,97.940,99.542,5.011,38.048,24.743,-3.765,24.951,11.121,10.697,8.096,4.909
Mon Dec 02 21:19:27 2024,965,-15.906,-15.906,-3.057,-3.057,26.948,98.242,99.461,5.105,38.160,24.890,-3.653,24.842,11.111,10.674,8.056,4.848
Mon Dec 02 21:19:27 2024,970,-15.851,-15.851,-3.067,-3.067,27.277,98.539,99.424,5.207,38.236,25.033,-3.536,24.704,11.124,10.626,8.008,4.801
Mon Dec 02 21:19:27 2024,975,-15.788,-15.788,-3.078,-3.078,27.661,98.881,99.377,5.327,38.325,25.198,-3.401,24.545,11.139,10.571,7.949,4.749
Mon Dec 02 21:19:27 2024,980,-15.943,-15.943,-3.101,-3.101,27.258,98.583,99.177,5.199,38.269,24.970,-3.391,24.531,11.012,10.592,7.978,4.678
Mon Dec 02 21:19:27 2024,985,-16.064,-16.064,-3.121,-3.121,26.986,98.393,99.000,5.117,38.240,24.798,-3.359,24.489,10.903,10.604,7.986,4.611
Mon Dec 02 21:19:27 2024,990,-16.100,-16.100,-3.096,-3.096,26.844,98.333,99.007,5.137,38.253,24.618,-3.356,24.436,10.794,10.673,7.911,4.618
Mon Dec 02 21:19:27 2024,995,-16.117,-16.117,-3.058,-3.058,26.717,98.299,99.062,5.188,38.280,24.411,-3.360,24.376,10.672,10.765,7.806,4.645
Mon Dec 02 21:19:28 2024,0,-16.131,-16.131,-3.023,-3.023,26.604,98.268,99.110,5.234,38.303,24.226,-3.364,24.323,10.563,10.848,7.710,4.669
Mon Dec 02 21:19:28 2024,5,-16.131,-16.131,-3.057,-3.057,26.426,98.167,99.006,5.162,38.160,23.737,-3.236,24.287,10.565,10.882,7.731,4.640
Mon Dec 02 21:19:28 2024,10,-16.135,-16.135,-3.072,-3.072,26.288,98.095,98.948,5.125,38.074,23.384,-3.154,24.256,10.544,10.921,7.725,4.629
Mon Dec 02 21:19:28 2024,15,-16.149,-16.149,-3.099,-3.099,26.016,97.777,99.108,5.133,37.838,22.707,-3.130,24.139,10.307,10.815,7.748,4.482
Mon Dec 02 21:19:28 2024,20,-16.162,-16.162,-3.122,-3.122,25.792,97.491,99.271,5.149,37.634,22.150,-3.127,24.038,10.087,10.705,7.770,4.345
Mon Dec 02 21:19:28 2024,25,-16.174,-16.174,-3.143,-3.143,25.590,97.230,99.418,5.162,37.450,21.648,-3.125,23.950,9.887,10.605,7.787,4.221
Mon Dec 02 21:19:28 2024,30,-16.282,-16.282,-3.113,-3.113,25.100,96.786,99.638,5.152,37.074,20.919,-3.078,23.750,9.711,10.774,7.669,4.223
Mon Dec 02 21:19:28 2024,35,-16.361,-16.361,-3.108,-3.108,24.649,96.340,99.830,5.145,36.735,20.263,-3.041,23.589,9.529,10.861,7.590,4.184
Mon Dec 02 21:19:28 2024,40,-16.388,-16.388,-3.219,-3.219,23.812,95.399,99.906,5.112,36.277,19.787,-2.992,23.465,9.419,10.825,7.549,4.052
Mon Dec 02 21:19:28 2024,45,-16.422,-16.422,-3.351,-3.351,22.875,94.312,99.976,5.071,35.749,19.243,-2.936,23.327,9.293,10.783,7.499,3.901
Mon Dec 02 21:19:28 2024,50,-16.471,-16.471,-3.370,-3.370,22.155,93.453,100.124,4.981,35.252,18.664,-2.927,23.218,9.148,10.730,7.472,3.814
Mon Dec 02 21:19:28 2024,55,-16.535,-16.535,-3.319,-3.319,21.487,92.641,100.342,4.847,34.718,17.999,-2.948,23.130,8.973,10.663,7.459,3.760
Mon Dec 02 21:19:28 2024,60,-16.589,-16.589,-3.276,-3.276,20.943,91.963,100.517,4.734,34.276,17.456,-2.968,23.077,8.828,10.607,7.447,3.715
Mon Dec 02 21:19:28 2024,65,-16.617,-16.617,-3.414,-3.414,20.286,91.194,100.382,4.754,33.804,17.018,-2.901,22.954,8.700,10.686,7.386,3.753
Mon Dec 02 21:19:28 2024,70,-16.640,-16.640,-3.524,-3.524,19.785,90.592,100.266,4.769,33.438,16.682,-2.848,22.869,8.600,10.749,7.338,3.783
Mon Dec 02 21:19:28 2024,75,-16.599,-16.599,-3.734,-3.734,19.073,89.813,100.239,4.736,32.998,16.309,-2.852,22.852,8.518,10.749,7.356,3.791
Mon Dec 02 21:19:28 2024,80,-16.526,-16.526,-3.946,-3.946,18.456,89.147,100.268,4.681,32.645,16.034,-2.892,22.891,8.472,10.708,7.412,3.777
Mon Dec 02 21:19:28 2024,85,-16.445,-16.445,-4.174,-4.174,17.775,88.355,100.265,4.621,32.253,15.749,-2.939,22.946,8.418,10.669,7.466,3.754
Mon Dec 02 21:19:28 2024,90,-16.387,-16.387,-4.254,-4.254,17.138,87.245,100.000,4.588,31.943,15.706,-2.981,23.010,8.347,10.701,7.440,3.646
Mon Dec 02 21:19:28 2024,95,-16.342,-16.342,-4.319,-4.319,16.648,86.349,99.765,4.559,31.692,15.671,-3.016,16.930,8.291,10.728,7.418,3.558
Mon Dec 02 21:19:28 2024,100,-16.248,-16.248,-4.346,-4.346,16.187,85.214,99.379,4.529,31.285,15.635,-3.117,16.752,8.212,10.669,7.408,3.510
Mon Dec 02 21:19:28 2024,105,-16.128,-16.128,-4.344,-4.344,15.831,84.006,98.893,4.500,30.801,15.602,-3.260,16.477,8.126,10.552,7.406,3.494
Mon Dec 02 21:19:28 2024,110,-16.099,-16.099,-4.276,-4.276,15.524,82.982,98.174,4.444,30.425,15.475,-3.384,16.237,7.986,10.447,7.432,3.464
Mon Dec 02 21:19:28 2024,115,-16.249,-16.249,-4.051,-4.051,15.128,82.037,96.766,4.322,30.164,15.106,-3.500,16.055,7.688,10.338,7.530,3.392
Mon Dec 02 21:19:28 2024,120,-16.409,-16.409,-3.813,-3.813,14.734,81.045,95.207,4.194,29.889,14.720,-3.624,15.861,7.375,10.224,7.635,3.318
Mon Dec 02 21:19:28 2024,125,-16.513,-16.513,-3.658,-3.658,14.490,80.404,94.150,4.110,29.710,14.471,-3.704,15.732,7.172,10.150,7.703,3.270
Mon Dec 02 21:19:28 2024,130,-16.591,-16.591,-3.542,-3.542,14.313,79.923,93.331,4.046,29.575,14.284,-3.765,15.636,7.021,10.094,7.753,3.235
Mon Dec 02 21:19:28 2024,135,-16.190,-16.190,-3.904,-3.904,12.636,80.564,88.551,4.160,29.807,12.307,-3.158,16.416,6.093,10.504,7.815,2.187
Mon Dec 02 21:19:28 2024,140,-16.193,-16.193,-4.020,-4.020,-5.169,77.731,82.557,4.302,29.880,11.980,-2.852,16.706,6.081,10.689,7.747,1.959
Mon Dec 02 21:19:28 2024,145,-16.200,-16.200,-4.147,-4.147,-10.487,74.897,75.670,4.453,29.960,11.639,-2.527,17.010,6.072,10.883,7.672,1.717
Mon Dec 02 21:19:28 2024,150,-16.359,-16.359,-4.134,-4.134,-9.310,70.020,66.184,4.406,29.486,11.679,-2.518,16.801,6.261,10.791,7.734,1.881
Mon Dec 02 21:19:28 2024,155,-16.651,-16.651,-4.024,-4.024,-7.571,63.464,54.493,4.235,28.603,11.992,-2.711,16.197,6.608,10.502,7.881,2.338
Mon Dec 02 21:19:28 2024,160,-16.794,-16.794,-4.057,-4.057,-6.322,57.963,46.083,4.016,27.697,12.213,-2.935,15.679,6.918,10.318,7.998,2.719
Mon Dec 02 21:19:28 2024,165,-16.665,-16.665,-4.295,-4.295,-5.309,54.193,41.491,3.726,26.828,12.259,-3.205,15.373,7.131,10.297,8.082,2.948
Mon Dec 02 21:19:28 2024,170,-16.557,-16.557,-4.497,-4.497,-4.550,51.074,37.999,3.486,26.106,12.297,-3.432,15.114,7.312,10.277,8.154,3.138
Mon Dec 02 21:19:28 2024,175,-16.600,-16.600,-4.441,-4.441,-3.965,48.086,34.193,3.286,25.622,12.234,-3.667,14.838,7.365,10.252,8.241,3.287
Mon Dec 02 21:19:28 2024,180,-16.674,-16.674,-4.329,-4.329,-3.626,46.052,31.491,3.158,25.355,12.162,-3.833,14.642,7.366,10.232,8.305,3.380
Mon Dec 02 21:19:28 2024,185,-16.716,-16.716,-4.209,-4.209,-3.312,43.741,28.527,3.044,25.068,12.020,-3.927,14.551,7.383,10.228,8.347,3.472
Mon Dec 02 21:19:28 2024,190,-16.676,-16.676,-4.123,-4.123,-3.169,41.836,26.135,3.003,24.865,11.800,-3.832,14.712,7.423,10.260,8.325,3.522
Mon Dec 02 21:19:28 2024,195,-16.643,-16.643,-4.052,-4.052,-3.075,40.236,24.184,2.969,24.694,11.613,-3.752,14.848,7.457,10.287,8.307,3.564
Mon Dec 02 21:19:28 2024,200,-16.617,-16.617,-3.996,-3.996,-3.017,38.974,22.692,2.940,24.560,11.466,-3.688,14.956,7.486,10.309,8.292,3.598
Mon Dec 02 21:19:28 2024,205,-16.514,-16.514,-3.996,-3.996,-2.906,37.947,21.163,2.958,24.432,11.311,-3.616,14.990,7.428,10.405,8.266,3.590
Mon Dec 02 21:19:28 2024,210,-16.391,-16.391,-4.026,-4.026,-2.807,36.959,19.516,2.959,24.264,11.125,-3.519,15.022,7.360,10.557,8.211,3.582
Mon Dec 02 21:19:28 2024,215,-16.378,-16.378,-4.062,-4.062,-2.886,35.908,17.959,2.801,23.966,10.886,-3.374,15.190,7.438,10.726,8.091,3.657
Mon Dec 02 21:19:28 2024,220,-16.363,-16.363,-4.088,-4.088,-2.944,35.079,16.752,2.686,23.742,10.702,-3.262,15.316,7.494,10.856,8.000,3.714
Mon Dec 02 21:19:28 2024,225,-16.343,-16.343,-4.043,-4.043,-3.029,33.896,15.308,2.498,23.383,10.520,-3.093,15.480,7.579,10.924,7.943,3.771
Mon Dec 02 21:19:28 2024,230,-16.326,-16.326,-3.974,-3.974,-3.113,32.838,14.115,2.318,23.047,10.385,-2.935,15.623,7.659,10.942,7.917,3.816
Mon Dec 02 21:19:28 2024,235,-16.312,-16.312,-3.909,-3.909,-3.200,31.856,13.014,2.146,22.733,10.257,-2.786,15.756,7.735,10.960,7.892,3.860
Mon Dec 02 21:19:28 2024,240,-16.253,-16.253,-4.078,-4.078,-3.448,30.759,11.894,1.783,22.056,9.982,-2.744,15.843,7.829,10.922,8.072,4.120
Mon Dec 02 21:19:28 2024,245,-16.210,-16.210,-4.158,-4.158,-3.596,29.960,11.052,1.546,21.654,9.801,-2.688,15.902,7.887,10.907,8.152,4.261
Mon Dec 02 21:19:28 2024,250,-16.044,-16.044,-4.306,-4.306,-3.585,29.225,10.327,1.346,18.647,9.610,-2.709,15.648,7.781,10.921,8.136,4.204
Mon Dec 02 21:19:28 2024,255,-15.927,-15.927,-4.417,-4.417,-3.585,28.693,9.802,1.191,18.780,9.468,-2.728,15.452,7.702,10.931,8.125,4.162
Mon Dec 02 21:19:28 2024,260,-15.801,-15.801,-4.541,-4.541,-3.592,28.104,9.221,1.010,18.812,9.309,-2.754,15.225,7.611,10.943,8.111,4.116
Mon Dec 02 21:19:28 2024,265,-15.734,-15.734,-4.610,-4.610,-3.600,27.790,8.910,0.909,18.764,9.222,-2.770,15.098,7.560,10.949,8.104,4.091
Mon Dec 02 21:19:28 2024,270,-15.736,-15.736,-4.592,-4.592,-3.687,27.425,8.572,0.731,18.449,8.970,-2.697,15.075,7.455,10.916,8.190,4.072
Mon Dec 02 21:19:28 2024,275,-15.772,-15.772,-4.517,-4.517,-3.906,26.671,7.865,0.328,17.609,8.373,-2.507,15.069,7.214,10.830,8.406,4.037
Mon Dec 02 21:19:28 2024,280,-15.752,-15.752,-4.528,-4.528,-4.007,26.250,7.417,0.094,17.076,8.079,-2.443,14.981,7.086,10.802,8.484,4.008
Mon Dec 02 21:19:28 2024,285,-15.720,-15.720,-4.584,-4.584,-4.116,25.914,7.082,-0.128,16.519,7.767,-2.366,14.954,6.962,10.725,8.550,3.912
Mon Dec 02 21:19:28 2024,290,-15.657,-15.657,-4.733,-4.733,-4.283,25.555,6.754,-0.418,15.691,7.290,-2.236,15.004,6.787,10.542,8.632,3.681
Mon Dec 02 21:19:28 2024,295,-15.620,-15.620,-4.801,-4.801,-4.397,25.343,6.501,-0.609,15.150,6.965,-2.144,15.008,6.642,10.434,8.697,3.538
Mon Dec 02 21:19:28 2024,300,-15.614,-15.614,-4.689,-4.689,-4.442,25.185,6.258,-0.630,14.984,6.732,-2.059,14.903,6.411,10.431,8.784,3.482
Mon Dec 02 21:19:28 2024,305,-15.608,-15.608,-4.571,-4.571,-4.492,25.045,6.005,-0.654,14.809,6.487,-1.970,14.787,6.168,10.430,8.871,3.423
Mon Dec 02 21:19:28 2024,310,-15.606,-15.606,-4.480,-4.480,-4.533,24.955,5.809,-0.673,14.672,6.296,-1.902,14.694,5.980,10.430,8.934,3.378
Mon Dec 02 21:19:28 2024,315,-15.570,-15.570,-4.427,-4.427,-4.591,24.878,5.667,-0.622,14.436,6.216,-1.680,14.863,6.074,10.513,8.869,3.409
Mon Dec 02 21:19:28 2024,320,-15.528,-15.528,-4.398,-4.398,-4.656,24.846,5.570,-0.596,14.253,6.180,-1.492,15.029,6.169,10.550,8.840,3.414
Mon Dec 02 21:19:28 2024,325,-15.477,-15.477,-4.392,-4.392,-4.740,24.877,5.520,-0.648,14.192,6.174,-1.406,15.114,6.168,10.458,8.936,3.324
Mon Dec 02 21:19:28 2024,330,-15.433,-15.433,-4.372,-4.372,-4.821,24.913,5.474,-0.698,14.124,6.168,-1.324,15.183,6.165,10.363,9.027,3.242
Mon Dec 02 21:19:28 2024,335,-15.441,-15.441,-4.235,-4.235,-4.887,24.925,5.446,-0.728,14.015,6.156,-1.262,15.156,6.155,10.263,9.088,3.207
Mon Dec 02 21:19:28 2024,340,-15.471,-15.471,-4.071,-4.071,-4.933,24.939,5.431,-0.744,13.906,6.144,-1.222,15.090,6.145,10.178,9.121,3.200
Mon Dec 02 21:19:28 2024,345,-15.477,-15.477,-3.977,-3.977,-4.992,24.988,5.388,-0.798,13.842,6.105,-1.188,15.092,6.122,10.098,9.177,3.173
Mon Dec 02 21:19:28 2024,350,-15.446,-15.446,-4.010,-4.010,-5.056,25.050,5.319,-0.894,13.856,6.042,-1.168,15.192,6.086,10.049,9.252,3.124
Mon Dec 02 21:19:28 2024,355,-15.419,-15.419,-4.029,-4.029,-5.107,25.104,5.253,-0.988,13.838,5.980,-1.155,15.260,6.052,10.003,9.316,3.083
Mon Dec 02 21:19:28 2024,360,-15.414,-15.414,-3.985,-3.985,-5.110,25.114,5.197,-1.093,13.649,5.913,-1.164,15.168,6.023,9.975,9.333,3.085
Mon Dec 02 21:19:28 2024,365,-15.418,-15.418,-3.911,-3.911,-5.094,25.115,5.140,-1.212,13.373,5.838,-1.184,15.002,5.993,9.949,9.331,3.102
Mon Dec 02 21:19:28 2024,370,-15.387,-15.387,-3.869,-3.869,-5.071,25.103,5.113,-1.256,13.225,5.808,-1.167,14.923,5.969,9.968,9.296,3.083
Mon Dec 02 21:19:28 2024,375,-15.324,-15.324,-3.847,-3.847,-5.040,25.076,5.106,-1.248,13.154,5.809,-1.118,14.901,5.947,10.026,9.229,3.029
Mon Dec 02 21:19:28 2024,380,-15.269,-15.269,-3.827,-3.827,-5.012,25.052,5.101,-1.241,13.091,5.808,-1.074,14.880,5.927,10.078,9.167,2.980
Mon Dec 02 21:19:28 2024,385,-15.223,-15.223,-3.811,-3.811,-4.988,25.033,5.096,-1.236,13.037,5.808,-1.037,14.862,5.910,10.122,9.116,2.939
Mon Dec 02 21:19:28 2024,390,-15.122,-15.122,-4.098,-4.098,-5.151,25.224,5.030,-1.459,12.808,5.709,-1.171,15.000,6.014,10.074,9.257,2.966
Mon Dec 02 21:19:28 2024,395,-15.082,-15.082,-4.074,-4.074,-5.141,25.225,4.999,-1.433,12.753,5.701,-1.137,14.987,6.016,10.105,9.237,2.986
Mon Dec 02 21:19:28 2024,400,-15.065,-15.065,-3.892,-3.892,-5.053,25.145,4.967,-1.277,12.766,5.733,-1.017,14.899,5.980,10.175,9.150,3.035
Mon Dec 02 21:19:28 2024,405,-15.051,-15.051,-3.767,-3.767,-4.992,25.088,4.953,-1.163,12.777,5.763,-0.928,14.852,5.966,10.233,9.087,3.077
Mon Dec 02 21:19:28 2024,410,-15.024,-15.024,-3.811,-3.811,-5.015,25.098,5.070,-1.141,12.806,5.851,-0.893,15.068,6.113,10.338,9.066,3.161
Mon Dec 02 21:19:28 2024,415,-15.002,-15.002,-3.849,-3.849,-5.034,25.107,5.169,-1.122,12.830,5.925,-0.864,15.249,6.237,10.425,9.044,3.232
Mon Dec 02 21:19:28 2024,420,-15.001,-15.001,-3.830,-3.830,-5.077,25.147,5.136,-1.121,12.890,5.896,-0.870,15.338,6.220,10.434,9.055,3.195
Mon Dec 02 21:19:28 2024,425,-15.011,-15.011,-3.789,-3.789,-5.124,25.194,5.047,-1.128,12.958,5.825,-0.893,15.374,6.141,10.406,9.079,3.115
Mon Dec 02 21:19:28 2024,430,-15.017,-15.017,-3.747,-3.747,-5.161,25.237,4.964,-1.122,13.043,5.783,-0.897,15.425,6.089,10.395,9.090,3.064
Mon Dec 02 21:19:28 2024,435,-15.009,-15.009,-3.732,-3.732,-5.143,25.238,4.952,-1.080,13.114,5.853,-0.849,15.484,6.150,10.436,9.054,3.128
Mon Dec 02 21:19:28 2024,440,-15.002,-15.002,-3.716,-3.716,-5.123,14.759,4.940,-1.036,13.191,5.928,-0.798,15.546,6.215,10.481,9.016,3.197
Mon Dec 02 21:19:28 2024,445,-14.978,-14.978,-3.714,-3.714,-5.084,14.776,4.931,-1.004,13.183,5.959,-0.842,15.445,6.206,10.465,9.012,3.208
Mon Dec 02 21:19:28 2024,450,-14.931,-14.931,-3.730,-3.730,-5.019,14.820,4.928,-0.987,13.070,5.936,-1.004,15.138,6.108,10.374,9.046,3.152
Mon Dec 02 21:19:28 2024,455,-14.890,-14.890,-3.763,-3.763,-4.978,14.840,4.936,-0.953,13.057,5.964,-1.072,15.003,6.074,10.317,9.068,3.118
Mon Dec 02 21:19:28 2024,460,-14.844,-14.844,-3.847,-3.847,-4.980,14.832,4.971,-0.892,13.198,6.069,-1.005,15.127,6.126,10.288,9.090,3.087
Mon Dec 02 21:19:28 2024,465,-14.797,-14.797,-3.937,-3.937,-4.985,14.820,5.010,-0.828,13.354,6.183,-0.926,15.273,6.187,10.259,9.113,3.056
Mon Dec 02 21:19:28 2024,470,-14.763,-14.763,-3.902,-3.902,-5.010,14.762,5.005,-0.757,13.528,6.240,-0.926,15.155,6.125,10.323,9.032,3.076
Mon Dec 02 21:19:28 2024,475,-14.741,-14.741,-3.855,-3.855,-5.033,14.712,4.993,-0.705,13.653,6.269,-0.940,15.023,6.060,10.384,8.956,3.100
Mon Dec 02 21:19:28 2024,480,-14.712,-14.712,-3.812,-3.812,-5.048,14.659,4.988,-0.644,13.912,6.357,-0.992,14.912,6.013,10.400,8.917,3.116
Mon Dec 02 21:19:28 2024,485,-14.684,-14.684,-3.796,-3.796,-5.042,14.629,4.996,-0.594,14.289,6.510,-1.088,14.890,6.018,10.324,8.964,3.110
Mon Dec 02 21:19:28 2024,490,-14.660,-14.660,-3.783,-3.783,-5.038,14.602,5.002,-0.552,14.612,6.640,-1.170,14.869,6.022,10.258,9.003,3.106
Mon Dec 02 21:19:28 2024,495,-14.672,-14.672,-3.699,-3.699,-4.985,14.598,4.988,-0.313,15.193,6.798,-1.278,14.648,5.887,10.339,8.883,3.050
Mon Dec 02 21:19:28 2024,500,-14.686,-14.686,-3.627,-3.627,-4.939,14.595,4.975,-0.114,15.649,6.916,-1.360,14.456,5.767,10.420,8.770,3.000
Mon Dec 02 21:19:28 2024,505,-14.666,-14.666,-3.602,-3.602,-4.914,14.569,5.018,0.133,16.267,7.142,-1.530,14.228,5.673,10.421,8.679,2.920
Mon Dec 02 21:19:28 2024,510,-14.607,-14.607,-3.625,-3.625,-4.905,14.508,5.139,0.411,17.221,7.551,-1.845,13.894,5.583,10.331,8.584,2.785
Mon Dec 02 21:19:28 2024,515,-14.563,-14.563,-3.643,-3.643,-4.900,14.452,5.241,0.659,17.964,7.890,-2.113,13.609,5.508,10.252,8.493,2.671
Mon Dec 02 21:19:28 2024,520,-14.576,-14.576,-3.567,-3.567,-4.913,14.417,5.232,1.009,18.550,8.202,-2.389,13.365,5.479,10.251,8.466,2.695
Mon Dec 02 21:19:28 2024,525,-14.587,-14.587,-3.484,-3.484,-4.927,14.374,5.227,1.403,18.589,8.566,-2.711,13.071,5.442,10.245,8.431,2.714
Mon Dec 02 21:19:28 2024,530,-14.578,-14.578,-3.422,-3.422,-4.933,14.353,5.265,1.922,22.206,9.014,-2.914,12.895,5.391,10.123,8.409,2.590
Mon Dec 02 21:19:28 2024,535,-14.553,-14.553,-3.363,-3.363,-4.934,14.342,5.338,2.609,23.505,9.591,-3.064,12.779,5.325,9.897,8.384,2.347
Mon Dec 02 21:19:28 2024,540,-14.534,-14.534,-3.316,-3.316,-4.935,14.333,5.398,3.159,24.618,10.055,-3.186,12.685,5.273,9.714,8.350,2.154
Mon Dec 02 21:19:28 2024,545,-14.555,-14.555,-3.204,-3.204,-4.895,14.340,5.504,3.627,25.504,10.486,-3.143,12.894,5.516,9.606,8.322,2.220
Mon Dec 02 21:19:28 2024,550,-14.574,-14.574,-3.098,-3.098,-4.856,14.347,5.606,4.070,26.361,10.898,-3.106,13.088,5.743,9.503,8.290,2.277
Mon Dec 02 21:19:28 2024,555,-14.501,-14.501,-3.029,-3.029,-4.772,14.413,5.744,4.438,27.074,11.290,-3.015,13.365,5.949,9.453,8.236,2.296
Mon Dec 02 21:19:28 2024,560,-14.398,-14.398,-2.979,-2.979,-4.675,14.498,5.889,4.757,27.696,11.656,-2.910,13.659,6.137,9.425,8.177,2.299
Mon Dec 02 21:19:28 2024,565,-14.289,-14.289,-2.925,-2.925,-4.569,14.590,6.046,5.098,28.368,12.050,-2.798,13.975,6.341,9.396,8.111,2.302
Mon Dec 02 21:19:28 2024,570,-14.301,-14.301,-2.813,-2.813,-4.588,14.538,6.056,5.368,28.957,12.433,-2.899,13.844,6.402,9.303,8.041,2.221
Mon Dec 02 21:19:28 2024,575,-14.303,-14.303,-2.732,-2.732,-4.592,14.508,6.076,5.585,29.424,12.733,-2.961,13.777,6.461,9.235,7.984,2.166
Mon Dec 02 21:19:28 2024,580,-14.244,-14.244,-2.764,-2.764,-4.601,14.488,6.118,5.843,29.977,13.182,-2.929,13.844,6.597,9.238,7.890,2.149
Mon Dec 02 21:19:28 2024,585,-14.147,-14.147,-2.871,-2.871,-4.614,14.476,6.174,6.122,30.574,13.722,-2.836,13.998,6.783,9.288,7.775,2.159
Mon Dec 02 21:19:28 2024,590,-14.076,-14.076,-2.950,-2.950,-4.622,14.467,6.218,6.331,31.022,14.128,-2.768,14.114,6.922,9.326,7.690,2.166
Mon Dec 02 21:19:28 2024,595,-13.996,-13.996,-2.777,-2.777,-4.535,14.543,6.417,6.552,31.559,14.914,-2.544,14.465,7.176,9.475,7.505,2.173
Mon Dec 02 21:19:28 2024,600,-13.923,-13.923,-2.532,-2.532,-4.422,14.640,6.652,6.756,32.079,15.770,-2.287,14.866,7.446,9.647,7.304,2.179
Mon Dec 02 21:19:28 2024,605,-13.837,-13.837,-2.480,-2.480,-4.273,14.732,6.794,6.946,32.704,17.017,-1.996,15.434,7.776,9.965,7.142,2.258
Mon Dec 02 21:19:28 2024,610,-13.756,-13.756,-2.479,-2.479,-4.120,14.816,6.902,7.106,33.299,18.306,-1.718,16.014,8.097,10.304,6.997,2.352
Mon Dec 02 21:19:28 2024,615,-13.654,-13.654,-2.441,-2.441,-3.975,14.793,7.030,7.335,34.098,20.001,-1.403,16.735,8.358,10.693,6.753,2.321
Mon Dec 02 21:19:28 2024,620,-13.574,-13.574,-2.378,-2.378,-3.907,14.637,7.123,7.542,34.775,21.405,-1.185,17.295,8.426,10.962,6.510,2.167
Mon Dec 02 21:19:28 2024,625,-13.474,-13.474,-2.297,-2.297,-3.820,14.421,7.240,7.802,35.646,23.235,-0.914,18.003,8.506,11.303,6.200,2.017
Mon Dec 02 21:19:28 2024,630,-13.496,-13.496,-2.196,-2.196,-3.798,14.070,7.046,8.017,36.630,24.785,-0.898,18.582,8.331,11.621,5.902,1.933
