Timestamp,Millis,thumb_tm_aa,thumb_tm_flex,thumb_mcp_aa,thumb_mcp_flex,index_mcp_aa,index_mcp_flex,index_pip,middle_mcp_aa,middle_mcp_flex,middle_pip,ring_mcp_aa,ring_mcp_flex,ring_pip,little_mcp_aa,little_mcp_flex,little_pip
Mon Dec 02 21:11:52 2024,260,-19.749,-19.749,-1.370,-1.370,-1.249,15.313,8.292,2.036,14.394,10.708,-4.766,9.456,7.880,16.558,2.728,7.384
Mon Dec 02 21:11:52 2024,265,-19.752,-19.752,-1.380,-1.380,-1.293,15.156,8.320,2.026,14.272,10.679,-4.877,9.195,7.815,16.466,2.840,7.448
Mon Dec 02 21:11:52 2024,270,-19.743,-19.743,-1.404,-1.404,-1.256,15.214,8.320,2.117,14.382,10.790,-4.834,9.190,7.845,16.514,2.768,7.413
Mon Dec 02 21:11:52 2024,275,-19.735,-19.735,-1.424,-1.424,-1.223,15.266,8.319,2.193,14.474,10.884,-4.796,9.193,7.871,16.557,2.704,7.383
Mon Dec 02 21:11:52 2024,280,-19.720,-19.720,-1.441,-1.441,-1.205,15.314,8.305,2.300,14.582,10.960,-4.742,9.217,7.865,16.579,2.668,7.330
Mon Dec 02 21:11:52 2024,285,-19.703,-19.703,-1.447,-1.447,-1.214,15.336,8.282,2.398,14.664,10.979,-4.693,9.257,7.820,16.564,2.683,7.272
Mon Dec 02 21:11:52 2024,290,-19.692,-19.692,-1.442,-1.442,-1.230,15.331,8.258,2.491,14.755,11.013,-4.639,9.310,7.793,16.557,2.687,7.215
Mon Dec 02 21:11:52 2024,295,-19.715,-19.715,-1.404,-1.404,-1.260,15.229,8.246,2.493,14.830,11.076,-4.603,9.369,7.851,16.587,2.648,7.199
Mon Dec 02 21:11:52 2024,300,-19.747,-19.747,-1.353,-1.353,-1.297,15.090,8.234,2.475,14.913,11.153,-4.565,9.439,7.938,16.630,2.593,7.191
Mon Dec 02 21:11:52 2024,305,-19.756,-19.756,-1.347,-1.347,-1.293,15.046,8.219,2.451,14.880,11.112,-4.509,9.567,7.941,16.639,2.585,7.129
Mon Dec 02 21:11:52 2024,310,-19.749,-19.749,-1.371,-1.371,-1.262,15.063,8.199,2.422,14.770,10.994,-4.439,9.734,7.889,16.625,2.606,7.033
Mon Dec 02 21:11:52 2024,315,-19.746,-19.746,-1.386,-1.386,-1.235,15.061,8.178,2.396,14.684,10.902,-4.388,9.852,7.841,16.602,2.631,6.950
Mon Dec 02 21:11:52 2024,320,-19.754,-19.754,-1.376,-1.376,-1.224,14.999,8.151,2.383,14.686,10.903,-4.392,9.805,7.805,16.548,2.660,6.912
Mon Dec 02 21:11:52 2024,325,-19.764,-19.764,-1.361,-1.361,-1.212,14.920,8.120,2.367,14.696,10.911,-4.403,9.735,7.765,16.481,2.696,6.872
Mon Dec 02 21:11:52 2024,330,-19.795,-19.795,-1.352,-1.352,-1.218,14.850,8.084,2.343,14.698,10.890,-4.410,9.704,7.751,16.491,2.691,6.874
Mon Dec 02 21:11:52 2024,335,-19.833,-19.833,-1.346,-1.346,-1.231,14.787,8.047,2.316,14.697,10.858,-4.417,9.690,7.750,16.532,2.670,6.894
Mon Dec 02 21:11:52 2024,340,-19.858,-19.858,-1.347,-1.347,-1.240,14.720,8.036,2.268,14.656,10.832,-4.439,9.648,7.759,16.538,2.672,6.930
Mon Dec 02 21:11:52 2024,345,-19.856,-19.856,-1.362,-1.362,-1.236,14.654,8.091,2.175,14.535,10.830,-4.497,9.551,7.791,16.463,2.731,6.992
Mon Dec 02 21:11:52 2024,350,-19.854,-19.854,-1.375,-1.375,-1.232,14.601,8.142,2.098,14.433,10.832,-4.548,9.468,7.816,16.399,2.781,7.043
Mon Dec 02 21:11:52 2024,355,-19.866,-19.866,-1.376,-1.376,-1.232,14.597,8.169,2.094,14.450,10.854,-4.566,9.457,7.808,16.392,2.783,7.028
Mon Dec 02 21:11:52 2024,360,-19.903,-19.903,-1.357,-1.357,-1.241,14.674,8.158,2.217,14.666,10.913,-4.530,9.568,7.741,16.482,2.703,6.900
Mon Dec 02 21:11:52 2024,365,-19.930,-19.930,-1.318,-1.318,-1.245,14.720,8.156,2.308,14.815,10.952,-4.495,9.637,7.697,16.522,2.662,6.810
Mon Dec 02 21:11:52 2024,370,-19.928,-19.928,-1.234,-1.234,-1.236,14.684,8.175,2.316,14.808,10.936,-4.466,9.603,7.717,16.434,2.726,6.816
Mon Dec 02 21:11:52 2024,375,-19.927,-19.927,-1.158,-1.158,-1.228,14.650,8.192,2.324,14.802,10.922,-4.440,9.571,7.735,16.351,2.782,6.823
Mon Dec 02 21:11:52 2024,380,-19.915,-19.915,-1.168,-1.168,-1.237,14.744,8.232,2.391,14.876,10.992,-4.421,9.651,7.774,16.426,2.746,6.898
Mon Dec 02 21:11:52 2024,385,-19.900,-19.900,-1.202,-1.202,-1.251,14.873,8.276,2.474,14.967,11.084,-4.403,9.762,7.816,16.544,2.682,6.992
Mon Dec 02 21:11:52 2024,390,-19.873,-19.873,-1.259,-1.259,-1.274,14.919,8.295,2.513,15.050,11.170,-4.374,9.852,7.861,16.596,2.651,7.009
Mon Dec 02 21:11:52 2024,395,-19.839,-19.839,-1.329,-1.329,-1.303,14.849,8.275,2.486,15.104,11.228,-4.336,9.892,7.900,16.547,2.673,6.923
Mon Dec 02 21:11:52 2024,400,-19.803,-19.803,-1.404,-1.404,-1.335,14.774,8.254,2.458,15.161,11.289,-4.296,9.935,7.941,16.495,2.697,6.831
Mon Dec 02 21:11:52 2024,405,-19.831,-19.831,-1.380,-1.380,-1.381,14.779,8.249,2.441,15.180,11.248,-4.305,9.997,7.955,16.515,2.709,6.875
Mon Dec 02 21:11:52 2024,410,-19.869,-19.869,-1.341,-1.341,-1.431,14.796,8.246,2.425,15.194,11.191,-4.322,10.065,7.966,16.546,2.720,6.940
Mon Dec 02 21:11:52 2024,415,-19.866,-19.866,-1.345,-1.345,-1.431,14.791,8.227,2.449,15.208,11.172,-4.311,10.102,7.931,16.563,2.708,6.895
Mon Dec 02 21:11:52 2024,420,-19.815,-19.815,-1.397,-1.397,-1.373,14.761,8.190,2.519,15.221,11.196,-4.268,10.107,7.843,16.565,2.671,6.722
Mon Dec 02 21:11:52 2024,425,-19.776,-19.776,-1.430,-1.430,-1.323,14.730,8.165,2.573,15.217,11.218,-4.234,10.102,7.783,16.564,2.644,6.600
Mon Dec 02 21:11:52 2024,430,-19.780,-19.780,-1.374,-1.374,-1.288,14.680,8.200,2.565,15.127,11.242,-4.233,10.046,7.846,16.540,2.665,6.698
Mon Dec 02 21:11:52 2024,435,-19.790,-19.790,-1.318,-1.318,-1.269,14.626,8.226,2.543,15.049,11.258,-4.234,10.005,7.909,16.521,2.687,6.798
Mon Dec 02 21:11:52 2024,440,-19.808,-19.808,-1.285,-1.285,-1.303,14.528,8.195,2.486,15.025,11.247,-4.221,10.026,7.941,16.518,2.704,6.834
Mon Dec 02 21:11:52 2024,445,-19.831,-19.831,-1.294,-1.294,-1.397,14.399,8.096,2.396,15.081,11.203,-4.194,10.126,7.923,16.537,2.708,6.776
Mon Dec 02 21:11:52 2024,450,-19.847,-19.847,-1.304,-1.304,-1.469,14.300,8.023,2.324,15.124,11.170,-4.171,10.219,7.914,16.562,2.706,6.738
Mon Dec 02 21:11:52 2024,455,-19.819,-19.819,-1.328,-1.328,-1.412,14.390,8.105,2.360,15.095,11.195,-4.177,10.259,7.962,16.619,2.671,6.808
Mon Dec 02 21:11:52 2024,460,-19.794,-19.794,-1.346,-1.346,-1.354,14.479,8.185,2.400,15.065,11.222,-4.184,10.282,8.004,16.665,2.641,6.876
Mon Dec 02 21:11:52 2024,465,-19.756,-19.756,-1.407,-1.407,-1.318,14.540,8.211,2.402,15.048,11.213,-4.193,10.325,8.019,16.668,2.654,6.907
Mon Dec 02 21:11:52 2024,470,-19.716,-19.716,-1.490,-1.490,-1.308,14.562,8.184,2.372,15.048,11.178,-4.200,10.376,8.009,16.634,2.702,6.900
Mon Dec 02 21:11:52 2024,475,-19.697,-19.697,-1.526,-1.526,-1.302,14.568,8.151,2.348,15.048,11.144,-4.200,10.407,7.990,16.611,2.729,6.877
Mon Dec 02 21:11:52 2024,480,-19.727,-19.727,-1.460,-1.460,-1.304,14.535,8.068,2.329,15.054,11.086,-4.178,10.407,7.929,16.601,2.716,6.794
Mon Dec 02 21:11:52 2024,485,-19.759,-19.759,-1.390,-1.390,-1.306,14.501,7.990,2.313,15.060,11.032,-4.156,10.404,7.872,16.594,2.700,6.714
Mon Dec 02 21:11:52 2024,490,-19.771,-19.771,-1.360,-1.360,-1.268,14.470,7.987,2.325,14.956,11.027,-4.156,10.330,7.868,16.598,2.700,6.740
Mon Dec 02 21:11:52 2024,495,-19.777,-19.777,-1.347,-1.347,-1.226,14.444,8.008,2.345,14.837,11.036,-4.163,10.248,7.881,16.604,2.705,6.792
Mon Dec 02 21:11:52 2024,500,-19.784,-19.784,-1.336,-1.336,-1.217,14.394,8.017,2.342,14.769,11.042,-4.181,10.174,7.886,16.596,2.716,6.822
Mon Dec 02 21:11:52 2024,505,-19.797,-19.797,-1.331,-1.331,-1.295,14.288,7.990,2.283,14.847,11.040,-4.224,10.141,7.874,16.549,2.739,6.793
Mon Dec 02 21:11:52 2024,510,-19.811,-19.811,-1.327,-1.327,-1.377,14.181,7.963,2.223,14.931,11.038,-4.269,10.110,7.860,16.500,2.762,6.761
Mon Dec 02 21:11:52 2024,515,-19.829,-19.829,-1.360,-1.360,-1.381,14.165,7.974,2.231,14.948,11.039,-4.248,10.143,7.856,16.479,2.772,6.747
Mon Dec 02 21:11:52 2024,520,-19.847,-19.847,-1.400,-1.400,-1.358,14.181,7.995,2.262,14.940,11.041,-4.209,10.192,7.856,16.469,2.775,6.741
Mon Dec 02 21:11:52 2024,525,-19.865,-19.865,-1.439,-1.439,-1.336,14.198,8.017,2.292,14.932,11.042,-4.170,10.241,7.855,16.460,2.779,6.735
Mon Dec 02 21:11:52 2024,530,-19.850,-19.850,-1.335,-1.335,-1.307,14.282,8.076,2.381,14.983,11.129,-4.095,10.307,7.900,16.566,2.693,6.746
Mon Dec 02 21:11:52 2024,535,-19.836,-19.836,-1.240,-1.240,-1.285,14.357,8.128,2.462,15.036,11.205,-4.021,10.384,7.940,16.666,2.615,6.758
Mon Dec 02 21:11:52 2024,540,-19.829,-19.829,-1.222,-1.222,-1.336,14.331,8.098,2.434,15.117,11.168,-4.003,10.498,7.933,16.678,2.629,6.769
Mon Dec 02 21:11:52 2024,545,-19.821,-19.821,-1.220,-1.220,-1.405,14.281,8.050,2.382,15.206,11.105,-3.997,10.624,7.916,16.671,2.662,6.780
Mon Dec 02 21:11:52 2024,550,-19.808,-19.808,-1.249,-1.249,-1.452,14.264,8.037,2.351,15.263,11.095,-4.001,10.671,7.921,16.670,2.678,6.812
Mon Dec 02 21:11:52 2024,555,-19.789,-19.789,-1.316,-1.316,-1.453,14.300,8.081,2.360,15.255,11.166,-4.019,10.584,7.957,16.678,2.663,6.864
Mon Dec 02 21:11:52 2024,560,-19.770,-19.770,-1.385,-1.385,-1.453,14.337,8.126,2.369,15.246,11.239,-4.037,10.495,7.994,16.687,2.649,6.918
Mon Dec 02 21:11:52 2024,565,-19.766,-19.766,-1.358,-1.358,-1.407,14.304,8.084,2.347,15.151,11.152,-4.025,10.462,7.955,16.613,2.705,6.871
Mon Dec 02 21:11:52 2024,570,-19.763,-19.763,-1.326,-1.326,-1.360,14.267,8.039,2.324,15.057,11.061,-4.011,10.435,7.913,16.539,2.760,6.820
Mon Dec 02 21:11:52 2024,575,-19.735,-19.735,-1.326,-1.326,-1.342,14.246,8.006,2.331,15.038,11.013,-4.003,10.468,7.883,16.520,2.784,6.795
Mon Dec 02 21:11:52 2024,580,-19.688,-19.688,-1.358,-1.358,-1.356,14.246,7.994,2.366,15.101,11.020,-4.002,10.555,7.873,16.564,2.768,6.802
Mon Dec 02 21:11:52 2024,585,-19.649,-19.649,-1.377,-1.377,-1.365,14.240,7.982,2.396,15.145,11.028,-4.004,10.621,7.856,16.592,2.759,6.795
Mon Dec 02 21:11:52 2024,590,-19.654,-19.654,-1.328,-1.328,-1.347,14.199,7.972,2.393,15.081,11.034,-4.021,10.565,7.809,16.533,2.794,6.709
Mon Dec 02 21:11:52 2024,595,-19.666,-19.666,-1.270,-1.270,-1.326,14.155,7.962,2.386,15.002,11.039,-4.041,10.492,7.760,16.463,2.833,6.615
Mon Dec 02 21:11:52 2024,600,-19.635,-19.635,-1.354,-1.354,-1.312,14.182,7.954,2.360,15.006,11.012,-4.044,10.509,7.762,16.485,2.832,6.633
Mon Dec 02 21:11:52 2024,605,-19.578,-19.578,-1.523,-1.523,-1.306,14.254,7.947,2.322,15.066,10.967,-4.038,10.583,7.796,16.567,2.804,6.725
Mon Dec 02 21:11:52 2024,610,-19.539,-19.539,-1.649,-1.649,-1.310,14.332,7.952,2.284,15.119,10.924,-4.040,10.651,7.822,16.628,2.787,6.807
Mon Dec 02 21:11:52 2024,615,-19.589,-19.589,-1.549,-1.549,-1.356,14.397,8.001,2.258,15.124,10.912,-4.079,10.660,7.799,16.574,2.832,6.811
Mon Dec 02 21:11:52 2024,620,-19.632,-19.632,-1.455,-1.455,-1.402,14.445,8.049,2.236,15.118,10.906,-4.117,10.661,7.785,16.512,2.885,6.817
Mon Dec 02 21:11:52 2024,625,-19.640,-19.640,-1.417,-1.417,-1.430,14.448,8.076,2.227,15.095,10.914,-4.135,10.652,7.792,16.464,2.927,6.826
Mon Dec 02 21:11:52 2024,630,-19.580,-19.580,-1.483,-1.483,-1.428,14.357,8.068,2.244,15.030,10.951,-4.122,10.614,7.848,16.426,2.965,6.844
Mon Dec 02 21:11:52 2024,635,-19.538,-19.538,-1.526,-1.526,-1.414,14.284,8.055,2.259,14.966,10.978,-4.114,10.550,7.879,16.386,3.000,6.847
Mon Dec 02 21:11:52 2024,640,-19.552,-19.552,-1.506,-1.506,-1.365,14.259,8.024,2.264,14.903,10.970,-4.126,10.405,7.832,16.336,3.024,6.803
Mon Dec 02 21:11:52 2024,645,-19.562,-19.562,-1.490,-1.490,-1.328,14.240,8.001,2.268,14.855,10.963,-4.134,10.296,7.796,16.299,3.042,6.770
Mon Dec 02 21:11:52 2024,650,-19.562,-19.562,-1.470,-1.470,-1.310,14.340,8.070,2.286,14.866,11.003,-4.097,10.377,7.855,16.367,2.994,6.848
Mon Dec 02 21:11:52 2024,655,-19.556,-19.556,-1.452,-1.452,-1.306,14.469,8.165,2.307,14.899,11.055,-4.047,10.525,7.942,16.464,2.925,6.956
Mon Dec 02 21:11:52 2024,660,-19.547,-19.547,-1.441,-1.441,-1.318,14.526,8.223,2.309,14.923,11.078,-4.027,10.607,7.986,16.507,2.904,7.027
Mon Dec 02 21:11:52 2024,665,-19.536,-19.536,-1.441,-1.441,-1.346,14.473,8.217,2.287,14.927,11.058,-4.053,10.579,7.962,16.463,2.950,7.027
Mon Dec 02 21:11:52 2024,670,-19.525,-19.525,-1.442,-1.442,-1.375,14.417,8.210,2.263,14.931,11.037,-4.081,10.549,7.936,16.418,3.000,7.028
Mon Dec 02 21:11:52 2024,675,-19.520,-19.520,-1.430,-1.430,-1.370,14.443,8.166,2.269,14.926,10.999,-4.102,10.521,7.901,16.405,3.015,6.981
Mon Dec 02 21:11:52 2024,680,-19.517,-19.517,-1.416,-1.416,-1.360,14.483,8.113,2.280,14.919,10.957,-4.122,10.493,7.863,16.397,3.025,6.926
Mon Dec 02 21:11:52 2024,685,-19.499,-19.499,-1.424,-1.424,-1.348,14.526,8.077,2.272,14.911,10.907,-4.115,10.513,7.835,16.382,3.036,6.873
Mon Dec 02 21:11:52 2024,690,-19.449,-19.449,-1.477,-1.477,-1.332,14.578,8.069,2.221,14.897,10.831,-4.048,10.638,7.821,16.349,3.051,6.815
Mon Dec 02 21:11:52 2024,695,-19.412,-19.412,-1.517,-1.517,-1.320,14.617,8.063,2.183,14.887,10.774,-3.998,10.731,7.810,16.324,3.061,6.772
Mon Dec 02 21:11:52 2024,700,-19.464,-19.464,-1.436,-1.436,-1.297,14.626,8.098,2.168,14.975,10.869,-3.973,10.791,7.866,16.379,3.038,6.839
Mon Dec 02 21:11:52 2024,705,-19.519,-19.519,-1.352,-1.352,-1.277,14.630,8.132,2.161,15.061,10.970,-3.957,10.832,7.921,16.434,3.015,6.910
Mon Dec 02 21:11:52 2024,710,-19.520,-19.520,-1.385,-1.385,-1.263,14.663,8.153,2.183,15.082,11.011,-3.969,10.850,7.947,16.488,2.987,6.961
Mon Dec 02 21:11:52 2024,715,-19.449,-19.449,-1.580,-1.580,-1.253,14.742,8.159,2.246,15.018,10.979,-4.018,10.838,7.938,16.544,2.951,6.990
Mon Dec 02 21:11:52 2024,720,-19.387,-19.387,-1.747,-1.747,-1.245,14.810,8.164,2.300,14.963,10.951,-4.061,10.828,7.931,16.592,2.920,7.015
Mon Dec 02 21:11:52 2024,725,-19.386,-19.386,-1.656,-1.656,-1.189,14.698,8.137,2.251,14.859,10.946,-4.018,10.814,8.006,16.542,2.950,7.069
Mon Dec 02 21:11:52 2024,730,-19.389,-19.389,-1.578,-1.578,-1.145,14.606,8.118,2.210,14.778,10.942,-3.982,10.804,8.067,16.499,2.974,7.110
Mon Dec 02 21:11:52 2024,735,-19.386,-19.386,-1.529,-1.529,-1.137,14.596,8.128,2.171,14.735,10.911,-3.978,10.807,8.049,16.481,2.988,7.085
Mon Dec 02 21:11:52 2024,740,-19.380,-19.380,-1.512,-1.512,-1.160,14.652,8.162,2.142,14.732,10.862,-4.001,10.824,7.975,16.486,2.992,7.012
Mon Dec 02 21:11:52 2024,745,-19.376,-19.376,-1.494,-1.494,-1.183,14.716,8.185,2.118,14.745,10.813,-4.019,10.848,7.908,16.490,2.995,6.944
Mon Dec 02 21:11:52 2024,750,-19.390,-19.390,-1.484,-1.484,-1.199,14.788,8.126,2.137,14.854,10.789,-3.996,10.919,7.923,16.485,3.004,6.943
Mon Dec 02 21:11:52 2024,755,-19.402,-19.402,-1.476,-1.476,-1.211,14.845,8.076,2.155,14.943,10.773,-3.975,10.977,7.943,16.480,3.011,6.948
Mon Dec 02 21:11:52 2024,760,-19.406,-19.406,-1.487,-1.487,-1.220,14.840,8.053,2.197,14.968,10.802,-3.970,10.938,7.918,16.493,3.007,6.943
Mon Dec 02 21:11:52 2024,765,-19.404,-19.404,-1.514,-1.514,-1.231,14.791,8.046,2.262,14.952,10.870,-3.975,10.822,7.857,16.520,2.994,6.928
Mon Dec 02 21:11:52 2024,770,-19.404,-19.404,-1.518,-1.518,-1.244,14.755,8.039,2.289,14.958,10.908,-3.976,10.770,7.829,16.535,2.982,6.922
Mon Dec 02 21:11:52 2024,775,-19.401,-19.401,-1.471,-1.471,-1.270,14.731,8.029,2.229,15.027,10.889,-3.965,10.850,7.867,16.523,2.968,6.930
Mon Dec 02 21:11:52 2024,780,-19.400,-19.400,-1.423,-1.423,-1.296,14.709,8.020,2.172,15.094,10.870,-3.956,10.930,7.906,16.510,2.954,6.937
Mon Dec 02 21:11:52 2024,785,-19.407,-19.407,-1.402,-1.402,-1.290,14.773,8.026,2.189,15.136,10.894,-3.912,11.038,7.950,16.556,2.916,6.927
Mon Dec 02 21:11:52 2024,790,-19.419,-19.419,-1.395,-1.395,-1.269,14.874,8.041,2.240,15.160,10.937,-3.856,11.152,7.993,16.628,2.872,6.908
Mon Dec 02 21:11:52 2024,795,-19.408,-19.408,-1.413,-1.413,-1.255,14.962,8.050,2.289,15.200,10.966,-3.831,11.237,8.004,16.669,2.847,6.885
Mon Dec 02 21:11:52 2024,800,-19.351,-19.351,-1.483,-1.483,-1.252,15.053,8.051,2.347,15.287,10.979,-3.857,11.299,7.960,16.667,2.853,6.849
Mon Dec 02 21:11:52 2024,805,-19.299,-19.299,-1.548,-1.548,-1.252,15.130,8.056,2.394,15.360,10.994,-3.884,11.349,7.926,16.666,2.858,6.820
Mon Dec 02 21:11:52 2024,810,-19.285,-19.285,-1.566,-1.566,-1.269,15.112,8.105,2.351,15.346,11.044,-3.898,11.333,7.990,16.687,2.842,6.854
Mon Dec 02 21:11:52 2024,815,-19.278,-19.278,-1.574,-1.574,-1.293,15.068,8.168,2.282,15.307,11.107,-3.910,11.298,8.084,16.716,2.820,6.909
Mon Dec 02 21:11:52 2024,820,-19.268,-19.268,-1.580,-1.580,-1.290,15.056,8.210,2.250,15.260,11.152,-3.918,11.247,8.136,16.722,2.808,6.936
Mon Dec 02 21:11:52 2024,825,-19.250,-19.250,-1.579,-1.579,-1.236,15.114,8.196,2.308,15.208,11.150,-3.917,11.172,8.087,16.678,2.822,6.900
Mon Dec 02 21:11:52 2024,830,-19.231,-19.231,-1.579,-1.579,-1.179,15.173,8.184,2.366,15.150,11.150,-3.916,11.093,8.041,16.635,2.833,6.864
Mon Dec 02 21:11:52 2024,835,-19.264,-19.264,-1.537,-1.537,-1.185,15.226,8.157,2.350,15.150,11.145,-3.948,11.093,8.099,16.652,2.843,6.979
Mon Dec 02 21:11:52 2024,840,-19.298,-19.298,-1.495,-1.495,-1.196,15.274,8.130,2.328,15.155,11.139,-3.980,11.100,8.161,16.674,2.852,7.099
Mon Dec 02 21:11:52 2024,845,-19.314,-19.314,-1.504,-1.504,-1.211,15.281,8.113,2.332,15.155,11.144,-3.983,11.095,8.187,16.693,2.850,7.145
Mon Dec 02 21:11:52 2024,850,-19.298,-19.298,-1.592,-1.592,-1.231,15.224,8.114,2.375,15.148,11.166,-3.939,11.076,8.150,16.708,2.832,7.068
Mon Dec 02 21:11:52 2024,855,-19.285,-19.285,-1.669,-1.669,-1.247,15.174,8.114,2.413,15.142,11.185,-3.899,11.058,8.118,16.722,2.814,7.000
Mon Dec 02 21:11:52 2024,860,-19.275,-19.275,-1.731,-1.731,-1.260,15.134,8.115,2.444,15.137,11.200,-3.868,11.044,8.092,16.733,2.801,6.946
Mon Dec 02 21:11:52 2024,865,-19.270,-19.270,-1.763,-1.763,-1.267,15.113,8.115,2.460,15.134,11.208,-3.851,11.037,8.079,16.738,2.795,6.918
Mon Dec 02 21:11:52 2024,870,-19.218,-19.218,-1.740,-1.740,-1.188,15.338,7.974,2.367,15.039,11.053,-3.892,11.097,8.104,16.822,2.733,7.009
Mon Dec 02 21:11:52 2024,875,-19.197,-19.197,-1.761,-1.761,-1.169,15.391,7.929,2.351,15.006,11.011,-3.891,11.110,8.100,16.854,2.707,7.012
Mon Dec 02 21:11:52 2024,880,-19.178,-19.178,-1.781,-1.781,-1.151,15.440,7.888,2.337,14.975,10.971,-3.889,11.122,8.097,16.883,2.683,7.016
Mon Dec 02 21:11:52 2024,885,-19.174,-19.174,-1.726,-1.726,-1.182,15.297,7.853,2.305,14.928,10.908,-3.927,11.071,8.041,16.783,2.793,6.982
Mon Dec 02 21:11:52 2024,890,-19.171,-19.171,-1.690,-1.690,-1.198,15.197,7.831,2.283,14.892,10.862,-3.952,11.037,8.003,16.711,2.869,6.957
Mon Dec 02 21:11:52 2024,895,-19.167,-19.167,-1.685,-1.685,-1.173,15.154,7.827,2.268,14.847,10.822,-3.957,11.031,7.987,16.678,2.900,6.939
Mon Dec 02 21:11:52 2024,900,-19.162,-19.162,-1.726,-1.726,-1.100,15.213,7.850,2.268,14.812,10.808,-3.932,11.068,8.010,16.716,2.850,6.938
Mon Dec 02 21:11:52 2024,905,-19.146,-19.146,-1.766,-1.766,-1.027,15.276,7.868,2.269,14.766,10.790,-3.912,11.086,8.030,16.754,2.808,6.964
Mon Dec 02 21:11:52 2024,910,-19.106,-19.106,-1.776,-1.776,-0.998,15.317,7.858,2.269,14.708,10.770,-3.930,11.023,8.025,16.772,2.820,7.071
Mon Dec 02 21:11:52 2024,915,-19.067,-19.067,-1.783,-1.783,-0.971,15.356,7.847,2.268,14.653,10.751,-3.947,10.958,8.019,16.788,2.835,7.179
Mon Dec 02 21:11:52 2024,920,-19.058,-19.058,-1.804,-1.804,-0.974,15.345,7.878,2.274,14.683,10.750,-3.977,10.927,7.966,16.789,2.844,7.141
Mon Dec 02 21:11:52 2024,925,-19.063,-19.063,-1.826,-1.826,-0.987,15.318,7.920,2.281,14.739,10.757,-4.006,10.914,7.905,16.784,2.851,7.056
Mon Dec 02 21:11:52 2024,930,-19.067,-19.067,-1.844,-1.844,-0.997,15.296,7.954,2.286,14.784,10.761,-4.030,10.903,7.856,16.781,2.856,6.987
Mon Dec 02 21:11:52 2024,935,-19.028,-19.028,-1.914,-1.914,-1.012,15.246,7.874,2.247,14.725,10.766,-4.063,10.748,7.871,16.772,2.834,6.976
Mon Dec 02 21:11:52 2024,940,-19.002,-19.002,-1.965,-1.965,-1.025,15.208,7.823,2.219,14.688,10.770,-4.090,10.637,7.876,16.764,2.819,6.960
Mon Dec 02 21:11:52 2024,945,-19.020,-19.020,-1.932,-1.932,-1.053,15.131,7.739,2.273,14.733,10.734,-4.094,10.572,7.778,16.751,2.800,6.846
Mon Dec 02 21:11:52 2024,950,-19.074,-19.074,-1.831,-1.831,-1.093,15.032,7.641,2.389,14.837,10.666,-4.079,10.556,7.606,16.732,2.780,6.667
Mon Dec 02 21:11:52 2024,955,-19.092,-19.092,-1.792,-1.792,-1.117,14.973,7.610,2.449,14.870,10.647,-4.067,10.560,7.541,16.727,2.767,6.592
Mon Dec 02 21:11:52 2024,960,-19.053,-19.053,-1.844,-1.844,-1.116,14.979,7.697,2.432,14.806,10.704,-4.051,10.618,7.640,16.746,2.764,6.680
Mon Dec 02 21:11:52 2024,965,-19.012,-19.012,-1.900,-1.900,-1.115,14.986,7.791,2.412,14.736,10.765,-4.035,10.680,7.747,16.766,2.761,6.777
Mon Dec 02 21:11:52 2024,970,-19.039,-19.039,-1.867,-1.867,-1.070,15.068,7.763,2.433,14.749,10.800,-4.017,10.657,7.769,16.767,2.757,6.816
Mon Dec 02 21:11:52 2024,975,-19.070,-19.070,-1.828,-1.828,-1.024,15.151,7.726,2.457,14.767,10.831,-3.998,10.628,7.783,16.767,2.753,6.849
Mon Dec 02 21:11:52 2024,980,-19.098,-19.098,-1.796,-1.796,-0.999,15.220,7.715,2.476,14.789,10.873,-3.977,10.625,7.815,16.771,2.749,6.887
Mon Dec 02 21:11:52 2024,985,-19.109,-19.109,-1.793,-1.793,-1.040,15.232,7.781,2.473,14.820,10.936,-3.954,10.699,7.892,16.785,2.746,6.927
Mon Dec 02 21:11:52 2024,990,-19.121,-19.121,-1.789,-1.789,-1.083,15.243,7.850,2.470,14.851,11.000,-3.930,10.775,7.972,16.799,2.743,6.969
Mon Dec 02 21:11:52 2024,995,-19.136,-19.136,-1.759,-1.759,-1.098,15.152,7.800,2.414,14.779,10.903,-3.923,10.772,7.948,16.806,2.734,6.968
Mon Dec 02 21:11:53 2024,0,-19.149,-19.149,-1.730,-1.730,-1.099,15.054,7.727,2.358,14.693,10.783,-3.923,10.745,7.896,16.809,2.725,6.952
Mon Dec 02 21:11:53 2024,5,-19.164,-19.164,-1.692,-1.692,-1.096,14.988,7.671,2.313,14.625,10.691,-3.926,10.724,7.858,16.810,2.718,6.934
Mon Dec 02 21:11:53 2024,10,-19.175,-19.175,-1.638,-1.638,-1.074,15.066,7.699,2.323,14.656,10.734,-3.932,10.736,7.886,16.803,2.721,6.909
Mon Dec 02 21:11:53 2024,15,-19.186,-19.186,-1.590,-1.590,-1.053,15.138,7.727,2.333,14.686,10.776,-3.937,10.747,7.913,16.796,2.723,6.887
Mon Dec 02 21:11:53 2024,20,-19.147,-19.147,-1.661,-1.661,-1.031,15.090,7.691,2.343,14.625,10.702,-3.971,10.668,7.862,16.774,2.751,6.894
Mon Dec 02 21:11:53 2024,25,-19.099,-19.099,-1.757,-1.757,-1.011,15.015,7.642,2.352,14.547,10.605,-4.008,10.573,7.798,16.751,2.783,6.909
Mon Dec 02 21:11:53 2024,30,-19.060,-19.060,-1.823,-1.823,-0.996,14.953,7.598,2.355,14.487,10.536,-4.044,10.487,7.743,16.739,2.805,6.936
Mon Dec 02 21:11:53 2024,35,-19.051,-19.051,-1.802,-1.802,-0.998,14.938,7.574,2.344,14.485,10.550,-4.066,10.443,7.726,16.761,2.795,6.987
Mon Dec 02 21:11:53 2024,40,-19.040,-19.040,-1.790,-1.790,-0.998,14.915,7.552,2.332,14.479,10.565,-4.089,10.396,7.711,16.783,2.785,7.038
Mon Dec 02 21:11:53 2024,45,-19.021,-19.021,-1.855,-1.855,-0.977,14.837,7.569,2.315,14.427,10.596,-4.107,10.353,7.727,16.798,2.781,7.054
Mon Dec 02 21:11:53 2024,50,-19.004,-19.004,-1.922,-1.922,-0.958,14.764,7.590,2.301,14.378,10.623,-4.120,10.320,7.745,16.808,2.780,7.060
Mon Dec 02 21:11:53 2024,55,-18.993,-18.993,-1.958,-1.958,-0.979,14.731,7.587,2.270,14.390,10.603,-4.114,10.339,7.723,16.811,2.774,7.006
Mon Dec 02 21:11:53 2024,60,-18.998,-18.998,-1.934,-1.934,-1.063,14.771,7.543,2.220,14.502,10.509,-4.078,10.442,7.640,16.802,2.761,6.866
Mon Dec 02 21:11:53 2024,65,-19.004,-19.004,-1.912,-1.912,-1.137,14.806,7.505,2.176,14.600,10.426,-4.046,10.531,7.567,16.794,2.751,6.742
Mon Dec 02 21:11:53 2024,70,-19.039,-19.039,-1.877,-1.877,-1.137,14.745,7.501,2.234,14.559,10.529,-4.042,10.474,7.625,16.797,2.741,6.780
Mon Dec 02 21:11:53 2024,75,-19.080,-19.080,-1.840,-1.840,-1.134,14.677,7.498,2.300,14.509,10.646,-4.040,10.407,7.693,16.800,2.732,6.827
Mon Dec 02 21:11:53 2024,80,-19.080,-19.080,-1.831,-1.831,-1.127,14.623,7.519,2.342,14.463,10.680,-4.042,10.367,7.696,16.818,2.713,6.848
Mon Dec 02 21:11:53 2024,85,-19.056,-19.056,-1.843,-1.843,-1.120,14.595,7.548,2.358,14.432,10.653,-4.045,10.355,7.660,16.841,2.694,6.847
Mon Dec 02 21:11:53 2024,90,-19.037,-19.037,-1.853,-1.853,-1.109,14.573,7.579,2.372,14.391,10.629,-4.051,10.341,7.626,16.860,2.675,6.843
Mon Dec 02 21:11:53 2024,95,-19.060,-19.060,-1.848,-1.848,-1.080,14.608,7.599,2.375,14.313,10.629,-4.065,10.321,7.627,16.851,2.669,6.826
Mon Dec 02 21:11:53 2024,100,-19.089,-19.089,-1.840,-1.840,-1.050,14.650,7.616,2.375,14.234,10.633,-4.079,10.301,7.633,16.838,2.665,6.808
Mon Dec 02 21:11:53 2024,105,-19.074,-19.074,-1.878,-1.878,-1.009,14.789,7.614,2.388,14.264,10.606,-4.057,10.397,7.658,16.862,2.673,6.871
Mon Dec 02 21:11:53 2024,110,-19.038,-19.038,-1.935,-1.935,-0.970,14.961,7.601,2.405,14.352,10.566,-4.018,10.542,7.691,16.901,2.683,6.969
Mon Dec 02 21:11:53 2024,115,-19.018,-19.018,-1.958,-1.958,-0.946,15.070,7.578,2.414,14.419,10.525,-3.984,10.659,7.709,16.926,2.691,7.034
Mon Dec 02 21:11:53 2024,120,-19.061,-19.061,-1.856,-1.856,-0.981,14.954,7.508,2.392,14.423,10.468,-3.958,10.692,7.673,16.901,2.704,6.987
Mon Dec 02 21:11:53 2024,125,-19.104,-19.104,-1.752,-1.752,-1.015,14.838,7.436,2.371,14.427,10.409,-3.932,10.725,7.636,16.876,2.716,6.939
Mon Dec 02 21:11:53 2024,130,-19.087,-19.087,-1.760,-1.760,-1.014,14.736,7.414,2.336,14.364,10.378,-3.957,10.600,7.595,16.834,2.750,6.955
Mon Dec 02 21:11:53 2024,135,-19.052,-19.052,-1.806,-1.806,-1.000,14.660,7.413,2.304,14.289,10.363,-3.995,10.445,7.561,16.795,2.785,6.988
Mon Dec 02 21:11:53 2024,140,-19.028,-19.028,-1.842,-1.842,-1.005,14.577,7.403,2.270,14.235,10.349,-4.052,10.294,7.518,16.759,2.816,7.002
Mon Dec 02 21:11:53 2024,145,-19.030,-19.030,-1.852,-1.852,-1.049,14.499,7.377,2.238,14.242,10.346,-4.136,10.188,7.466,16.739,2.831,6.968
Mon Dec 02 21:11:53 2024,150,-19.036,-19.036,-1.857,-1.857,-1.092,14.425,7.354,2.209,14.253,10.342,-4.211,10.106,7.420,16.724,2.843,6.937
Mon Dec 02 21:11:53 2024,155,-19.052,-19.052,-1.844,-1.844,-1.104,14.377,7.370,2.216,14.269,10.329,-4.197,10.176,7.426,16.732,2.842,6.940
Mon Dec 02 21:11:53 2024,160,-19.068,-19.068,-1.826,-1.826,-1.100,14.355,7.396,2.235,14.281,10.317,-4.150,10.290,7.450,16.749,2.834,6.956
Mon Dec 02 21:11:53 2024,165,-19.071,-19.071,-1.829,-1.829,-1.088,14.369,7.416,2.246,14.276,10.311,-4.118,10.362,7.467,16.760,2.827,6.938
Mon Dec 02 21:11:53 2024,170,-19.050,-19.050,-1.868,-1.868,-1.067,14.444,7.418,2.236,14.240,10.318,-4.132,10.322,7.459,16.754,2.822,6.866
Mon Dec 02 21:11:53 2024,175,-19.025,-19.025,-1.917,-1.917,-1.042,14.537,7.420,2.222,14.197,10.328,-4.149,10.272,7.449,16.747,2.816,6.777
Mon Dec 02 21:11:53 2024,180,-19.031,-19.031,-1.893,-1.893,-1.064,14.460,7.426,2.229,14.158,10.358,-4.132,10.218,7.444,16.741,2.808,6.785
Mon Dec 02 21:11:53 2024,185,-19.038,-19.038,-1.868,-1.868,-1.086,14.382,7.433,2.236,14.117,10.390,-4.114,10.162,7.439,16.736,2.800,6.793
Mon Dec 02 21:11:53 2024,190,-19.032,-19.032,-1.865,-1.865,-1.087,14.351,7.418,2.267,14.065,10.393,-4.095,10.163,7.458,16.729,2.807,6.830
Mon Dec 02 21:11:53 2024,195,-19.012,-19.012,-1.884,-1.884,-1.066,14.365,7.379,2.325,13.995,10.367,-4.072,10.223,7.503,16.721,2.830,6.901
Mon Dec 02 21:11:53 2024,200,-19.000,-19.000,-1.888,-1.888,-1.066,14.356,7.330,2.368,13.988,10.351,-4.054,10.269,7.519,16.731,2.834,6.943
Mon Dec 02 21:11:53 2024,205,-19.004,-19.004,-1.859,-1.859,-1.106,14.297,7.247,2.394,14.107,10.352,-4.036,10.300,7.477,16.784,2.802,6.936
Mon Dec 02 21:11:53 2024,210,-19.018,-19.018,-1.811,-1.811,-1.170,14.209,7.142,2.410,14.299,10.362,-4.018,10.323,7.403,16.862,2.747,6.904
Mon Dec 02 21:11:53 2024,215,-19.013,-19.013,-1.828,-1.828,-1.185,14.204,7.156,2.443,14.391,10.451,-4.009,10.338,7.433,16.924,2.695,6.938
Mon Dec 02 21:11:53 2024,220,-18.994,-18.994,-1.891,-1.891,-1.166,14.259,7.253,2.489,14.416,10.600,-4.007,10.348,7.538,16.976,2.644,7.021
Mon Dec 02 21:11:53 2024,225,-18.982,-18.982,-1.938,-1.938,-1.172,14.308,7.304,2.502,14.454,10.682,-4.014,10.360,7.591,16.975,2.642,7.049
Mon Dec 02 21:11:53 2024,230,-18.985,-18.985,-1.952,-1.952,-1.224,14.340,7.267,2.452,14.508,10.634,-4.038,10.374,7.545,16.881,2.726,6.978
Mon Dec 02 21:11:53 2024,235,-18.992,-18.992,-1.956,-1.956,-1.298,14.369,7.196,2.375,14.575,10.535,-4.069,10.390,7.459,16.744,2.851,6.863
Mon Dec 02 21:11:53 2024,240,-18.971,-18.971,-1.974,-1.974,-1.230,14.442,7.201,2.342,14.506,10.432,-4.101,10.389,7.387,16.714,2.881,6.805
Mon Dec 02 21:11:53 2024,245,-18.934,-18.934,-1.998,-1.998,-1.080,14.530,7.258,2.342,14.358,10.345,-4.129,10.378,7.338,16.761,2.843,6.796
Mon Dec 02 21:11:53 2024,250,-18.898,-18.898,-2.022,-2.022,-0.928,14.616,7.315,2.343,14.209,10.258,-4.156,10.367,7.289,16.809,2.804,6.786
Mon Dec 02 21:11:53 2024,255,-18.872,-18.872,-2.046,-2.046,-0.962,14.527,7.296,2.313,14.058,10.301,-4.142,10.295,7.369,16.834,2.795,6.932
Mon Dec 02 21:11:53 2024,260,-18.847,-18.847,-2.067,-2.067,-0.975,14.466,7.286,2.290,13.926,10.327,-4.134,10.238,7.426,16.858,2.784,7.044
Mon Dec 02 21:11:53 2024,265,-18.808,-18.808,-2.066,-2.066,-0.988,14.428,7.258,2.289,13.912,10.373,-4.128,10.228,7.452,16.879,2.772,7.065
Mon Dec 02 21:11:53 2024,270,-18.769,-18.769,-2.054,-2.054,-0.998,14.409,7.228,2.298,13.953,10.419,-4.125,10.239,7.459,16.894,2.761,7.041
Mon Dec 02 21:11:53 2024,275,-18.729,-18.729,-2.054,-2.054,-1.006,14.400,7.211,2.328,14.003,10.483,-4.115,10.252,7.479,16.905,2.753,7.019
Mon Dec 02 21:11:53 2024,280,-18.703,-18.703,-2.079,-2.079,-1.003,14.422,7.236,2.404,14.063,10.572,-4.092,10.264,7.527,16.904,2.755,7.010
Mon Dec 02 21:11:53 2024,285,-18.678,-18.678,-2.102,-2.102,-1.000,14.442,7.258,2.472,14.115,10.652,-4.071,10.274,7.569,16.902,2.756,7.001
Mon Dec 02 21:11:53 2024,290,-18.695,-18.695,-2.121,-2.121,-0.979,14.625,7.270,2.495,14.227,10.627,-4.020,10.404,7.507,16.881,2.760,6.882
Mon Dec 02 21:11:53 2024,295,-18.720,-18.720,-2.134,-2.134,-0.956,14.815,7.274,2.497,14.330,10.572,-3.971,10.541,7.427,16.858,2.762,6.756
Mon Dec 02 21:11:53 2024,300,-18.742,-18.742,-2.132,-2.132,-0.953,14.922,7.265,2.491,14.404,10.530,-3.950,10.618,7.366,16.843,2.761,6.679
Mon Dec 02 21:11:53 2024,305,-18.750,-18.750,-2.086,-2.086,-1.010,14.773,7.212,2.459,14.392,10.528,-4.010,10.512,7.372,16.856,2.752,6.754
Mon Dec 02 21:11:53 2024,310,-18.758,-18.758,-2.046,-2.046,-1.053,14.656,7.177,2.430,14.375,10.526,-4.060,10.428,7.378,16.864,2.748,6.818
Mon Dec 02 21:11:53 2024,315,-18.785,-18.785,-2.025,-2.025,-1.042,14.648,7.218,2.409,14.322,10.522,-4.084,10.412,7.396,16.844,2.780,6.860
Mon Dec 02 21:11:53 2024,320,-18.819,-18.819,-2.007,-2.007,-1.015,14.675,7.286,2.389,14.254,10.518,-4.101,10.417,7.419,16.814,2.826,6.898
Mon Dec 02 21:11:53 2024,325,-18.829,-18.829,-2.021,-2.021,-1.018,14.658,7.329,2.338,14.159,10.500,-4.129,10.402,7.455,16.789,2.869,6.969
Mon Dec 02 21:11:53 2024,330,-18.802,-18.802,-2.076,-2.076,-1.064,14.586,7.321,2.261,14.058,10.468,-4.162,10.363,7.497,16.782,2.894,7.064
Mon Dec 02 21:11:53 2024,335,-18.775,-18.775,-2.132,-2.132,-1.110,14.510,7.313,2.181,13.951,10.435,-4.197,10.324,7.541,16.773,2.920,7.162
Mon Dec 02 21:11:53 2024,340,-18.795,-18.795,-2.138,-2.138,-1.087,14.648,7.403,2.187,13.946,10.429,-4.162,10.382,7.565,16.850,2.857,7.189
Mon Dec 02 21:11:53 2024,345,-18.823,-18.823,-2.137,-2.137,-1.054,14.820,7.509,2.206,13.958,10.427,-4.115,10.455,7.585,16.940,2.779,7.205
Mon Dec 02 21:11:53 2024,350,-18.810,-18.810,-2.155,-2.155,-1.035,14.901,7.522,2.229,13.986,10.420,-4.062,10.547,7.592,17.003,2.727,7.206
Mon Dec 02 21:11:53 2024,355,-18.765,-18.765,-2.186,-2.186,-1.030,14.900,7.457,2.252,14.024,10.411,-4.007,10.645,7.588,17.038,2.703,7.194
Mon Dec 02 21:11:53 2024,360,-18.729,-18.729,-2.205,-2.205,-1.030,14.892,7.403,2.275,14.056,10.416,-3.968,10.709,7.585,17.069,2.680,7.186
Mon Dec 02 21:11:53 2024,365,-18.726,-18.726,-2.164,-2.164,-1.048,14.848,7.383,2.302,14.067,10.484,-3.988,10.625,7.592,17.088,2.664,7.194
Mon Dec 02 21:11:53 2024,370,-18.727,-18.727,-2.123,-2.123,-1.066,14.808,7.371,2.326,14.074,10.549,-4.013,10.536,7.598,17.104,2.650,7.203
Mon Dec 02 21:11:53 2024,375,-18.721,-18.721,-2.118,-2.118,-1.035,14.770,7.344,2.333,13.942,10.486,-4.046,10.393,7.528,17.034,2.698,7.128
Mon Dec 02 21:11:53 2024,380,-18.712,-18.712,-2.136,-2.136,-0.987,14.744,7.318,2.328,13.770,10.367,-4.074,10.264,7.437,16.935,2.768,7.028
Mon Dec 02 21:11:53 2024,385,-18.711,-18.711,-2.139,-2.139,-0.940,14.737,7.290,2.321,13.625,10.259,-4.098,10.146,7.350,16.833,2.837,6.923
Mon Dec 02 21:11:53 2024,390,-18.758,-18.758,-2.062,-2.062,-0.943,14.830,7.275,2.321,13.741,10.289,-4.084,10.175,7.358,16.798,2.851,6.877
Mon Dec 02 21:11:53 2024,395,-18.815,-18.815,-1.970,-1.970,-0.953,14.941,7.261,2.321,13.894,10.338,-4.063,10.222,7.376,16.767,2.858,6.832
Mon Dec 02 21:11:53 2024,400,-18.840,-18.840,-1.955,-1.955,-1.014,14.952,7.295,2.281,13.998,10.371,-4.043,10.325,7.413,16.805,2.829,6.855
Mon Dec 02 21:11:53 2024,405,-18.852,-18.852,-1.976,-1.976,-1.101,14.914,7.353,2.222,14.079,10.396,-4.022,10.455,7.459,16.876,2.782,6.910
Mon Dec 02 21:11:53 2024,410,-18.860,-18.860,-1.992,-1.992,-1.142,14.896,7.380,2.191,14.089,10.388,-4.006,10.515,7.465,16.906,2.756,6.905
Mon Dec 02 21:11:53 2024,415,-18.858,-18.858,-2.000,-2.000,-1.111,14.912,7.358,2.205,13.973,10.321,-3.994,10.466,7.400,16.873,2.762,6.792
Mon Dec 02 21:11:53 2024,420,-18.855,-18.855,-2.006,-2.006,-1.073,14.931,7.330,2.223,13.848,10.250,-3.984,10.407,7.331,16.833,2.770,6.670
Mon Dec 02 21:11:53 2024,425,-18.924,-18.924,-1.927,-1.927,-1.098,15.002,7.385,2.170,13.827,10.175,-3.953,10.512,7.337,16.848,2.749,6.623
Mon Dec 02 21:11:53 2024,430,-19.023,-19.023,-1.814,-1.814,-1.150,15.092,7.476,2.089,13.858,10.103,-3.914,10.688,7.379,16.887,2.717,6.616
Mon Dec 02 21:11:53 2024,435,-19.107,-19.107,-1.724,-1.724,-1.198,15.138,7.549,2.032,13.898,10.092,-3.899,10.776,7.430,16.911,2.698,6.656
Mon Dec 02 21:11:53 2024,440,-19.187,-19.187,-1.651,-1.651,-1.252,15.104,7.612,2.013,13.971,10.205,-3.933,10.704,7.518,16.910,2.706,6.809
Mon Dec 02 21:11:53 2024,445,-19.264,-19.264,-1.581,-1.581,-1.305,15.070,7.674,1.995,14.043,10.318,-3.967,10.630,7.604,16.907,2.714,6.962
Mon Dec 02 21:11:53 2024,450,-19.348,-19.348,-1.475,-1.475,-1.387,15.053,7.710,1.954,14.073,10.359,-3.990,10.616,7.662,16.858,2.759,7.028
Mon Dec 02 21:11:53 2024,455,-19.441,-19.441,-1.351,-1.351,-1.482,15.038,7.745,1.904,14.096,10.387,-4.013,10.614,7.718,16.793,2.817,7.082
Mon Dec 02 21:11:53 2024,460,-19.531,-19.531,-1.255,-1.255,-1.564,15.021,7.781,1.853,14.196,10.403,-4.046,10.636,7.733,16.707,2.888,7.068
Mon Dec 02 21:11:53 2024,465,-19.608,-19.608,-1.204,-1.204,-1.617,15.004,7.816,1.803,14.383,10.404,-4.088,10.685,7.696,16.602,2.967,6.969
Mon Dec 02 21:11:53 2024,470,-19.678,-19.678,-1.159,-1.159,-1.666,14.988,7.847,1.759,14.551,10.404,-4.125,10.729,7.662,16.507,3.037,6.879
Mon Dec 02 21:11:53 2024,475,-19.709,-19.709,-1.132,-1.132,-1.656,14.966,7.825,1.770,14.525,10.437,-4.098,10.742,7.710,16.445,3.068,6.876
Mon Dec 02 21:11:53 2024,480,-19.734,-19.734,-1.108,-1.108,-1.635,14.942,7.791,1.791,14.462,10.479,-4.056,10.749,7.775,16.386,3.092,6.889
Mon Dec 02 21:11:53 2024,485,-19.763,-19.763,-1.048,-1.048,-1.639,14.981,7.801,1.825,14.474,10.521,-4.045,10.713,7.790,16.392,3.081,6.918
Mon Dec 02 21:11:53 2024,490,-19.803,-19.803,-0.941,-0.941,-1.669,15.086,7.853,1.879,14.557,10.574,-4.061,10.630,7.762,16.460,3.034,6.971
Mon Dec 02 21:11:53 2024,495,-19.841,-19.841,-0.839,-0.839,-1.696,15.187,7.904,1.933,14.636,10.626,-4.076,10.549,7.735,16.527,2.987,7.023
Mon Dec 02 21:11:53 2024,500,-19.908,-19.908,-0.732,-0.732,-1.697,15.347,7.928,1.922,14.814,10.617,-3.995,10.816,7.757,16.428,3.106,6.972
Mon Dec 02 21:11:53 2024,505,-19.965,-19.965,-0.644,-0.644,-1.695,15.484,7.947,1.910,14.967,10.606,-3.922,11.059,7.778,16.337,3.214,6.924
Mon Dec 02 21:11:53 2024,510,-19.974,-19.974,-0.653,-0.653,-1.711,15.468,7.992,1.863,14.934,10.647,-3.892,11.128,7.879,16.256,3.280,6.960
Mon Dec 02 21:11:53 2024,515,-19.954,-19.954,-0.720,-0.720,-1.739,15.358,8.059,1.790,14.784,10.722,-3.884,11.102,8.038,16.172,3.327,7.050
Mon Dec 02 21:11:53 2024,520,-19.940,-19.940,-0.761,-0.761,-1.744,15.315,8.109,1.773,14.714,10.810,-3.874,11.090,8.162,16.111,3.358,7.106
Mon Dec 02 21:11:53 2024,525,-19.950,-19.950,-0.700,-0.700,-1.679,15.524,8.115,1.940,14.947,10.951,-3.838,11.184,8.186,16.092,3.373,7.040
Mon Dec 02 21:11:53 2024,530,-19.963,-19.963,-0.624,-0.624,-1.602,15.774,8.114,2.138,15.209,11.103,-3.798,11.294,8.195,16.080,3.386,6.956
Mon Dec 02 21:11:53 2024,535,-20.014,-20.014,-0.542,-0.542,-1.608,15.787,8.091,2.183,15.250,11.134,-3.838,11.259,8.189,15.970,3.480,6.900
Mon Dec 02 21:11:53 2024,540,-20.089,-20.089,-0.463,-0.463,-1.672,15.630,8.056,2.117,15.139,11.077,-3.931,11.122,8.174,15.800,3.626,6.867
Mon Dec 02 21:11:53 2024,545,-20.140,-20.140,-0.427,-0.427,-1.685,15.538,8.067,2.075,15.036,11.064,-3.994,11.019,8.198,15.677,3.737,6.889
Mon Dec 02 21:11:53 2024,550,-20.136,-20.136,-0.512,-0.512,-1.535,15.611,8.243,2.093,14.916,11.194,-3.993,10.982,8.367,15.652,3.788,7.105
Mon Dec 02 21:11:53 2024,555,-20.130,-20.130,-0.594,-0.594,-1.394,15.681,8.407,2.111,14.807,11.315,-3.988,10.952,8.523,15.634,3.830,7.305
Mon Dec 02 21:11:53 2024,560,-20.118,-20.118,-0.593,-0.593,-1.333,15.844,8.457,2.219,14.908,11.402,-3.904,11.026,8.564,15.590,3.881,7.319
Mon Dec 02 21:11:53 2024,565,-20.108,-20.108,-0.551,-0.551,-1.331,15.995,8.435,2.331,15.065,11.442,-3.813,11.122,8.537,15.550,3.918,7.241
Mon Dec 02 21:11:53 2024,570,-20.104,-20.104,-0.535,-0.535,-1.348,16.075,8.404,2.386,15.132,11.443,-3.774,11.157,8.501,15.477,3.989,7.172
Mon Dec 02 21:11:53 2024,575,-20.109,-20.109,-0.557,-0.557,-1.396,16.049,8.353,2.355,15.070,11.378,-3.817,11.097,8.442,15.342,4.123,7.110
Mon Dec 02 21:11:53 2024,580,-20.121,-20.121,-0.575,-0.575,-1.429,16.023,8.310,2.321,15.012,11.321,-3.857,11.037,8.398,15.212,4.256,7.073
Mon Dec 02 21:11:53 2024,585,-20.152,-20.152,-0.575,-0.575,-1.399,16.035,8.301,2.307,15.014,11.310,-3.862,11.010,8.404,15.120,4.358,7.111
Mon Dec 02 21:11:53 2024,590,-20.198,-20.198,-0.560,-0.560,-1.323,16.074,8.315,2.305,15.060,11.331,-3.843,11.004,8.446,15.048,4.447,7.205
Mon Dec 02 21:11:53 2024,595,-20.219,-20.219,-0.552,-0.552,-1.261,16.146,8.342,2.330,15.111,11.372,-3.822,10.994,8.478,14.991,4.521,7.263
Mon Dec 02 21:11:53 2024,600,-20.196,-20.196,-0.559,-0.559,-1.215,16.289,8.395,2.409,15.174,11.455,-3.798,10.975,8.495,14.956,4.574,7.259
Mon Dec 02 21:11:53 2024,605,-20.171,-20.171,-0.566,-0.566,-1.165,16.433,8.434,2.495,15.236,11.531,-3.767,10.953,8.504,14.908,4.638,7.243
Mon Dec 02 21:11:53 2024,610,-20.139,-20.139,-0.586,-0.586,-1.121,16.439,8.291,2.580,15.247,11.448,-3.705,10.898,8.403,14.771,4.773,7.115
Mon Dec 02 21:11:53 2024,615,-20.111,-20.111,-0.605,-0.605,-1.086,16.415,8.132,2.650,15.244,11.343,-3.645,10.844,8.296,14.637,4.901,6.984
Mon Dec 02 21:11:53 2024,620,-20.119,-20.119,-0.572,-0.572,-1.073,16.431,8.044,2.684,15.265,11.260,-3.560,10.911,8.247,14.533,5.008,6.877
Mon Dec 02 21:11:53 2024,625,-20.187,-20.187,-0.458,-0.458,-1.096,16.515,8.064,2.661,15.324,11.207,-3.429,11.172,8.288,14.468,5.091,6.800
Mon Dec 02 21:11:53 2024,630,-20.247,-20.247,-0.364,-0.364,-1.116,16.587,8.083,2.641,15.375,11.162,-3.318,11.398,8.325,14.412,5.160,6.736
Mon Dec 02 21:11:53 2024,635,-20.215,-20.215,-0.472,-0.472,-1.056,16.719,8.147,2.621,15.388,11.181,-3.258,11.513,8.363,14.319,5.277,6.743
Mon Dec 02 21:11:53 2024,640,-20.176,-20.176,-0.607,-0.607,-0.990,16.855,8.214,2.601,15.397,11.206,-3.204,11.616,8.402,14.223,5.395,6.756
Mon Dec 02 21:11:53 2024,645,-20.201,-20.201,-0.628,-0.628,-0.975,16.980,8.232,2.600,15.432,11.178,-3.148,11.696,8.393,14.048,5.566,6.682
Mon Dec 02 21:11:53 2024,650,-20.295,-20.295,-0.521,-0.521,-1.012,17.095,8.200,2.619,15.494,11.091,-3.089,11.753,8.333,13.783,5.795,6.513
Mon Dec 02 21:11:53 2024,655,-20.358,-20.358,-0.450,-0.450,-1.040,17.193,8.178,2.658,15.551,11.034,-3.031,11.808,8.284,13.573,5.984,6.388
Mon Dec 02 21:11:53 2024,660,-20.300,-20.300,-0.520,-0.520,-1.026,17.263,8.202,2.782,15.602,11.099,-2.954,11.878,8.285,13.535,6.060,6.411
Mon Dec 02 21:11:53 2024,665,-20.228,-20.228,-0.606,-0.606,-1.009,17.327,8.234,2.913,15.642,11.180,-2.879,11.948,8.292,13.525,6.114,6.455
Mon Dec 02 21:11:53 2024,670,-20.180,-20.180,-0.622,-0.622,-0.980,17.328,8.210,2.988,15.624,11.189,-2.766,12.054,8.324,13.482,6.176,6.494
Mon Dec 02 21:11:53 2024,675,-20.156,-20.156,-0.592,-0.592,-0.949,17.290,8.159,3.016,15.578,11.154,-2.650,12.160,8.366,13.430,6.232,6.521
Mon Dec 02 21:11:53 2024,680,-20.126,-20.126,-0.602,-0.602,-0.925,17.267,8.103,3.033,15.565,11.133,-2.565,12.247,8.395,13.360,6.305,6.527
Mon Dec 02 21:11:53 2024,685,-20.085,-20.085,-0.730,-0.730,-0.925,17.294,8.039,3.011,15.653,11.152,-2.575,12.268,8.385,13.245,6.426,6.465
Mon Dec 02 21:11:53 2024,690,-20.050,-20.050,-0.845,-0.845,-0.927,17.321,7.985,2.991,15.733,11.172,-2.593,12.279,8.374,13.149,6.529,6.410
Mon Dec 02 21:11:53 2024,695,-20.070,-20.070,-0.802,-0.802,-0.946,17.259,7.927,2.943,15.711,11.044,-2.586,12.242,8.267,13.037,6.620,6.304
Mon Dec 02 21:11:53 2024,700,-20.124,-20.124,-0.661,-0.661,-0.975,17.151,7.877,2.885,15.620,10.843,-2.564,12.182,8.118,12.936,6.684,6.186
Mon Dec 02 21:11:53 2024,705,-20.160,-20.160,-0.571,-0.571,-0.992,17.090,7.838,2.852,15.567,10.720,-2.542,12.168,8.036,12.874,6.730,6.134
Mon Dec 02 21:11:53 2024,710,-20.154,-20.154,-0.620,-0.620,-0.974,17.169,7.830,2.896,15.641,10.815,-2.508,12.319,8.158,12.924,6.733,6.300
Mon Dec 02 21:11:53 2024,715,-20.145,-20.145,-0.674,-0.674,-0.955,17.250,7.824,2.942,15.713,10.916,-2.475,12.470,8.284,12.977,6.730,6.468
Mon Dec 02 21:11:53 2024,720,-20.139,-20.139,-0.717,-0.717,-0.941,17.315,7.819,2.977,15.768,10.997,-2.450,12.589,8.384,13.019,6.725,6.600
Mon Dec 02 21:11:53 2024,725,-20.135,-20.135,-0.739,-0.739,-0.933,17.350,7.817,2.997,15.797,11.041,-2.437,12.653,8.437,13.042,6.720,6.672
Mon Dec 02 21:11:53 2024,730,-20.152,-20.152,-0.698,-0.698,-0.890,17.264,7.867,2.950,15.614,10.887,-2.421,12.419,8.298,12.968,6.737,6.513
Mon Dec 02 21:11:53 2024,735,-20.165,-20.165,-0.671,-0.671,-0.848,17.203,7.911,2.918,15.461,10.769,-2.399,12.237,8.200,12.912,6.751,6.406
Mon Dec 02 21:11:53 2024,740,-20.171,-20.171,-0.668,-0.668,-0.820,17.185,7.935,2.909,15.387,10.725,-2.380,12.167,8.171,12.892,6.756,6.381
Mon Dec 02 21:11:53 2024,745,-20.191,-20.191,-0.641,-0.641,-0.817,17.238,7.909,2.861,15.381,10.662,-2.398,12.222,8.148,12.835,6.806,6.331
Mon Dec 02 21:11:53 2024,750,-20.213,-20.213,-0.610,-0.610,-0.817,17.302,7.876,2.807,15.386,10.598,-2.422,12.296,8.125,12.773,6.862,6.276
Mon Dec 02 21:11:53 2024,755,-20.232,-20.232,-0.590,-0.590,-0.815,17.365,7.882,2.777,15.383,10.577,-2.456,12.296,8.114,12.724,6.908,6.257
Mon Dec 02 21:11:53 2024,760,-20.249,-20.249,-0.585,-0.585,-0.807,17.425,7.952,2.785,15.369,10.622,-2.505,12.178,8.119,12.694,6.935,6.290
Mon Dec 02 21:11:53 2024,765,-20.267,-20.267,-0.575,-0.575,-0.802,17.473,8.009,2.779,15.356,10.653,-2.552,12.079,8.124,12.666,6.963,6.319
Mon Dec 02 21:11:53 2024,770,-20.281,-20.281,-0.533,-0.533,-0.824,17.435,7.962,2.665,15.347,10.581,-2.584,12.124,8.136,12.650,6.987,6.324
Mon Dec 02 21:11:53 2024,775,-20.296,-20.296,-0.481,-0.481,-0.855,17.374,7.890,2.517,15.338,10.481,-2.616,12.204,8.150,12.636,7.011,6.325
Mon Dec 02 21:11:53 2024,780,-20.319,-20.319,-0.434,-0.434,-0.849,17.385,7.840,2.454,15.303,10.414,-2.638,12.212,8.138,12.649,7.006,6.336
Mon Dec 02 21:11:53 2024,785,-20.360,-20.360,-0.386,-0.386,-0.787,17.502,7.810,2.496,15.232,10.379,-2.653,12.120,8.085,12.703,6.958,6.364
Mon Dec 02 21:11:53 2024,790,-20.384,-20.384,-0.366,-0.366,-0.754,17.569,7.787,2.502,15.176,10.345,-2.671,12.049,8.048,12.731,6.934,6.386
Mon Dec 02 21:11:53 2024,795,-20.366,-20.366,-0.414,-0.414,-0.777,17.536,7.765,2.404,15.133,10.289,-2.713,11.983,8.037,12.699,6.968,6.404
Mon Dec 02 21:11:53 2024,800,-20.344,-20.344,-0.472,-0.472,-0.808,17.490,7.746,2.299,15.089,10.236,-2.755,11.924,8.030,12.662,7.007,6.421
Mon Dec 02 21:11:53 2024,805,-20.323,-20.323,-0.524,-0.524,-0.835,17.447,7.729,2.206,15.048,10.188,-2.792,11.872,8.025,12.628,7.043,6.434
Mon Dec 02 21:11:53 2024,810,-20.310,-20.310,-0.559,-0.559,-0.853,17.419,7.718,2.144,15.020,10.157,-2.817,11.838,8.022,12.606,7.066,6.444
Mon Dec 02 21:11:53 2024,815,-20.305,-20.305,-0.576,-0.576,-0.862,17.405,7.713,2.115,15.006,10.142,-2.829,11.822,8.020,12.595,7.077,6.448
Mon Dec 02 21:11:53 2024,820,-20.306,-20.306,-0.580,-0.580,-0.865,17.402,7.712,2.109,15.003,10.140,-2.832,11.818,8.020,12.594,7.078,6.449
Mon Dec 02 21:11:53 2024,825,-20.270,-20.270,-0.575,-0.575,-0.903,17.368,7.706,2.135,15.000,10.151,-2.837,11.814,8.015,12.603,7.072,6.472
Mon Dec 02 21:11:53 2024,830,-20.208,-20.208,-0.564,-0.564,-0.966,17.310,7.697,2.181,14.998,10.172,-2.846,11.810,8.006,12.617,7.062,6.509
Mon Dec 02 21:11:53 2024,835,-20.146,-20.146,-0.554,-0.554,-1.029,17.253,7.688,2.226,14.996,10.193,-2.856,11.806,7.997,12.631,7.052,6.546
Mon Dec 02 21:11:53 2024,840,-20.109,-20.109,-0.548,-0.548,-1.067,17.219,7.682,2.253,14.994,10.206,-2.861,11.803,7.992,12.640,7.046,6.569
Mon Dec 02 21:11:53 2024,845,-19.951,-19.951,-0.590,-0.590,-0.891,17.284,7.659,2.292,14.855,10.282,-2.786,11.602,8.014,12.647,6.948,6.392
Mon Dec 02 21:11:53 2024,850,-19.930,-19.930,-0.595,-0.595,-0.882,17.282,7.656,2.296,14.838,10.290,-2.782,11.578,8.015,12.648,6.937,6.379
Mon Dec 02 21:11:53 2024,855,-19.921,-19.921,-0.598,-0.598,-0.878,17.281,7.654,2.298,14.830,10.294,-2.780,11.567,8.016,12.649,6.932,6.373
Mon Dec 02 21:11:53 2024,860,-19.945,-19.945,-0.514,-0.514,-0.798,17.064,7.739,2.314,14.523,10.148,-2.995,11.031,7.886,12.656,6.841,6.518
Mon Dec 02 21:11:53 2024,865,-19.936,-19.936,-0.505,-0.505,-0.779,17.024,7.752,2.319,14.460,10.129,-3.030,10.925,7.865,12.658,6.817,6.535
Mon Dec 02 21:11:53 2024,870,-19.901,-19.901,-0.485,-0.485,-0.767,16.985,7.745,2.317,14.431,10.147,-3.071,10.850,7.873,12.668,6.797,6.562
Mon Dec 02 21:11:53 2024,875,-19.754,-19.754,-0.413,-0.413,-0.774,16.931,7.666,2.290,14.507,10.307,-3.149,10.851,7.995,12.708,6.785,6.640
Mon Dec 02 21:11:53 2024,880,-19.652,-19.652,-0.348,-0.348,-0.768,17.012,7.700,2.315,14.567,10.350,-3.089,10.997,8.074,12.786,6.730,6.705
Mon Dec 02 21:11:53 2024,885,-19.591,-19.591,-0.310,-0.310,-0.761,17.118,7.759,2.350,14.614,10.350,-2.997,11.164,8.125,12.857,6.676,6.749
Mon Dec 02 21:11:53 2024,890,-19.518,-19.518,-0.277,0.277,-0.751,17.254,7.835,2.394,14.674,10.351,-2.880,11.378,8.190,12.948,6.608,6.807
Mon Dec 02 21:11:53 2024,895,-19.375,-19.375,-0.326,-0.326,-0.682,17.246,7.656,2.325,14.512,10.269,-2.983,11.154,8.086,12.807,6.753,6.800
Mon Dec 02 21:11:53 2024,900,-19.244,-19.244,-0.380,-0.380,-0.622,17.270,7.525,2.278,14.388,10.200,-3.042,11.017,8.014,12.710,6.858,6.808
Mon Dec 02 21:11:53 2024,905,-19.156,-19.156,-0.411,-0.411,-0.613,17.346,7.512,2.342,14.465,10.240,-2.954,11.133,8.041,12.847,6.749,6.858
Mon Dec 02 21:11:53 2024,910,-19.077,-19.077,-0.445,-0.445,-0.604,17.431,7.527,2.419,14.545,10.294,-2.861,11.270,8.091,13.001,6.625,6.920
Mon Dec 02 21:11:53 2024,915,-18.988,-18.988,-0.495,-0.495,-0.583,17.525,7.553,2.495,14.591,10.349,-2.781,11.396,8.155,13.144,6.512,6.994
Mon Dec 02 21:11:53 2024,920,-18.842,-18.842,-0.619,-0.619,-0.509,17.668,7.630,2.572,14.502,10.408,-2.758,11.476,8.288,13.240,6.454,7.124
Mon Dec 02 21:11:53 2024,925,-18.711,-18.711,-0.736,-0.736,-0.446,17.798,7.698,2.640,14.422,10.459,-2.739,11.548,8.401,13.324,6.402,7.236
Mon Dec 02 21:11:53 2024,930,-18.557,-18.557,-0.792,-0.792,-0.459,17.942,7.739,2.627,14.399,10.448,-2.764,11.582,8.362,13.337,6.402,7.208
Mon Dec 02 21:11:53 2024,935,-18.410,-18.410,-0.837,-0.837,-0.480,18.080,7.774,2.605,14.384,10.430,-2.792,11.611,8.307,13.342,6.409,7.168
Mon Dec 02 21:11:53 2024,940,-18.305,-18.305,-0.867,-0.867,-0.511,18.215,7.780,2.594,14.379,10.382,-2.809,11.638,8.270,13.329,6.429,7.139
Mon Dec 02 21:11:53 2024,945,-18.218,-18.218,-0.887,-0.887,-0.560,18.380,7.759,2.590,14.386,10.287,-2.815,11.669,8.241,13.294,6.469,7.118
Mon Dec 02 21:11:53 2024,950,-18.148,-18.148,-0.903,-0.903,-0.599,18.508,7.741,2.588,14.391,10.210,-2.819,11.694,8.218,13.265,6.501,7.100
Mon Dec 02 21:11:53 2024,955,-18.034,-18.034,-0.851,-0.851,-0.550,18.524,7.797,2.658,14.363,10.256,-2.791,11.681,8.181,13.225,6.533,7.095
Mon Dec 02 21:11:53 2024,960,-17.939,-17.939,-0.808,-0.808,-0.509,18.537,7.844,2.716,14.340,10.295,-2.768,11.670,8.151,13.193,6.558,7.091
Mon Dec 02 21:11:53 2024,965,-17.889,-17.889,-0.756,-0.756,-0.495,18.611,7.854,2.725,14.290,10.248,-2.762,11.597,8.074,13.171,6.567,7.042
Mon Dec 02 21:11:53 2024,970,-17.882,-17.882,-0.708,-0.708,-0.504,18.719,7.833,2.694,14.229,10.144,-2.770,11.488,7.975,13.162,6.559,6.966
Mon Dec 02 21:11:53 2024,975,-17.871,-17.871,-0.655,-0.655,-0.509,18.850,7.822,2.649,14.148,10.024,-2.782,11.368,7.870,13.149,6.552,6.888
Mon Dec 02 21:11:53 2024,980,-17.844,-17.844,-0.653,-0.653,-0.480,18.927,7.914,2.583,14.060,10.012,-2.798,11.401,7.922,13.132,6.570,6.942
Mon Dec 02 21:11:53 2024,985,-17.818,-17.818,-0.651,-0.651,-0.452,19.002,8.005,2.520,13.971,10.002,-2.814,11.432,7.972,13.116,6.588,6.994
Mon Dec 02 21:11:53 2024,990,-17.793,-17.793,-0.663,-0.663,-0.400,19.068,8.094,2.501,13.946,10.097,-2.844,11.399,8.047,13.101,6.596,7.063
Mon Dec 02 21:11:53 2024,995,-17.776,-17.776,-0.682,-0.682,-0.339,19.105,8.162,2.525,13.981,10.261,-2.877,11.320,8.124,13.089,6.595,7.133
Mon Dec 02 21:11:54 2024,0,-17.764,-17.764,-0.688,-0.688,-0.296,19.121,8.215,2.538,14.003,10.382,-2.906,11.251,8.184,13.078,6.596,7.194
Mon Dec 02 21:11:54 2024,5,-17.771,-17.771,-0.623,-0.623,-0.317,19.040,8.226,2.495,13.969,10.360,-2.939,11.189,8.184,13.050,6.622,7.262
Mon Dec 02 21:11:54 2024,10,-17.779,-17.779,-0.549,-0.549,-0.345,18.946,8.235,2.444,13.926,10.322,-2.973,11.125,8.178,13.021,6.650,7.333
Mon Dec 02 21:11:54 2024,15,-17.760,-17.760,-0.506,-0.506,-0.318,18.980,8.290,2.442,13.948,10.338,-2.960,11.184,8.204,13.046,6.634,7.352
Mon Dec 02 21:11:54 2024,20,-17.726,-17.726,-0.486,-0.486,-0.252,19.102,8.374,2.472,14.014,10.392,-2.917,11.324,8.252,13.106,6.587,7.332
Mon Dec 02 21:11:54 2024,25,-17.684,-17.684,-0.472,-0.472,-0.192,19.214,8.459,2.500,14.066,10.440,-2.874,11.461,8.300,13.170,6.541,7.338
Mon Dec 02 21:11:54 2024,30,-17.626,-17.626,-0.475,-0.475,-0.172,19.239,8.511,2.508,14.043,10.444,-2.851,11.518,8.330,13.221,6.522,7.428
Mon Dec 02 21:11:54 2024,35,-17.567,-17.567,-0.480,-0.480,-0.148,19.266,8.569,2.516,14.017,10.448,-2.827,11.583,8.364,13.276,6.498,7.531
Mon Dec 02 21:11:54 2024,40,-17.469,-17.469,-0.461,-0.461,-0.153,19.274,8.495,2.548,14.096,10.421,-2.793,11.663,8.326,13.338,6.461,7.531
Mon Dec 02 21:11:54 2024,45,-17.380,-17.380,-0.438,-0.438,-0.164,19.274,8.397,2.580,14.188,10.392,-2.764,11.730,8.275,13.389,6.426,7.500
Mon Dec 02 21:11:54 2024,50,-17.262,-17.262,-0.448,-0.448,-0.156,19.290,8.314,2.619,14.275,10.377,-2.732,11.787,8.224,13.442,6.386,7.462
Mon Dec 02 21:11:54 2024,55,-17.118,-17.118,-0.576,-0.576,-0.077,19.352,8.352,2.653,14.280,10.438,-2.716,11.757,8.217,13.462,6.357,7.422
Mon Dec 02 21:11:54 2024,60,-16.986,-16.986,-0.703,-0.703,0.000,19.403,8.386,2.685,14.285,10.494,-2.703,11.729,8.211,13.481,6.331,7.386
Mon Dec 02 21:11:54 2024,65,-16.876,-16.876,-0.815,-0.815,0.057,19.440,8.417,2.712,14.288,10.543,-2.692,11.705,8.205,13.497,6.308,7.354
Mon Dec 02 21:11:54 2024,70,-16.807,-16.807,-0.887,-0.887,0.095,19.459,8.436,2.729,14.290,10.574,-2.684,11.689,8.201,13.508,6.293,7.335
Mon Dec 02 21:11:54 2024,75,-16.702,-16.702,-0.605,-0.605,-0.039,19.436,8.401,2.619,14.249,10.504,-2.730,11.700,8.264,13.456,6.352,7.494
Mon Dec 02 21:11:54 2024,80,-16.606,-16.606,-0.556,-0.556,-0.056,19.442,8.403,2.590,14.234,10.502,-2.742,11.692,8.285,13.444,6.362,7.540
Mon Dec 02 21:11:54 2024,85,-16.529,-16.529,-0.518,-0.518,-0.072,19.444,8.401,2.572,14.220,10.497,-2.752,11.678,8.296,13.432,6.373,7.568
Mon Dec 02 21:11:54 2024,90,-16.452,-16.452,-0.466,-0.466,-0.014,19.400,8.312,2.621,14.170,10.410,-2.759,11.547,8.183,13.369,6.411,7.448
Mon Dec 02 21:11:54 2024,95,-16.394,-16.394,-0.421,-0.421,0.045,19.340,8.213,2.684,14.116,10.312,-2.765,11.401,8.053,13.301,6.450,7.303
Mon Dec 02 21:11:54 2024,100,-16.340,-16.340,-0.386,-0.386,0.086,19.276,8.169,2.740,14.117,10.288,-2.748,11.326,7.978,13.276,6.460,7.220
Mon Dec 02 21:11:54 2024,105,-16.298,-16.298,-0.369,-0.369,0.085,19.218,8.209,2.779,14.192,10.368,-2.698,11.360,7.987,13.313,6.426,7.235
Mon Dec 02 21:11:54 2024,110,-16.260,-16.260,-0.360,-0.001,0.088,19.166,8.250,2.816,14.259,10.445,-2.651,11.390,8.001,13.350,6.392,7.251
Mon Dec 02 21:11:54 2024,115,-16.227,-16.227,-0.359,0.359,0.137,19.214,8.323,2.803,14.228,10.499,-2.647,11.401,8.067,13.402,6.351,7.309
Mon Dec 02 21:11:54 2024,120,-16.200,-16.200,-0.364,0.364,0.195,19.271,8.401,2.783,14.181,10.551,-2.648,11.408,8.142,13.456,6.311,7.372
Mon Dec 02 21:11:54 2024,125,-16.119,-16.119,-0.380,0.380,0.273,19.209,8.457,2.856,14.156,10.625,-2.585,11.448,8.210,13.512,6.256,7.389
Mon Dec 02 21:11:54 2024,130,-16.014,-16.014,-0.409,-0.409,0.359,19.067,8.491,2.991,14.148,10.710,-2.478,11.506,8.267,13.564,6.200,7.366
Mon Dec 02 21:11:54 2024,135,-15.909,15.909,-0.457,-0.457,0.441,18.915,8.527,3.120,14.133,10.814,-2.392,11.521,8.320,13.618,6.140,7.348
Mon Dec 02 21:11:54 2024,140,-15.812,15.812,-0.520,-0.520,0.428,18.848,8.541,3.106,14.110,10.930,-2.493,11.292,8.308,13.639,6.118,7.371
Mon Dec 02 21:11:54 2024,145,-15.719,15.719,-0.592,-0.592,0.414,18.770,8.557,3.091,14.083,11.062,-2.607,11.035,8.293,13.663,6.094,7.396
Mon Dec 02 21:11:54 2024,150,-15.550,15.550,-0.669,-0.669,0.460,18.754,8.595,3.094,14.065,11.171,-2.601,11.010,8.362,13.725,6.051,7.458
Mon Dec 02 21:11:54 2024,155,-15.366,15.366,-0.746,-0.746,0.534,18.768,8.642,3.107,14.052,11.258,-2.534,11.108,8.468,13.800,6.002,7.533
Mon Dec 02 21:11:54 2024,160,-15.237,15.237,-0.777,-0.777,0.577,18.788,8.706,3.120,14.037,11.341,-2.474,11.201,8.570,13.893,5.934,7.632
Mon Dec 02 21:11:54 2024,165,-15.337,15.337,-0.656,-0.656,0.487,18.831,8.788,3.120,14.026,11.349,-2.478,11.214,8.590,13.986,5.854,7.742
Mon Dec 02 21:11:54 2024,170,-15.494,15.494,-0.620,0.620,0.382,18.874,8.883,3.121,14.012,11.359,-2.482,11.227,8.614,14.094,5.758,7.872
Mon Dec 02 21:11:54 2024,175,-15.743,15.743,-0.728,0.728,0.298,18.992,8.939,3.074,14.073,11.352,-2.524,11.206,8.585,14.072,5.795,7.863
Mon Dec 02 21:11:54 2024,180,-16.018,16.018,-0.895,0.895,0.228,19.123,8.980,3.017,14.152,11.342,-2.575,11.176,8.543,14.010,5.868,7.812
Mon Dec 02 21:11:54 2024,185,-16.361,16.361,-1.140,1.140,0.124,19.274,9.080,2.960,14.254,11.393,-2.607,11.175,8.570,13.985,5.908,7.826
Mon Dec 02 21:11:54 2024,190,-16.703,16.703,-1.446,1.446,-0.048,19.405,9.333,2.929,14.388,11.629,-2.564,11.273,8.818,14.088,5.820,8.055
Mon Dec 02 21:11:54 2024,195,-17.063,17.063,-1.773,1.773,-0.210,19.467,9.564,2.905,14.508,11.831,-2.523,11.355,9.033,14.184,5.736,8.253
Mon Dec 02 21:11:54 2024,200,-17.806,17.806,-2.304,2.304,-0.394,19.433,9.835,2.927,14.643,11.939,-2.451,11.372,9.166,14.305,5.612,8.377
Mon Dec 02 21:11:54 2024,205,-18.547,18.547,-2.808,2.808,-0.543,19.349,10.059,2.961,14.748,11.985,-2.384,11.360,9.237,14.408,5.503,8.443
Mon Dec 02 21:11:54 2024,210,-19.395,19.395,3.433,3.433,-0.830,19.086,10.301,2.981,14.895,12.077,-2.284,11.418,9.363,14.562,5.353,8.581
Mon Dec 02 21:11:54 2024,215,-20.091,20.091,4.029,4.029,-1.278,18.611,10.484,2.960,15.068,12.224,-2.158,11.594,9.548,14.757,5.180,8.804
Mon Dec 02 21:11:54 2024,220,-20.805,20.805,4.637,4.637,-1.722,18.140,10.663,2.940,15.237,12.368,-2.034,11.768,9.732,14.949,5.006,9.026
Mon Dec 02 21:11:54 2024,225,-21.181,21.181,5.565,5.565,-2.142,17.604,10.840,2.937,15.350,12.502,-1.952,11.875,9.987,15.116,4.856,9.338
Mon Dec 02 21:11:54 2024,230,-21.478,21.478,6.435,6.435,-2.496,17.126,10.992,2.937,15.439,12.617,-1.887,11.959,10.216,15.256,4.727,9.618
Mon Dec 02 21:11:54 2024,235,-21.930,21.930,7.358,7.358,-2.812,16.680,11.103,2.888,15.400,12.602,-1.866,11.960,10.355,15.326,4.666,9.844
Mon Dec 02 21:11:54 2024,240,-22.720,22.720,8.405,8.405,-3.066,16.282,11.138,2.748,15.082,12.336,-1.930,11.800,10.322,15.259,4.736,9.970
Mon Dec 02 21:11:54 2024,245,-23.524,23.524,9.439,9.439,-3.320,15.892,11.182,2.628,14.792,12.136,-1.980,11.660,10.304,15.196,4.801,10.095
Mon Dec 02 21:11:54 2024,250,-24.770,24.770,11.125,11.125,-3.895,15.155,11.378,2.539,14.804,12.350,-1.961,11.578,10.430,15.113,4.887,10.364
Mon Dec 02 21:11:54 2024,255,-26.149,26.149,12.989,12.989,-4.524,14.354,11.603,2.458,14.875,12.644,-1.926,11.510,10.586,15.022,4.975,10.661
Mon Dec 02 21:11:54 2024,260,-27.220,27.220,15.528,15.528,-4.889,13.442,11.720,2.426,14.461,13.027,-2.028,10.669,10.680,14.783,5.217,10.929
Mon Dec 02 21:11:54 2024,265,-27.834,27.834,18.338,18.338,-4.962,12.468,11.720,2.453,13.640,13.434,-2.234,9.244,10.704,14.450,5.534,11.130
Mon Dec 02 21:11:54 2024,270,-28.487,28.487,21.284,21.284,-5.030,11.382,11.717,2.492,12.772,13.853,-2.436,7.776,10.726,14.117,5.812,11.332
Mon Dec 02 21:11:54 2024,275,-28.539,28.539,23.633,23.633,-5.139,10.379,11.788,2.277,11.825,13.765,-2.383,7.416,11.262,14.185,5.718,11.963
Mon Dec 02 21:11:54 2024,280,-28.606,28.606,26.123,26.123,-5.231,9.348,11.858,2.084,10.828,13.666,-2.320,7.068,11.812,14.268,5.607,12.604
Mon Dec 02 21:11:54 2024,285,-29.325,29.325,28.388,28.388,-5.486,8.729,11.817,1.929,10.413,13.604,-2.394,6.787,12.032,14.359,5.474,12.847
Mon Dec 02 21:11:54 2024,290,-30.516,30.516,30.500,30.500,-5.867,8.401,11.700,1.784,10.417,13.568,-2.573,6.549,12.022,14.449,5.324,12.812
Mon Dec 02 21:11:54 2024,295,-31.474,31.474,32.203,32.203,-6.168,8.142,11.608,1.668,10.420,13.539,-2.717,6.361,12.014,14.519,5.200,12.784
Mon Dec 02 21:11:54 2024,300,-32.222,32.222,33.018,33.018,-6.116,7.940,11.519,1.730,9.572,13.365,-2.579,5.948,12.162,14.619,4.919,12.964
Mon Dec 02 21:11:54 2024,305,-32.787,32.787,33.593,33.593,-6.086,7.794,11.456,1.767,8.990,13.246,-2.490,5.659,12.264,14.687,4.700,13.087
Mon Dec 02 21:11:54 2024,310,-33.474,33.474,33.460,33.460,-6.100,7.914,11.238,1.907,9.015,13.084,-2.304,5.893,12.198,14.846,4.576,12.856
Mon Dec 02 21:11:54 2024,315,-34.049,34.049,32.623,32.623,-6.158,8.271,10.926,2.108,9.671,12.927,-2.080,6.612,11.972,15.047,4.577,12.326
Mon Dec 02 21:11:54 2024,320,-34.603,34.603,31.825,31.825,-6.217,8.600,10.631,2.294,10.285,12.780,-1.875,7.291,11.758,15.232,4.542,11.825
Mon Dec 02 21:11:54 2024,325,-35.243,35.243,31.117,31.117,-6.512,8.803,10.627,2.107,10.514,12.510,-2.035,7.602,11.674,15.197,4.608,11.789
Mon Dec 02 21:11:54 2024,330,-35.734,35.734,30.563,30.563,-6.722,8.952,10.604,1.990,10.715,12.312,-2.134,7.863,11.602,15.185,4.648,11.730
Mon Dec 02 21:11:54 2024,335,-36.081,36.081,30.014,30.014,-6.876,8.926,10.599,1.938,10.671,12.231,-2.129,7.883,11.514,15.233,4.586,11.562
Mon Dec 02 21:11:54 2024,340,-36.317,36.317,29.578,29.578,-6.983,8.863,10.600,1.914,10.573,12.198,-2.097,7.837,11.441,15.286,4.511,11.403
Mon Dec 02 21:11:54 2024,345,-36.577,36.577,29.097,29.097,-7.100,8.793,10.602,1.887,10.465,12.162,-2.063,7.787,11.362,15.345,4.427,11.228
Mon Dec 02 21:11:54 2024,350,-37.146,37.146,27.827,27.827,-7.284,8.655,10.647,1.838,10.604,12.274,-2.069,7.742,11.299,15.336,4.415,11.076
Mon Dec 02 21:11:54 2024,355,-37.583,37.583,26.883,26.883,-7.429,8.550,10.678,1.801,10.681,12.344,-2.067,7.703,11.244,15.340,4.392,10.945
Mon Dec 02 21:11:54 2024,360,-37.808,37.808,25.982,25.982,-7.470,8.519,10.722,1.746,10.790,12.464,-2.093,7.727,11.281,15.357,4.381,10.864
Mon Dec 02 21:11:54 2024,365,-37.925,37.925,25.209,25.209,-7.463,8.524,10.766,1.690,10.898,12.590,-2.127,7.773,11.352,15.376,4.377,10.815
Mon Dec 02 21:11:54 2024,370,-38.015,38.015,24.650,24.650,-7.457,8.527,10.798,1.650,10.976,12.681,-2.152,7.806,11.404,15.390,4.373,10.781
Mon Dec 02 21:11:54 2024,375,-37.493,37.493,23.833,23.833,-7.375,8.810,10.988,1.532,10.828,12.647,-2.162,7.918,11.527,15.341,4.400,10.744
Mon Dec 02 21:11:54 2024,380,-37.137,37.137,23.102,23.102,-7.312,9.025,11.139,1.435,10.730,12.640,-2.174,8.010,11.631,15.307,4.419,10.710
Mon Dec 02 21:11:54 2024,385,-36.520,36.520,22.464,22.464,-7.265,9.296,11.157,1.322,10.654,12.490,-2.310,7.894,11.470,15.272,4.436,10.559
Mon Dec 02 21:11:54 2024,390,-35.939,35.939,21.880,21.880,-7.222,9.550,11.158,1.218,10.587,12.338,-2.448,7.765,11.294,15.239,4.452,10.407
Mon Dec 02 21:11:54 2024,395,-35.432,35.432,21.343,21.343,-7.181,9.777,11.159,1.123,10.526,12.202,-2.574,7.648,11.136,15.210,4.465,10.271
Mon Dec 02 21:11:54 2024,400,-34.860,34.860,21.032,21.032,-7.232,9.843,11.120,1.049,10.749,12.242,-2.635,7.775,11.141,15.180,4.515,10.238
Mon Dec 02 21:11:54 2024,405,-34.259,34.259,20.579,20.579,-7.259,9.972,11.090,0.960,10.900,12.230,-2.726,7.832,11.095,15.150,4.557,10.172
Mon Dec 02 21:11:54 2024,410,-33.990,33.990,20.116,20.116,-7.290,10.073,11.093,0.912,10.903,12.215,-2.777,7.814,11.082,15.187,4.553,10.209
Mon Dec 02 21:11:54 2024,415,-33.767,33.767,19.718,19.718,-7.317,10.157,11.095,0.872,10.905,12.203,-2.820,7.798,11.071,15.219,4.548,10.240
Mon Dec 02 21:11:54 2024,420,-33.533,33.533,19.331,19.331,-7.323,10.288,11.113,0.863,11.007,12.233,-2.833,7.812,11.048,15.259,4.530,10.227
Mon Dec 02 21:11:54 2024,425,-33.372,33.372,19.084,19.084,-7.313,10.408,11.137,0.881,11.149,12.284,-2.819,7.844,11.025,15.292,4.508,10.186
Mon Dec 02 21:11:54 2024,430,-33.216,33.216,18.836,18.836,-7.303,10.525,11.160,0.898,11.290,12.336,-2.804,7.876,11.002,15.325,4.486,10.145
Mon Dec 02 21:11:54 2024,435,-32.873,32.873,18.551,18.551,-7.351,10.458,11.231,0.800,11.258,12.330,-2.920,7.837,11.002,15.365,4.461,10.227
Mon Dec 02 21:11:54 2024,440,-32.611,32.611,18.338,18.338,-7.391,10.393,11.288,0.718,11.221,12.321,-3.015,7.802,11.005,15.394,4.443,10.297
Mon Dec 02 21:11:54 2024,445,-32.410,32.410,18.161,18.161,-7.394,10.426,11.422,0.659,11.184,12.362,-3.140,7.705,11.024,15.427,4.400,10.343
Mon Dec 02 21:11:54 2024,450,-32.329,32.329,18.078,18.078,-7.371,10.512,11.555,0.639,11.163,12.420,-3.236,7.605,11.047,15.450,4.357,10.355
Mon Dec 02 21:11:54 2024,455,-32.216,32.216,17.949,17.949,-7.359,10.581,11.682,0.592,11.104,12.450,-3.338,7.513,11.067,15.462,4.323,10.367
Mon Dec 02 21:11:54 2024,460,-32.020,32.020,17.697,17.697,-7.399,10.545,11.712,0.470,10.911,12.341,-3.412,7.504,11.063,15.417,4.352,10.377
Mon Dec 02 21:11:54 2024,465,-31.820,31.820,17.436,17.436,-7.441,10.508,11.744,0.362,10.709,12.230,-3.489,7.494,11.059,15.372,4.380,10.387
Mon Dec 02 21:11:54 2024,470,-31.638,31.638,17.198,17.198,-7.480,10.474,11.773,0.296,10.522,12.128,-3.560,7.485,11.056,15.331,4.404,10.396
Mon Dec 02 21:11:54 2024,475,-31.708,31.708,17.000,17.000,-7.326,10.596,11.805,0.322,10.613,12.234,-3.582,7.335,11.015,15.329,4.399,10.400
Mon Dec 02 21:11:54 2024,480,-31.627,31.627,16.780,16.780,-7.244,10.671,11.829,0.317,10.601,12.232,-3.602,7.286,10.975,15.330,4.392,10.376
Mon Dec 02 21:11:54 2024,485,-31.443,31.443,16.593,16.593,-7.182,10.750,11.832,0.309,10.593,12.168,-3.576,7.350,10.912,15.366,4.360,10.294
Mon Dec 02 21:11:54 2024,490,-31.253,31.253,16.410,16.410,-7.115,10.834,11.834,0.302,10.582,12.096,-3.548,7.410,10.846,15.398,4.333,10.211
Mon Dec 02 21:11:54 2024,495,-31.098,31.098,16.446,16.446,-7.024,10.916,11.780,0.295,10.524,11.989,-3.538,7.342,10.758,15.320,4.396,10.148
Mon Dec 02 21:11:54 2024,500,-30.950,30.950,16.528,16.528,-6.928,10.997,11.716,0.290,10.455,11.873,-3.530,7.245,10.666,15.220,4.477,10.090
Mon Dec 02 21:11:54 2024,505,-30.834,30.834,16.548,16.548,-6.852,11.105,11.670,0.285,10.424,11.759,-3.513,7.237,10.587,15.150,4.537,10.020
Mon Dec 02 21:11:54 2024,510,-30.771,30.771,16.453,16.453,-6.812,11.272,11.660,0.278,10.468,11.641,-3.472,7.403,10.530,15.134,4.560,9.920
Mon Dec 02 21:11:54 2024,515,-30.712,30.712,16.362,16.362,-6.774,11.426,11.650,0.274,10.510,11.531,-3.433,7.558,10.476,15.120,4.580,9.826
Mon Dec 02 21:11:54 2024,520,30.602,30.602,16.332,16.332,-6.667,11.547,11.661,0.273,10.490,11.504,-3.397,7.601,10.475,15.102,4.597,9.812
Mon Dec 02 21:11:54 2024,525,30.492,30.492,16.324,16.324,-6.551,11.642,11.678,0.276,10.452,11.508,-3.366,7.600,10.492,15.086,4.611,9.826
Mon Dec 02 21:11:54 2024,530,30.385,30.385,16.318,16.318,-6.437,11.734,11.694,0.278,10.416,11.512,-3.336,7.600,10.508,15.071,4.624,9.840
Mon Dec 02 21:11:54 2024,535,30.438,30.438,16.724,16.724,-6.454,11.656,11.773,-0.281,10.418,11.577,-3.345,7.578,10.566,14.949,4.743,9.916
Mon Dec 02 21:11:54 2024,540,30.449,30.449,16.949,16.949,-6.443,11.629,11.819,-0.286,10.413,11.614,-3.345,7.567,10.601,14.878,4.811,9.962
Mon Dec 02 21:11:54 2024,545,-30.333,30.333,17.166,17.166,-6.302,11.696,11.834,0.273,10.513,11.682,-3.197,7.706,10.682,14.921,4.766,10.002
Mon Dec 02 21:11:54 2024,550,-30.246,30.246,17.303,17.303,-6.197,11.747,11.840,0.276,10.587,11.728,-3.087,7.810,10.739,14.961,4.726,10.028
Mon Dec 02 21:11:54 2024,555,-30.263,30.263,17.543,17.543,-6.039,11.879,11.876,0.332,10.725,11.797,-2.928,7.957,10.783,15.031,4.656,10.017
Mon Dec 02 21:11:54 2024,560,-30.419,30.419,17.777,17.777,-5.904,12.040,11.933,0.435,10.863,11.853,-2.798,8.073,10.782,15.102,4.589,9.961
Mon Dec 02 21:11:54 2024,565,-30.584,30.584,18.085,18.085,-5.766,12.174,11.980,0.567,10.987,11.915,-2.645,8.183,10.791,15.163,4.531,9.915
Mon Dec 02 21:11:54 2024,570,-30.671,30.671,18.500,18.500,-5.718,12.102,11.959,0.627,10.976,11.955,-2.506,8.188,10.826,15.134,4.560,9.934
Mon Dec 02 21:11:54 2024,575,-30.760,30.760,18.955,18.955,-5.677,12.002,11.930,0.682,10.951,11.994,-2.359,8.180,10.868,15.093,4.600,9.961
Mon Dec 02 21:11:54 2024,580,-30.850,30.850,19.545,19.545,-5.620,11.958,11.978,0.765,10.902,12.030,-2.228,8.183,10.903,15.109,4.578,9.996
Mon Dec 02 21:11:54 2024,585,-30.985,30.985,20.702,20.702,-5.506,12.045,12.243,0.951,10.775,12.070,-2.080,8.210,10.939,15.272,4.393,10.061
Mon Dec 02 21:11:54 2024,590,-31.186,31.186,21.691,21.691,-5.423,12.032,12.417,1.103,10.646,12.089,-1.981,8.189,10.956,15.407,4.242,10.131
Mon Dec 02 21:11:54 2024,595,-31.575,31.575,22.647,22.647,-5.398,11.770,12.461,1.231,10.443,12.050,-2.025,8.025,10.899,15.577,4.069,10.246
Mon Dec 02 21:11:54 2024,600,-31.963,31.963,23.464,23.464,-5.380,11.512,12.487,1.341,10.260,12.011,-2.077,7.870,10.845,15.728,3.916,10.351
Mon Dec 02 21:11:54 2024,605,-31.958,31.958,24.701,24.701,-5.389,11.346,12.544,1.432,10.150,11.943,-2.125,7.819,10.836,15.869,3.759,10.418
Mon Dec 02 21:11:54 2024,610,-31.724,31.724,26.152,26.152,-5.415,11.256,12.619,1.504,10.093,11.860,-2.168,7.842,10.860,15.994,3.609,10.458
Mon Dec 02 21:11:54 2024,615,-31.617,31.617,27.691,27.691,-5.393,11.218,12.741,1.609,10.022,11.809,-2.210,7.800,10.872,16.126,3.440,10.496
Mon Dec 02 21:11:54 2024,620,-31.575,31.575,29.530,29.530,-5.210,11.406,13.027,1.814,9.918,11.874,-2.243,7.563,10.858,16.266,3.218,10.510
Mon Dec 02 21:11:54 2024,625,-31.592,31.592,31.180,31.180,-5.033,11.587,13.294,2.003,9.820,11.939,-2.274,7.339,10.844,16.391,3.012,10.521
Mon Dec 02 21:11:54 2024,630,-30.997,30.997,32.802,32.802,-4.926,11.377,13.274,2.126,9.583,11.944,-2.357,6.866,10.740,16.512,2.775,10.634
Mon Dec 02 21:11:54 2024,635,-30.372,30.372,34.114,34.114,-4.860,11.086,13.177,2.207,9.350,11.931,-2.441,6.411,10.630,16.610,2.568,10.754
Mon Dec 02 21:11:54 2024,640,-29.609,29.609,35.342,35.342,-4.779,10.880,13.112,2.243,9.112,11.800,-2.535,5.969,10.390,16.617,2.371,10.676
Mon Dec 02 21:11:54 2024,645,-28.902,28.902,35.787,35.787,-4.701,10.974,13.146,2.163,8.982,11.485,-2.600,5.780,9.991,16.413,2.292,10.211
Mon Dec 02 21:11:54 2024,650,-28.289,28.289,36.241,36.241,-4.622,11.064,13.182,2.084,8.853,11.177,-2.664,5.594,9.598,16.206,2.191,9.751
Mon Dec 02 21:11:54 2024,655,-27.306,27.306,36.138,36.138,-4.409,11.086,13.215,2.096,8.637,10.922,-2.860,5.228,9.192,16.017,2.107,9.448
Mon Dec 02 21:11:54 2024,660,-26.314,26.314,35.864,35.864,-4.159,11.077,13.246,2.135,8.396,10.686,-3.099,4.813,8.793,15.834,2.020,9.199
Mon Dec 02 21:11:54 2024,665,-25.158,25.158,35.028,35.028,-3.978,11.024,13.199,2.144,8.204,10.613,-3.363,4.368,8.499,15.676,2.002,9.115
Mon Dec 02 21:11:54 2024,670,-23.866,23.866,33.680,33.680,-3.900,10.935,13.067,2.121,8.093,10.742,-3.626,3.936,8.359,15.564,2.078,9.233
Mon Dec 02 21:11:54 2024,675,-22.562,22.562,32.337,32.337,-3.817,10.838,12.930,2.096,7.976,10.880,-3.905,3.476,8.216,15.447,2.159,9.359
Mon Dec 02 21:11:54 2024,680,-21.712,21.712,30.932,30.932,-3.985,11.128,13.132,2.018,8.417,10.822,-3.948,3.976,8.192,15.519,2.254,9.323
Mon Dec 02 21:11:54 2024,685,-21.031,21.031,29.690,29.690,-4.157,11.409,13.346,1.943,8.870,10.758,-3.976,4.501,8.173,15.601,2.334,9.280
Mon Dec 02 21:11:54 2024,690,-20.403,20.403,28.527,28.527,-4.321,11.673,13.550,1.872,9.302,10.697,-4.003,5.002,8.156,15.680,2.408,9.239
Mon Dec 02 21:11:54 2024,695,-19.634,19.634,25.856,25.856,-3.808,12.803,12.953,1.987,10.312,10.344,-3.804,5.817,7.763,15.639,2.532,8.515
Mon Dec 02 21:11:54 2024,700,-19.196,17.489,23.997,24.313,-3.781,13.047,12.805,2.001,10.410,10.294,-3.789,5.981,7.708,15.644,2.530,8.316
Mon Dec 02 21:11:54 2024,705,-18.757,15.344,22.137,22.770,-3.754,13.291,12.657,2.015,10.508,10.245,-3.775,6.145,7.653,15.650,2.529,8.118
Mon Dec 02 21:11:54 2024,710,-18.319,13.199,20.278,21.228,-3.726,13.535,12.509,2.029,10.605,10.195,-3.760,6.309,7.597,15.655,2.527,7.919
Mon Dec 02 21:11:54 2024,715,-17.881,11.054,18.419,19.685,-3.699,13.779,12.361,2.043,10.703,10.145,-3.746,6.473,7.542,15.660,2.526,7.721
Mon Dec 02 21:11:54 2024,720,-17.442,8.909,16.560,18.142,-3.672,14.022,12.213,2.057,10.801,10.095,-3.731,6.636,7.487,15.665,2.524,7.522
Mon Dec 02 21:11:54 2024,725,-17.004,6.764,14.700,16.599,-3.645,14.266,12.065,2.071,10.899,10.046,-3.717,6.800,7.432,15.671,2.523,7.324
Mon Dec 02 21:11:54 2024,730,-16.566,4.619,12.841,15.056,-3.617,14.510,11.917,2.085,10.996,9.996,-3.702,6.964,7.377,15.676,2.521,7.125
Mon Dec 02 21:11:54 2024,735,-16.127,2.473,10.982,13.513,-3.590,14.754,11.769,2.099,11.094,9.946,-3.688,7.128,7.321,15.681,2.520,6.927
Mon Dec 02 21:11:54 2024,740,-15.689,0.328,9.123,11.971,-3.563,14.998,11.621,2.113,11.192,9.896,-3.673,7.292,7.266,15.686,2.518,6.728
Mon Dec 02 21:11:54 2024,745,-15.250,-1.817,7.263,10.428,-3.536,15.242,11.473,2.126,11.290,9.847,-3.659,7.456,7.211,15.692,2.517,6.529
Mon Dec 02 21:11:54 2024,750,-14.812,-3.962,5.404,8.885,-3.508,15.486,11.325,2.140,11.387,9.797,-3.644,7.620,7.156,15.697,2.515,6.331
Mon Dec 02 21:11:54 2024,755,-14.374,-6.107,3.545,7.342,-3.481,15.730,11.177,2.154,11.485,9.747,-3.630,7.784,7.101,15.702,2.514,6.132
Mon Dec 02 21:11:54 2024,760,-13.935,-8.252,1.685,5.799,-3.454,15.973,11.030,2.168,11.583,9.697,-3.615,7.947,7.045,15.707,2.512,5.934
Mon Dec 02 21:11:54 2024,765,-13.497,-10.397,-0.174,4.256,-3.427,16.217,10.882,2.182,11.681,9.648,-3.600,8.111,6.990,15.713,2.511,5.735
Mon Dec 02 21:11:54 2024,770,-13.059,-12.542,-2.033,2.714,-3.399,16.461,10.734,2.196,11.778,9.598,-3.586,8.275,6.935,15.718,2.509,5.537
Mon Dec 02 21:11:54 2024,775,-12.585,-12.585,-1.680,1.680,-3.449,22.076,10.757,2.197,11.944,9.618,-3.508,8.528,6.979,15.838,2.468,5.451
Mon Dec 02 21:11:54 2024,780,-12.144,-12.144,-1.150,1.150,-3.556,23.558,10.822,2.190,12.150,9.652,-3.412,8.794,7.036,15.978,2.424,5.405
Mon Dec 02 21:11:54 2024,785,-11.749,-11.749,-0.823,0.823,-3.663,23.720,10.882,2.182,12.346,9.684,-3.322,9.038,7.086,16.106,2.383,5.366
Mon Dec 02 21:11:54 2024,790,-11.195,-11.195,-0.762,0.762,-3.790,23.984,10.986,2.117,12.523,9.755,-3.352,9.164,7.190,16.209,2.386,5.493
Mon Dec 02 21:11:54 2024,795,-10.702,-10.702,-0.949,-0.949,-3.899,24.260,11.086,2.042,12.654,9.826,-3.426,9.214,7.294,16.279,2.405,5.662
Mon Dec 02 21:11:54 2024,800,-10.212,-10.212,-1.177,-1.177,-4.019,24.576,11.204,1.980,12.838,9.896,-3.490,9.288,7.362,16.322,2.444,5.767
Mon Dec 02 21:11:54 2024,805,-9.741,-9.741,-1.332,-1.332,-4.156,24.924,11.347,1.936,13.105,9.962,-3.539,9.400,7.370,16.319,2.516,5.768
Mon Dec 02 21:11:54 2024,810,-9.304,-9.304,-1.499,-1.499,-4.292,25.292,11.492,1.900,13.375,10.029,-3.585,9.515,7.380,16.316,2.583,5.771
Mon Dec 02 21:11:54 2024,815,-9.021,-9.021,-1.628,-1.628,-4.316,25.548,11.582,1.985,13.563,10.099,-3.563,9.634,7.433,16.323,2.574,5.764
Mon Dec 02 21:11:54 2024,820,-8.732,-8.732,-1.778,-1.778,-4.321,25.851,11.679,2.110,13.769,10.183,-3.523,9.779,7.504,16.334,2.549,5.755
Mon Dec 02 21:11:54 2024,825,-8.588,-8.588,-1.830,-1.830,-4.350,26.099,11.785,2.169,13.880,10.225,-3.512,9.848,7.535,16.377,2.499,5.753
Mon Dec 02 21:11:54 2024,830,-8.570,-8.570,-1.809,-1.809,-4.392,26.278,11.886,2.176,13.918,10.232,-3.522,9.860,7.534,16.437,2.437,5.756
Mon Dec 02 21:11:54 2024,835,-8.592,-8.592,-1.789,-1.789,-4.434,26.458,11.988,2.184,13.956,10.240,-3.531,9.870,7.532,16.496,2.376,5.759
Mon Dec 02 21:11:54 2024,840,-8.702,-8.702,-1.912,-1.912,-4.442,26.628,11.910,2.294,14.144,10.230,-3.552,9.948,7.456,16.511,2.343,5.678
Mon Dec 02 21:11:54 2024,845,-8.812,-8.812,-2.030,-2.030,-4.444,26.769,11.828,2.398,14.310,10.219,-3.570,10.018,7.384,16.519,2.318,5.602
Mon Dec 02 21:11:54 2024,850,-8.975,-8.975,-2.059,-2.059,-4.459,26.850,11.796,2.493,14.384,10.225,-3.535,10.042,7.346,16.551,2.242,5.496
Mon Dec 02 21:11:54 2024,855,-9.155,-9.155,-2.019,-2.019,-4.482,26.872,11.807,2.564,14.382,10.242,-3.468,10.027,7.339,16.595,2.142,5.387
Mon Dec 02 21:11:54 2024,860,-9.381,-9.381,-1.998,-1.998,-4.510,26.894,11.806,2.641,14.375,10.257,-3.407,10.006,7.334,16.632,2.040,5.279
Mon Dec 02 21:11:54 2024,865,-9.628,-9.628,-2.161,-2.161,-4.557,26.890,11.701,2.676,14.351,10.239,-3.472,9.962,7.358,16.572,2.046,5.288
Mon Dec 02 21:11:54 2024,870,-9.863,-9.863,-2.311,-2.311,-4.599,26.887,11.606,2.708,14.329,10.223,-3.531,9.923,7.380,16.516,2.050,5.297
Mon Dec 02 21:11:54 2024,875,-10.099,-10.099,-2.417,-2.417,-4.613,26.849,11.529,2.729,14.316,10.189,-3.460,9.997,7.390,16.522,2.005,5.245
Mon Dec 02 21:11:54 2024,880,-10.307,-10.307,-2.476,-2.476,-4.601,26.786,11.477,2.738,14.313,10.146,-3.289,10.155,7.388,16.576,1.926,5.150
Mon Dec 02 21:11:54 2024,885,-10.491,-10.491,-2.538,-2.538,-4.593,26.734,11.425,2.748,14.315,10.119,-3.170,10.266,7.389,16.618,1.864,5.080
Mon Dec 02 21:11:54 2024,890,-10.731,-10.731,-2.702,-2.702,-4.592,26.683,11.312,2.779,14.362,10.181,-3.258,10.195,7.408,16.626,1.840,5.083
Mon Dec 02 21:11:54 2024,895,-10.951,-10.951,-2.850,-2.850,-4.591,26.636,11.210,2.808,14.404,10.238,-3.337,10.130,7.425,16.634,1.820,5.086
Mon Dec 02 21:11:54 2024,900,-11.180,-11.180,-2.980,-2.980,-4.645,26.659,11.138,2.782,14.437,10.221,-3.281,10.156,7.416,16.717,1.754,5.059
Mon Dec 02 21:11:54 2024,905,-11.385,-11.385,-3.089,-3.089,-4.711,26.704,11.085,2.739,14.465,10.180,-3.185,10.211,7.398,16.818,1.681,5.026
Mon Dec 02 21:11:54 2024,910,-11.565,-11.565,-3.178,-3.178,-4.765,26.754,11.075,2.725,14.495,10.167,-3.124,10.247,7.402,16.888,1.627,5.014
Mon Dec 02 21:11:54 2024,915,-11.666,-11.666,-3.213,-3.213,-4.786,26.810,11.153,2.773,14.524,10.214,-3.145,10.242,7.453,16.887,1.624,5.049
Mon Dec 02 21:11:54 2024,920,-11.763,-11.763,-3.246,-3.246,-4.806,26.863,11.228,2.818,14.552,10.258,-3.166,10.238,7.502,16.886,1.620,5.084
Mon Dec 02 21:11:54 2024,925,-11.863,-11.863,-3.312,-3.312,-4.890,26.912,11.212,2.743,14.640,10.279,-3.211,10.181,7.462,16.792,1.678,5.020
Mon Dec 02 21:11:54 2024,930,-11.978,-11.978,-3.394,-3.394,-4.994,26.968,11.180,2.640,14.750,10.298,-3.266,10.108,7.404,16.670,1.754,4.934
Mon Dec 02 21:11:54 2024,935,-12.071,-12.071,-3.430,-3.430,-5.026,26.977,11.193,2.587,14.795,10.352,-3.299,10.042,7.433,16.618,1.792,4.977
Mon Dec 02 21:11:54 2024,940,-12.137,-12.137,-3.413,-3.413,-4.969,26.931,11.265,2.604,14.764,10.448,-3.305,9.988,7.572,16.653,1.786,5.180
Mon Dec 02 21:11:54 2024,945,-12.220,-12.220,-3.393,-3.393,-4.898,26.875,11.354,2.625,14.724,10.569,-3.312,9.920,7.745,16.697,1.778,5.437
Mon Dec 02 21:11:54 2024,950,-12.351,-12.351,-3.530,-3.530,-4.968,26.890,11.310,2.642,14.915,10.646,-3.279,10.001,7.795,16.761,1.696,5.379
Mon Dec 02 21:11:54 2024,955,-12.469,-12.469,-3.660,-3.660,-5.038,26.910,11.263,2.658,15.092,10.711,-3.247,10.081,7.830,16.817,1.619,5.306
Mon Dec 02 21:11:54 2024,960,-12.572,-12.572,-3.756,-3.756,-5.085,26.890,11.263,2.652,15.189,10.790,-3.241,10.099,7.880,16.869,1.557,5.293
Mon Dec 02 21:11:54 2024,965,-12.638,-12.638,-3.790,-3.790,-5.090,26.812,11.334,2.616,15.154,10.882,-3.276,10.018,7.946,16.906,1.522,5.372
Mon Dec 02 21:11:54 2024,970,-12.710,-12.710,-3.808,-3.808,-5.083,26.746,11.401,2.586,15.119,10.954,-3.300,9.952,8.006,16.935,1.501,5.450
Mon Dec 02 21:11:54 2024,975,-12.819,-12.819,-3.749,-3.749,-5.013,26.726,11.447,2.591,15.087,10.939,-3.263,9.950,8.039,16.920,1.545,5.537
Mon Dec 02 21:11:54 2024,980,-12.942,-12.942,-3.673,-3.673,-4.929,26.713,11.496,2.600,15.052,10.911,-3.216,9.957,8.072,16.898,1.601,5.633
Mon Dec 02 21:11:54 2024,985,-13.095,-13.095,-3.655,-3.655,-4.821,26.786,11.663,2.594,15.066,10.970,-3.150,10.062,8.191,16.852,1.680,5.727
Mon Dec 02 21:11:54 2024,990,-13.206,-13.206,-3.712,-3.712,-4.740,26.926,11.878,2.574,15.128,11.098,-3.098,10.225,8.349,16.802,1.747,5.772
Mon Dec 02 21:11:54 2024,995,-13.317,-13.317,-3.795,-3.795,-4.641,27.082,12.130,2.558,15.188,11.234,-3.042,10.388,8.510,16.752,1.812,5.818
Mon Dec 02 21:11:55 2024,0,-13.310,-13.310,-4.003,-4.003,-4.472,27.142,12.404,2.595,15.161,11.298,-2.993,10.375,8.524,16.760,1.800,5.822
Mon Dec 02 21:11:55 2024,5,-13.286,-13.286,-4.235,-4.235,-4.289,27.198,12.692,2.642,15.119,11.352,-2.945,10.334,8.515,16.777,1.775,5.819
Mon Dec 02 21:11:55 2024,10,-13.300,-13.300,-4.352,-4.352,-4.089,27.340,13.098,2.633,15.064,11.358,-2.948,10.301,8.480,16.702,1.851,5.813
Mon Dec 02 21:11:55 2024,15,-13.339,-13.339,-4.376,-4.376,-3.895,27.542,13.557,2.588,15.004,11.330,-2.988,10.276,8.429,16.569,1.991,5.806
Mon Dec 02 21:11:55 2024,20,-13.397,-13.397,-4.403,-4.403,-3.650,27.828,14.151,2.538,14.923,11.299,-3.026,10.263,8.381,16.416,2.153,5.812
Mon Dec 02 21:11:55 2024,25,-13.589,-13.589,-4.416,-4.416,-3.194,28.469,15.325,2.528,14.759,11.307,-2.952,10.456,8.467,16.310,2.291,5.994
Mon Dec 02 21:11:55 2024,30,-13.756,-13.756,-4.426,-4.426,-2.801,29.095,16.375,2.519,14.614,11.314,-2.889,10.625,8.542,16.218,2.410,6.152
Mon Dec 02 21:11:55 2024,35,-13.906,-13.906,-4.436,-4.436,-2.448,29.708,17.345,2.512,14.482,11.320,-2.832,10.776,8.609,16.133,2.518,6.296
Mon Dec 02 21:11:55 2024,40,-13.930,-13.930,-4.485,-4.485,-1.985,30.966,19.472,2.787,14.366,11.573,-2.798,10.895,8.690,16.159,2.463,6.275
Mon Dec 02 21:11:55 2024,45,-14.005,-14.005,-4.518,-4.518,-1.690,31.902,20.944,2.930,14.258,11.688,-2.789,10.943,8.725,16.130,2.468,6.284
Mon Dec 02 21:11:55 2024,50,-14.200,-14.200,-4.570,-4.570,-1.563,33.267,22.861,3.098,14.098,11.705,-2.910,10.683,8.618,16.001,2.502,6.179
Mon Dec 02 21:11:55 2024,55,-14.398,-14.398,-4.621,-4.621,-1.479,34.620,24.769,3.260,13.939,11.711,-3.038,10.407,8.505,15.869,2.532,6.069
Mon Dec 02 21:11:55 2024,60,-14.471,-14.471,-4.720,-4.720,-1.465,36.138,26.897,3.368,13.750,11.783,-3.046,10.252,8.486,15.730,2.569,5.976
Mon Dec 02 21:11:55 2024,65,-14.489,-14.489,-4.833,-4.833,-1.496,37.629,29.014,3.448,13.561,11.877,-3.006,10.156,8.507,15.597,2.604,5.896
Mon Dec 02 21:11:55 2024,70,-14.503,-14.503,-4.920,-4.920,-1.538,38.769,30.648,3.509,13.417,11.949,-2.976,10.082,8.523,15.496,2.629,5.836
Mon Dec 02 21:11:55 2024,75,-14.515,-14.515,-5.179,-5.179,-1.710,40.170,32.292,3.609,13.383,11.999,-2.981,10.106,8.516,15.441,2.673,5.790
Mon Dec 02 21:11:55 2024,80,-14.527,-14.527,-5.382,-5.382,-1.859,41.324,33.694,3.690,13.345,12.043,-2.983,10.119,8.512,15.392,2.708,5.749
Mon Dec 02 21:11:55 2024,85,-14.422,-14.422,-5.503,-5.503,-2.054,43.155,36.300,3.786,13.226,11.939,-2.927,10.057,8.350,15.345,2.627,5.536
Mon Dec 02 21:11:55 2024,90,-14.316,-14.316,-5.564,-5.564,-2.216,44.644,38.559,3.858,13.118,11.821,-2.871,9.990,8.189,15.311,2.534,5.335
Mon Dec 02 21:11:55 2024,95,-14.219,-14.219,-5.619,-5.619,-2.381,46.050,40.737,3.925,13.016,11.711,-2.819,9.927,8.037,15.278,2.445,5.145
Mon Dec 02 21:11:55 2024,100,-14.221,-14.221,-5.541,-5.541,-3.112,48.898,44.128,4.012,13.406,11.604,-2.607,10.203,7.948,15.199,2.528,4.963
Mon Dec 02 21:11:55 2024,105,-14.208,-14.208,-5.488,-5.488,-3.784,51.429,47.418,4.092,13.683,11.501,-2.429,10.412,7.852,15.131,2.580,4.788
Mon Dec 02 21:11:55 2024,110,-14.030,-14.030,-5.558,-5.558,-4.682,55.029,52.501,4.208,14.031,11.393,-2.204,10.632,7.674,15.185,2.492,4.531
Mon Dec 02 21:11:55 2024,115,-13.717,-13.717,-5.736,-5.736,-5.906,59.721,59.976,4.363,14.396,11.279,-1.934,10.860,7.426,15.343,2.284,4.198
Mon Dec 02 21:11:55 2024,120,-13.440,-13.440,-5.938,-5.938,-6.996,64.229,67.605,4.504,14.681,11.243,-1.788,11.018,7.160,15.446,2.130,3.885
Mon Dec 02 21:11:55 2024,125,-13.240,-13.240,-6.150,-6.150,-7.739,67.932,73.996,4.605,14.874,11.322,-1.830,11.076,6.897,15.462,2.066,3.638
Mon Dec 02 21:11:55 2024,130,-13.054,-13.054,-6.354,-6.354,-8.744,71.618,80.033,4.710,14.993,11.403,-1.869,11.133,6.646,15.478,2.005,3.399
Mon Dec 02 21:11:55 2024,135,-13.111,-13.111,-6.224,-6.224,-9.644,74.340,84.132,4.752,15.038,11.608,-2.000,11.209,6.541,15.412,2.078,3.448
Mon Dec 02 21:11:55 2024,140,-13.189,-13.189,-6.075,-6.075,-10.448,76.417,87.039,4.778,15.062,11.791,-2.116,11.271,6.477,15.349,2.154,3.528
Mon Dec 02 21:11:55 2024,145,-13.191,-13.191,-5.879,-5.879,11.140,78.064,89.654,4.856,15.022,12.009,-2.237,11.323,6.524,15.270,2.260,3.669
Mon Dec 02 21:11:55 2024,150,-13.127,-13.127,-5.663,-5.663,11.745,79.164,91.780,4.970,14.933,12.235,-2.350,11.362,6.662,15.186,2.381,3.848
Mon Dec 02 21:11:55 2024,155,-13.073,-13.073,-5.479,-5.479,12.419,80.126,93.515,5.067,14.856,12.429,-2.445,11.393,6.779,15.114,2.484,4.000
Mon Dec 02 21:11:55 2024,160,-13.086,-13.086,-5.382,-5.382,12.825,80.680,94.549,5.245,14.703,12.505,-2.774,11.152,6.650,14.920,2.598,4.057
Mon Dec 02 21:11:55 2024,165,-13.103,-13.103,-5.296,-5.296,13.216,81.183,95.440,5.410,14.558,12.571,-3.081,10.918,6.526,14.739,2.700,4.109
Mon Dec 02 21:11:55 2024,170,-13.068,-13.068,-5.242,-5.242,13.722,81.664,96.404,5.536,14.444,12.672,-3.356,10.714,6.460,14.558,2.783,4.121
Mon Dec 02 21:11:55 2024,175,-12.951,-12.951,-5.212,-5.212,14.625,82.278,97.763,5.654,14.337,12.851,-3.681,10.483,6.445,14.317,2.867,4.083
Mon Dec 02 21:11:55 2024,180,-12.846,-12.846,-5.185,-5.185,15.574,82.849,98.920,5.759,14.238,13.014,-3.974,10.269,6.432,14.100,2.937,4.050
Mon Dec 02 21:11:55 2024,185,-12.845,-12.845,-4.774,-4.774,16.228,83.490,99.410,5.784,14.218,12.902,-4.179,10.130,6.284,13.986,3.069,4.172
Mon Dec 02 21:11:55 2024,190,-12.834,-12.834,-4.383,-4.383,17.001,84.173,99.968,5.818,14.184,12.814,-4.405,9.971,6.142,13.854,3.203,4.286
Mon Dec 02 21:11:55 2024,195,-12.879,-12.879,-3.986,-3.986,17.625,84.896,100.589,5.870,14.118,12.766,-4.502,10.091,6.070,13.740,3.347,4.259
Mon Dec 02 21:11:55 2024,200,-12.948,-12.948,-3.634,-3.634,18.101,85.555,101.161,5.924,14.024,12.745,-4.525,10.336,6.044,13.650,3.480,4.167
Mon Dec 02 21:11:55 2024,205,-13.005,-13.005,-3.352,-3.352,18.499,86.096,101.612,5.966,13.929,12.728,-4.545,10.534,6.023,13.576,3.589,4.096
Mon Dec 02 21:11:55 2024,210,-13.024,-13.024,-3.179,-3.179,19.462,87.182,102.261,6.011,13.853,12.580,-4.569,10.555,5.820,13.557,3.702,4.047
Mon Dec 02 21:11:55 2024,215,-13.046,-13.046,-3.028,-3.028,20.247,88.050,102.746,6.048,13.784,12.469,-4.589,10.589,5.668,13.535,3.796,4.006
Mon Dec 02 21:11:55 2024,220,-13.112,-13.112,-2.869,-2.869,21.401,89.497,103.021,6.041,26.309,12.334,-4.597,10.863,5.573,13.569,3.950,4.020
Mon Dec 02 21:11:55 2024,225,-13.201,-13.201,-2.697,-2.697,22.833,91.265,103.181,6.012,26.445,12.182,-4.606,11.239,5.495,13.623,4.131,4.056
Mon Dec 02 21:11:55 2024,230,-13.273,-13.273,-2.564,-2.564,24.037,92.681,103.255,5.985,26.577,12.061,-4.616,11.534,5.433,13.664,4.271,4.087
Mon Dec 02 21:11:55 2024,235,-13.392,-13.392,-2.331,-2.331,25.544,94.154,103.421,6.238,26.969,12.028,-4.840,11.438,5.169,13.684,4.426,4.083
Mon Dec 02 21:11:55 2024,240,-13.490,-13.490,-2.150,-2.150,26.892,95.446,103.510,6.424,27.290,11.994,-5.015,11.393,4.962,13.700,4.554,4.082
Mon Dec 02 21:11:55 2024,245,-13.522,-13.522,-1.951,-1.951,28.299,96.828,103.518,6.385,27.411,12.027,-5.276,11.398,4.829,13.592,4.675,3.991
Mon Dec 02 21:11:55 2024,250,-13.537,-13.537,-1.802,-1.802,29.454,97.934,103.490,6.320,27.485,12.065,-5.495,11.401,4.734,13.488,4.770,3.905
Mon Dec 02 21:11:55 2024,255,-13.568,-13.568,-1.665,-1.665,30.826,99.273,103.414,6.263,27.651,12.200,-5.658,11.561,4.721,13.439,4.874,3.858
Mon Dec 02 21:11:55 2024,260,-13.606,-13.606,-1.606,-1.606,31.732,100.226,103.324,6.251,27.870,12.414,-5.640,11.890,4.846,13.507,4.932,3.901
Mon Dec 02 21:11:55 2024,265,-13.645,-13.645,-1.554,-1.554,32.707,101.211,103.218,6.235,28.112,12.646,-5.626,12.216,4.974,13.572,4.990,3.941
Mon Dec 02 21:11:55 2024,270,-13.606,-13.606,-1.581,-1.581,33.534,101.839,103.127,6.179,28.369,12.972,-5.664,12.374,5.013,13.452,5.079,3.798
Mon Dec 02 21:11:55 2024,275,-13.569,-13.569,-1.615,-1.615,34.357,102.453,103.033,6.123,28.637,13.295,-5.701,12.522,5.051,13.335,5.166,3.660
Mon Dec 02 21:11:55 2024,280,-13.528,-13.528,-1.608,-1.608,35.278,103.143,102.945,6.077,29.031,13.661,-5.764,12.716,5.100,13.205,5.287,3.532
Mon Dec 02 21:11:55 2024,285,-13.497,-13.497,-1.532,-1.532,36.045,103.727,102.896,6.061,29.494,13.975,-5.850,12.912,5.150,13.096,5.423,3.459
Mon Dec 02 21:11:55 2024,290,-13.462,-13.462,-1.455,-1.455,36.861,104.342,102.829,6.035,30.036,14.334,-5.959,13.096,5.200,12.972,5.585,3.378
Mon Dec 02 21:11:55 2024,295,-13.420,-13.420,-1.458,-1.458,36.693,104.234,102.735,5.981,30.284,14.479,-6.104,13.110,5.183,12.914,5.725,3.356
Mon Dec 02 21:11:55 2024,300,-13.371,-13.371,-1.465,-1.465,36.497,104.108,102.623,5.916,30.581,14.649,-6.276,13.107,5.161,12.845,5.888,3.331
Mon Dec 02 21:11:55 2024,305,-13.362,-13.362,-1.416,-1.416,36.291,104.030,102.418,5.892,30.931,14.854,-6.345,13.176,5.190,12.777,6.007,3.312
Mon Dec 02 21:11:55 2024,310,-13.382,-13.382,-1.326,-1.326,36.081,103.988,102.147,5.896,31.318,15.086,-6.344,13.295,5.255,12.710,6.096,3.297
Mon Dec 02 21:11:55 2024,315,-13.403,-13.403,-1.242,-1.242,35.860,103.951,101.848,5.884,31.734,15.350,-6.358,13.388,5.323,12.634,6.200,3.292
Mon Dec 02 21:11:55 2024,320,-13.418,-13.418,-1.229,-1.229,35.728,103.972,101.611,5.797,32.003,15.596,-6.431,13.358,5.369,12.554,6.312,3.346
Mon Dec 02 21:11:55 2024,325,-13.436,-13.436,-1.215,-1.215,35.577,103.996,101.339,5.695,32.317,15.880,-6.516,13.318,5.421,12.461,6.442,3.409
Mon Dec 02 21:11:55 2024,330,-13.552,-13.552,-1.180,-1.180,35.449,104.034,101.059,5.666,32.630,16.168,-6.556,13.318,5.466,12.444,6.490,3.430
Mon Dec 02 21:11:55 2024,335,-13.730,-13.730,-1.136,-1.136,35.335,104.082,100.772,5.683,32.945,16.464,-6.568,19.988,5.508,12.474,6.488,3.425
Mon Dec 02 21:11:55 2024,340,-13.929,-13.929,-1.103,-1.103,35.151,104.097,100.442,5.671,33.268,16.793,-6.585,26.650,5.562,12.483,6.501,3.414
Mon Dec 02 21:11:55 2024,345,-14.111,-14.111,-1.118,-1.118,34.846,104.018,100.118,5.589,33.486,17.074,-6.610,26.664,5.636,12.428,6.546,3.393
Mon Dec 02 21:11:55 2024,350,-14.302,-14.302,-1.138,-1.138,34.534,103.936,99.777,5.503,33.716,17.367,-6.635,26.679,5.712,12.372,6.594,3.372
Mon Dec 02 21:11:55 2024,355,-14.480,-14.480,-1.159,-1.159,34.253,103.862,99.460,5.423,33.930,17.637,-6.659,26.694,5.782,12.320,6.636,3.351
Mon Dec 02 21:11:55 2024,360,-14.642,-14.642,-1.195,-1.195,34.240,103.943,99.118,5.505,34.227,17.835,-6.499,26.511,5.963,12.402,6.613,3.477
Mon Dec 02 21:11:55 2024,365,-14.805,-14.805,-1.228,-1.228,34.123,103.958,98.796,5.521,34.486,18.057,-6.416,26.417,6.096,12.430,6.617,3.544
Mon Dec 02 21:11:55 2024,370,-15.052,-15.052,-1.381,-1.381,33.440,103.591,98.300,5.374,34.913,18.365,-6.518,26.511,6.154,12.440,6.673,3.599
Mon Dec 02 21:11:55 2024,375,-15.231,-15.231,-1.516,-1.516,32.955,103.327,97.933,5.265,35.224,18.589,-6.593,26.584,6.197,12.446,6.713,3.638
Mon Dec 02 21:11:55 2024,380,-15.427,-15.427,-1.691,-1.691,32.657,103.272,97.437,5.169,35.722,19.051,-6.635,26.631,6.365,12.490,6.700,3.718
Mon Dec 02 21:11:55 2024,385,-15.570,-15.570,-1.832,-1.832,32.532,103.322,97.042,5.106,36.144,19.472,-6.652,26.658,6.535,12.536,6.671,3.792
Mon Dec 02 21:11:55 2024,390,-15.732,-15.732,-1.994,-1.994,32.313,103.286,96.621,5.060,36.518,19.850,-6.652,26.672,6.668,12.595,6.633,3.835
Mon Dec 02 21:11:55 2024,395,-15.894,-15.894,-2.149,-2.149,31.983,103.118,96.251,5.056,36.717,20.066,-6.624,26.653,6.706,12.660,6.594,3.815
Mon Dec 02 21:11:55 2024,400,-16.067,-16.067,-2.316,-2.316,31.636,102.938,95.851,5.051,36.930,20.297,-6.594,26.635,6.747,12.730,6.552,3.795
Mon Dec 02 21:11:55 2024,405,-16.318,-16.318,-2.362,-2.362,31.674,103.035,95.653,4.988,37.156,20.555,-6.586,26.635,6.816,12.712,6.569,3.818
Mon Dec 02 21:11:55 2024,410,-16.604,-16.604,-2.384,-2.384,31.803,103.200,95.485,4.906,37.402,20.837,-6.582,26.639,6.895,12.673,6.600,3.854
Mon Dec 02 21:11:55 2024,415,-16.796,-16.796,-2.434,-2.434,31.806,103.251,95.310,4.852,37.514,21.014,-6.549,26.617,6.947,12.658,6.602,3.868
Mon Dec 02 21:11:55 2024,420,-16.881,-16.881,-2.527,-2.527,31.652,103.161,95.107,4.830,37.462,21.070,-6.473,26.559,6.968,12.673,6.569,3.857
Mon Dec 02 21:11:55 2024,425,-16.958,-16.958,-2.610,-2.610,31.513,103.080,94.922,4.810,37.414,21.121,-6.404,26.508,6.988,12.687,6.538,3.848
Mon Dec 02 21:11:55 2024,430,-17.249,-17.249,-2.637,-2.637,31.285,102.909,94.742,4.760,37.617,21.134,-6.379,26.499,6.998,12.586,6.615,3.801
Mon Dec 02 21:11:55 2024,435,-17.523,-17.523,-2.653,-2.653,31.081,102.754,94.586,4.714,37.818,21.139,-6.362,26.496,7.006,12.487,6.693,3.757
Mon Dec 02 21:11:55 2024,440,-17.745,-17.745,-2.675,-2.675,30.918,102.602,94.530,4.660,37.801,21.031,-6.365,26.489,7.000,12.410,6.737,3.739
Mon Dec 02 21:11:55 2024,445,-17.891,-17.891,-2.698,-2.698,30.812,102.472,94.568,4.606,37.598,20.840,-6.386,26.482,6.984,12.363,6.744,3.745
Mon Dec 02 21:11:55 2024,450,-18.026,-18.026,-2.720,-2.720,30.716,102.354,94.601,4.556,37.415,20.666,-6.405,26.479,6.969,12.320,6.751,3.751
Mon Dec 02 21:11:55 2024,455,-18.124,-18.124,-2.709,-2.709,30.656,102.314,94.690,4.538,37.252,20.478,-6.428,26.486,6.950,12.300,6.760,3.790
Mon Dec 02 21:11:55 2024,460,-18.181,-18.181,-2.661,-2.661,30.633,102.361,94.850,4.552,37.106,20.262,-6.454,26.506,6.928,12.304,6.772,3.870
Mon Dec 02 21:11:55 2024,465,-18.303,-18.303,-2.668,-2.668,30.510,102.228,95.077,4.497,36.787,19.899,-6.489,26.532,6.903,12.215,6.853,3.912
Mon Dec 02 21:11:55 2024,470,-18.426,-18.426,-2.704,-2.704,30.358,102.020,95.322,4.414,36.428,19.510,-6.524,26.562,6.880,12.085,6.969,3.929
Mon Dec 02 21:11:55 2024,475,-18.553,-18.553,-2.740,-2.740,30.208,101.813,95.566,4.329,36.069,19.122,-6.559,26.591,6.858,11.954,7.085,3.946
Mon Dec 02 21:11:55 2024,480,-18.720,-18.720,-2.576,-2.576,30.126,101.671,95.963,4.362,35.789,18.769,-6.422,26.453,6.900,11.806,7.139,3.889
Mon Dec 02 21:11:55 2024,485,-18.880,-18.880,-2.442,-2.442,30.042,101.524,96.333,4.378,35.506,18.422,-6.309,26.338,6.934,11.662,7.196,3.842
Mon Dec 02 21:11:55 2024,490,19.011,-19.011,-2.357,-2.357,29.919,101.325,96.670,4.335,35.215,18.114,-6.243,26.275,6.957,11.528,7.290,3.810
Mon Dec 02 21:11:55 2024,495,19.081,-19.081,-2.330,-2.330,29.806,101.147,96.888,4.262,35.002,17.921,-6.229,26.266,6.966,11.440,7.385,3.798
Mon Dec 02 21:11:55 2024,500,19.150,-19.150,-2.303,-2.303,29.700,100.977,97.095,4.191,34.800,17.739,-6.215,26.259,6.975,11.356,7.476,3.786
Mon Dec 02 21:11:55 2024,505,19.248,-19.248,-2.262,-2.262,29.687,100.750,97.489,4.128,34.354,17.458,-6.221,26.244,7.023,11.250,7.519,3.810
Mon Dec 02 21:11:55 2024,510,19.328,-19.328,-2.229,-2.229,29.676,100.568,97.795,4.075,34.011,17.237,-6.225,26.237,7.058,11.165,7.558,3.826
Mon Dec 02 21:11:55 2024,515,19.407,-19.407,-2.197,-2.197,29.672,100.389,98.096,4.022,33.672,17.022,-6.230,26.233,7.093,11.081,7.596,3.843
Mon Dec 02 21:11:55 2024,520,19.463,-19.463,-1.900,-1.900,30.335,100.495,98.648,3.782,33.352,16.954,-6.068,26.088,7.203,10.989,7.800,3.899
Mon Dec 02 21:11:55 2024,525,19.517,-19.517,-1.752,-1.752,30.687,100.493,99.015,3.643,33.088,16.855,-5.989,26.015,7.270,10.917,7.914,3.933
Mon Dec 02 21:11:55 2024,530,19.432,-19.432,-1.575,-1.575,30.195,99.772,98.984,3.527,32.917,16.689,-5.852,25.928,7.391,11.007,7.854,3.969
Mon Dec 02 21:11:55 2024,535,19.379,-19.379,-1.435,-1.435,29.903,99.242,99.009,3.421,32.755,16.554,-5.740,25.870,7.489,11.063,7.826,4.001
Mon Dec 02 21:11:55 2024,540,19.377,-19.377,-1.364,-1.364,29.206,98.323,99.082,3.278,32.451,16.393,-5.712,25.873,7.554,11.000,7.914,4.044
Mon Dec 02 21:11:55 2024,545,19.402,-19.402,-1.330,-1.330,28.368,97.269,99.166,3.127,32.097,16.231,-5.732,25.904,7.596,10.878,8.057,4.091
Mon Dec 02 21:11:55 2024,550,19.389,-19.389,-1.295,-1.295,27.245,95.861,99.108,2.977,31.698,16.083,-5.790,25.956,7.673,10.774,8.162,4.143
Mon Dec 02 21:11:55 2024,555,19.312,-19.312,-1.280,-1.280,25.502,93.688,98.745,2.826,31.178,15.954,-5.944,26.065,7.804,10.678,8.220,4.209
Mon Dec 02 21:11:55 2024,560,19.248,-19.248,-1.275,-1.275,24.133,91.861,98.350,2.697,30.741,15.849,-6.077,26.164,7.915,10.597,8.268,4.266
Mon Dec 02 21:11:55 2024,565,19.119,-19.119,-1.531,-1.531,21.820,90.534,96.795,2.763,30.669,15.151,-6.063,26.173,7.825,10.438,8.428,4.153
Mon Dec 02 21:11:55 2024,570,18.998,-18.998,-1.855,-1.855,19.855,89.544,95.015,2.862,30.688,14.434,-6.017,26.164,7.702,10.286,8.590,4.018
Mon Dec 02 21:11:55 2024,575,18.817,-18.817,-2.048,-2.048,16.954,87.400,91.940,3.155,30.788,13.716,-5.777,25.926,7.518,10.176,8.681,3.700
Mon Dec 02 21:11:55 2024,580,18.610,-18.610,-2.041,-2.041,14.612,84.632,87.608,3.585,30.959,13.149,-5.389,25.499,7.309,10.134,8.676,3.260
Mon Dec 02 21:11:55 2024,585,18.426,-18.426,-2.037,-2.037,-13.463,82.261,83.193,3.972,31.118,12.639,-5.040,25.116,7.118,10.096,8.671,2.863
Mon Dec 02 21:11:55 2024,590,18.722,-18.722,-1.953,-1.953,-11.477,76.110,73.632,4.108,30.710,12.550,-4.892,24.900,7.372,10.162,8.576,3.046
Mon Dec 02 21:11:55 2024,595,19.047,-19.047,-1.882,-1.882,-10.732,69.989,62.634,4.255,30.291,12.483,-4.732,24.735,7.647,10.234,8.475,3.278
Mon Dec 02 21:11:55 2024,600,19.292,-19.292,1.996,-1.996,-9.537,64.375,53.735,4.317,29.633,12.481,-4.713,21.537,7.874,10.279,8.317,3.500
Mon Dec 02 21:11:55 2024,605,19.496,-19.496,2.287,-2.287,-7.440,58.193,45.738,4.311,28.661,12.530,-4.823,14.833,8.099,10.308,8.073,3.732
Mon Dec 02 21:11:55 2024,610,19.652,-19.652,2.513,-2.513,-6.086,53.548,40.481,4.310,27.935,12.571,-4.904,14.468,8.278,10.334,7.875,3.911
Mon Dec 02 21:11:55 2024,615,19.881,-19.881,2.678,-2.678,-5.327,49.869,35.984,3.934,26.746,12.319,-4.998,14.294,8.391,10.255,7.921,4.098
Mon Dec 02 21:11:55 2024,620,20.097,-20.097,2.834,-2.834,-4.699,46.419,31.975,3.585,25.654,12.082,-5.087,14.126,8.500,10.183,7.962,4.274
Mon Dec 02 21:11:55 2024,625,20.164,-20.164,0.013,-2.924,-4.326,43.287,28.312,3.334,24.820,11.736,-4.989,14.205,8.576,10.325,7.893,4.458
Mon Dec 02 21:11:55 2024,630,20.014,-20.014,-2.918,-2.918,-4.246,40.497,24.744,3.216,24.319,11.227,-4.612,14.656,8.608,10.790,7.650,4.664
Mon Dec 02 21:11:55 2024,635,19.930,-19.930,-2.926,-2.926,-4.192,38.406,22.237,3.112,23.931,10.872,-4.366,14.946,8.638,11.097,7.480,4.820
Mon Dec 02 21:11:55 2024,640,19.730,-19.730,-3.036,-3.036,-4.062,36.828,20.133,2.925,23.458,10.754,-4.074,15.234,8.701,11.266,7.407,4.882
Mon Dec 02 21:11:55 2024,645,19.564,-19.564,-3.130,-3.130,-3.974,35.390,18.281,2.755,23.067,10.629,-3.813,15.494,8.755,11.429,7.327,4.948
Mon Dec 02 21:11:55 2024,650,19.505,-19.505,-3.188,-3.188,-4.024,33.906,16.618,2.523,19.225,10.387,-3.639,15.587,8.749,11.584,7.195,4.977
Mon Dec 02 21:11:55 2024,655,19.504,-19.504,-3.222,-3.222,-4.132,32.638,15.280,2.295,17.699,10.132,-3.527,15.590,8.718,11.712,7.062,4.988
Mon Dec 02 21:11:55 2024,660,19.489,-19.489,-3.347,-3.347,-4.239,31.474,14.037,2.045,17.804,9.896,-3.385,15.626,8.725,11.850,6.929,4.986
Mon Dec 02 21:11:55 2024,665,19.416,-19.416,-3.754,-3.754,-4.309,30.541,12.992,1.741,17.668,9.714,-3.150,15.786,8.849,12.020,6.798,4.949
Mon Dec 02 21:11:55 2024,670,19.344,-19.344,-4.174,-4.174,-4.387,29.646,11.979,1.424,17.235,9.531,-2.909,15.943,8.977,12.193,6.664,4.911
Mon Dec 02 21:11:55 2024,675,19.286,-19.286,-4.400,-4.400,-4.597,28.969,11.253,1.079,16.656,9.287,-2.817,15.909,8.994,12.279,6.647,4.952
Mon Dec 02 21:11:55 2024,680,-19.239,-19.239,-4.551,-4.551,-4.833,28.443,10.671,0.749,16.036,9.043,-2.777,15.817,8.974,12.332,6.667,5.015
Mon Dec 02 21:11:55 2024,685,-19.202,-19.202,-4.674,-4.674,-5.028,28.052,10.202,0.477,15.489,8.844,-2.745,15.737,8.957,12.375,6.680,5.067
Mon Dec 02 21:11:55 2024,690,-19.052,-19.052,-4.848,-4.848,-5.076,27.686,9.904,0.130,14.615,8.523,-2.675,15.531,8.897,12.299,6.774,5.088
Mon Dec 02 21:11:55 2024,695,-18.949,-18.949,-4.983,-4.983,-5.137,27.410,9.647,-0.229,13.929,8.279,-2.625,15.369,8.853,12.253,6.839,5.109
Mon Dec 02 21:11:55 2024,700,-18.733,-18.733,-5.232,-5.232,-5.233,27.142,9.297,-0.488,13.436,8.092,-2.624,15.156,8.753,12.211,6.929,5.115
Mon Dec 02 21:11:55 2024,705,-18.536,-18.536,-5.459,-5.459,-5.318,26.931,8.989,-0.712,13.031,7.939,-2.628,14.966,8.662,12.175,7.007,5.117
Mon Dec 02 21:11:55 2024,710,-18.378,-18.378,-5.549,-5.549,-5.404,26.717,8.694,-0.970,12.565,7.709,-2.588,14.858,8.547,12.141,7.053,5.071
Mon Dec 02 21:11:55 2024,715,-18.293,-18.293,-5.464,-5.464,-5.479,26.529,8.453,-1.232,12.098,7.427,-2.503,14.862,8.420,12.114,7.053,4.975
Mon Dec 02 21:11:55 2024,720,-18.207,-18.207,-5.375,-5.375,-5.562,26.366,8.205,-1.511,11.609,7.134,-2.414,14.864,8.288,12.086,7.054,4.874
Mon Dec 02 21:11:55 2024,725,-18.165,-18.165,-5.468,-5.468,-5.708,26.246,7.905,-1.801,10.910,6.864,-2.253,14.826,8.207,12.121,7.086,4.842
Mon Dec 02 21:11:55 2024,730,-18.134,-18.134,-5.574,-5.574,-5.845,26.184,7.636,-2.063,10.263,6.626,-2.100,14.782,8.143,12.160,7.115,4.821
Mon Dec 02 21:11:55 2024,735,-17.997,-17.997,-5.710,-5.710,-5.981,26.141,7.331,-2.212,9.657,6.368,-1.864,14.773,8.012,12.166,7.149,4.667
Mon Dec 02 21:11:55 2024,740,-17.766,-17.766,-5.862,-5.862,-6.102,26.141,7.026,-2.219,9.170,6.118,-1.567,14.796,7.825,12.133,7.187,4.395
Mon Dec 02 21:11:55 2024,745,-17.577,-17.577,-5.989,-5.989,-6.206,26.204,6.775,-2.229,8.763,5.909,-1.321,14.800,7.669,12.107,7.218,4.173
Mon Dec 02 21:11:55 2024,750,-17.503,-17.503,-5.809,-5.809,-6.274,26.277,6.588,-2.295,8.352,5.706,-0.903,15.049,7.709,12.236,7.125,4.127
Mon Dec 02 21:11:55 2024,755,-17.437,-17.437,-5.641,-5.641,-6.340,26.379,6.414,-2.359,7.968,5.516,-0.513,15.257,7.746,12.357,7.036,4.084
Mon Dec 02 21:11:55 2024,760,-17.435,-17.435,-5.606,-5.606,-6.494,26.596,6.239,-2.511,7.646,5.357,-0.308,15.274,7.716,12.298,7.088,4.018
Mon Dec 02 21:11:55 2024,765,-17.463,-17.463,-5.645,-5.645,-6.674,13.154,6.085,-2.689,7.394,5.233,-0.225,15.200,7.654,12.151,7.206,3.949
Mon Dec 02 21:11:55 2024,770,-17.491,-17.491,-5.684,-5.684,-6.853,12.890,5.933,-2.868,7.143,5.111,-0.145,15.124,7.592,12.005,7.323,3.881
Mon Dec 02 21:11:55 2024,775,-17.411,-17.411,-5.769,-5.769,-6.958,12.725,5.871,-3.064,6.837,5.050,-0.124,15.041,7.599,12.091,7.239,3.853
Mon Dec 02 21:11:55 2024,780,-17.356,-17.356,-5.834,-5.834,-7.053,12.576,5.813,-3.225,6.591,4.994,-0.104,14.974,7.599,12.139,7.188,3.826
Mon Dec 02 21:11:55 2024,785,-17.363,-17.363,-5.758,-5.758,-7.139,12.444,5.783,-3.333,6.364,4.897,-0.077,14.969,7.573,12.144,7.182,3.824
Mon Dec 02 21:11:55 2024,790,-17.435,-17.435,-5.535,-5.535,-7.209,12.341,5.785,-3.376,6.171,4.763,0.084,15.031,7.521,12.103,7.224,3.849
Mon Dec 02 21:11:55 2024,795,-17.493,-17.493,-5.348,-5.348,-7.275,12.244,5.783,-3.422,5.992,4.647,0.130,15.079,7.478,12.070,7.257,3.868
Mon Dec 02 21:11:55 2024,800,-17.365,-17.365,-5.391,-5.391,-7.425,11.937,5.616,-3.555,5.659,4.490,0.120,14.908,7.385,11.989,7.273,3.706
Mon Dec 02 21:11:55 2024,805,-17.278,-17.278,-5.405,-5.405,-7.541,11.694,5.496,-3.656,5.402,4.366,0.116,14.788,7.315,11.928,7.286,3.592
Mon Dec 02 21:11:55 2024,810,-17.209,-17.209,-5.454,-5.454,-7.682,11.421,5.369,-3.723,5.246,4.227,0.178,14.826,7.229,11.910,7.292,3.513
Mon Dec 02 21:11:55 2024,815,-17.158,-17.158,-5.510,-5.510,-7.813,11.174,5.259,-3.764,5.158,4.101,0.263,14.923,7.151,11.915,7.295,3.461
Mon Dec 02 21:11:55 2024,820,-17.103,-17.103,-5.521,-5.521,-7.951,10.896,5.125,-3.793,5.073,3.946,0.366,14.918,7.015,11.918,7.291,3.378
Mon Dec 02 21:11:55 2024,825,-17.046,-17.046,-5.449,-5.449,-8.087,10.595,4.966,-3.799,5.006,3.761,0.479,14.736,6.797,11.915,7.274,3.252
Mon Dec 02 21:11:55 2024,830,-16.991,-16.991,-5.380,-5.380,-8.218,10.305,4.814,-3.803,4.941,3.583,0.588,14.561,6.588,11.913,7.257,3.132
Mon Dec 02 21:11:55 2024,835,-16.962,-16.962,-5.325,-5.325,-8.305,10.090,4.722,-3.833,4.884,3.514,0.606,14.541,6.521,11.939,7.216,3.070
Mon Dec 02 21:11:55 2024,840,-16.940,-16.940,-5.277,-5.277,-8.377,9.903,4.649,-3.864,4.833,3.470,0.605,14.550,6.484,11.967,7.173,3.024
Mon Dec 02 21:11:55 2024,845,-16.927,-16.927,-5.244,-5.244,-8.470,9.686,4.566,-3.914,4.770,3.408,0.619,14.552,6.426,11.980,7.138,2.960
Mon Dec 02 21:11:55 2024,850,-16.939,-16.939,-5.250,-5.250,-8.604,9.411,4.467,-4.014,4.681,3.307,0.678,14.533,6.319,11.945,7.124,2.856
Mon Dec 02 21:11:55 2024,855,-16.947,-16.947,-5.254,-5.254,-8.709,9.194,4.389,-4.091,4.612,3.229,0.721,14.519,6.237,11.920,7.111,2.776
Mon Dec 02 21:11:55 2024,860,-16.910,-16.910,-5.109,-5.109,-8.838,9.088,4.382,-4.110,4.756,3.150,0.809,14.796,6.185,11.990,7.080,2.720
Mon Dec 02 21:11:55 2024,865,-16.874,-16.874,-4.970,-4.970,-8.951,9.010,4.384,-4.119,4.901,3.084,0.888,15.060,6.144,12.059,7.050,2.673
Mon Dec 02 21:11:55 2024,870,-16.813,-16.813,-4.884,-4.884,-9.067,8.855,4.383,-4.120,4.971,3.077,0.940,15.178,6.137,12.068,7.042,2.644
Mon Dec 02 21:11:55 2024,875,-16.736,-16.736,-4.904,-4.904,-9.145,8.652,4.378,-4.110,4.911,3.155,0.935,15.057,6.180,11.991,7.065,2.650
Mon Dec 02 21:11:55 2024,880,-16.683,-16.683,-4.909,-4.909,-9.207,8.488,4.374,-4.094,4.872,3.219,0.925,14.958,6.209,11.944,7.069,2.654
Mon Dec 02 21:11:55 2024,885,-16.727,-16.727,-4.833,-4.833,-9.222,8.434,4.372,-4.034,4.927,3.251,0.882,14.918,6.180,12.033,6.979,2.654
Mon Dec 02 21:11:55 2024,890,-16.785,-16.785,-4.744,-4.744,-9.230,8.396,4.370,-3.967,4.996,3.280,0.834,14.884,6.142,12.144,6.873,2.654
Mon Dec 02 21:11:55 2024,895,-16.761,-16.761,-4.768,-4.768,-9.295,8.267,4.351,-3.892,5.094,3.341,0.819,14.848,6.152,12.182,6.824,2.659
Mon Dec 02 21:11:55 2024,900,-16.685,-16.685,-4.864,-4.864,-9.394,8.085,4.321,-3.817,5.204,3.418,0.825,14.812,6.191,12.172,6.813,2.668
Mon Dec 02 21:11:55 2024,905,-16.620,-16.620,-4.945,-4.945,-9.477,7.931,4.296,-3.753,5.298,3.483,0.831,14.782,6.225,12.163,6.804,2.675
Mon Dec 02 21:11:55 2024,910,-16.596,-16.596,-4.957,-4.957,-9.549,7.798,4.252,-3.698,5.404,3.430,0.874,14.846,6.118,12.207,6.696,2.574
Mon Dec 02 21:11:55 2024,915,-16.575,-16.575,-4.968,-4.968,-9.615,7.677,4.212,-3.648,5.501,3.382,0.913,14.904,6.022,12.247,6.595,2.486
Mon Dec 02 21:11:55 2024,920,-16.584,-16.584,-4.956,-4.956,-9.628,7.613,4.280,-3.497,5.645,3.521,0.911,14.868,6.063,12.342,6.500,2.517
Mon Dec 02 21:11:55 2024,925,-16.604,-16.604,-4.935,-4.935,-9.617,7.582,4.388,-3.318,5.792,3.728,0.892,14.796,6.161,12.451,6.417,2.596
Mon Dec 02 21:11:55 2024,930,-16.626,-16.626,-4.914,-4.914,-9.604,7.550,4.501,-3.133,5.944,3.945,0.873,14.720,6.263,12.564,6.330,2.682
Mon Dec 02 21:11:55 2024,935,-16.569,-16.569,-5.010,-5.010,-9.677,7.492,4.445,-3.106,6.115,3.921,0.843,14.730,6.197,12.598,6.211,2.610
Mon Dec 02 21:11:55 2024,940,-16.524,-16.524,-5.089,-5.089,-9.738,7.437,4.413,-3.055,6.286,3.933,0.814,14.727,6.155,12.645,6.094,2.562
Mon Dec 02 21:11:55 2024,945,-16.535,-16.535,-5.131,-5.131,-9.750,7.365,4.472,-2.936,6.441,4.080,0.741,14.690,6.192,12.783,5.920,2.612
Mon Dec 02 21:11:55 2024,950,-16.566,-16.566,-5.149,-5.149,-9.740,7.302,4.555,-2.816,6.554,4.251,0.667,14.644,6.252,12.928,5.762,2.692
Mon Dec 02 21:11:55 2024,955,-16.562,-16.562,-5.199,-5.199,-9.714,7.292,4.634,-2.671,6.782,4.438,0.569,14.599,6.286,13.061,5.598,2.742
Mon Dec 02 21:11:55 2024,960,-16.465,-16.465,-5.318,-5.318,-9.653,7.426,4.678,-2.507,7.240,4.605,0.441,14.567,6.236,13.119,5.476,2.694
Mon Dec 02 21:11:55 2024,965,-16.362,-16.362,-5.444,-5.444,-9.589,7.571,4.722,-2.341,7.717,4.774,0.310,14.532,6.182,13.175,5.349,2.642
Mon Dec 02 21:11:55 2024,970,-16.334,-16.334,-5.490,-5.490,-9.438,7.831,4.791,-1.907,8.716,5.080,0.131,14.314,6.052,13.383,5.068,2.569
Mon Dec 02 21:11:55 2024,975,-16.324,-16.324,-5.517,-5.517,-9.278,8.098,4.860,-1.455,9.748,5.390,-0.147,14.067,5.915,13.608,4.773,2.496
Mon Dec 02 21:11:55 2024,980,-16.324,-16.324,-5.542,-5.542,-9.143,8.357,4.926,-0.889,11.042,5.819,-0.434,13.707,5.763,13.828,4.469,2.436
Mon Dec 02 21:11:55 2024,985,-16.348,-16.348,-5.551,-5.551,-9.115,8.490,4.957,-0.351,12.330,6.319,-0.817,13.268,5.643,13.945,4.276,2.427
Mon Dec 02 21:11:55 2024,990,-16.383,-16.383,-5.580,-5.580,-9.078,8.658,4.993,0.383,13.783,6.901,-1.232,12.800,5.528,14.104,4.028,2.413
Mon Dec 02 21:11:55 2024,995,-16.436,-16.436,-5.675,-5.675,-9.026,8.881,5.030,1.032,15.192,7.489,-1.505,12.558,5.506,14.358,3.697,2.377
Mon Dec 02 21:11:56 2024,0,-16.516,-16.516,-5.834,-5.834,-8.951,9.191,5.080,1.889,16.630,8.240,-1.771,12.383,5.532,14.738,3.224,2.326
Mon Dec 02 21:11:56 2024,5,-16.581,-16.581,-5.914,-5.914,-8.860,9.454,5.129,2.593,17.088,8.875,-1.962,12.244,5.585,14.996,2.874,2.307
Mon Dec 02 21:11:56 2024,10,-16.656,-16.656,-5.836,-5.836,-8.666,9.792,5.217,3.411,16.562,9.666,-2.084,12.119,5.746,15.102,2.609,2.351
Mon Dec 02 21:11:56 2024,15,-16.730,-16.730,-5.772,-5.772,-8.486,10.110,5.299,4.179,24.562,10.416,-2.206,11.997,5.898,15.218,2.341,2.393
Mon Dec 02 21:11:56 2024,20,-16.734,-16.734,-5.768,-5.768,-8.288,10.438,5.444,4.849,25.875,11.162,-2.235,12.140,6.152,15.161,2.174,2.387
Mon Dec 02 21:11:56 2024,25,-16.734,-16.734,-5.770,-5.770,-8.137,10.688,5.561,5.342,26.956,11.725,-2.251,12.269,6.357,15.106,2.046,2.381
Mon Dec 02 21:11:56 2024,30,-16.777,-16.777,-5.742,-5.742,-7.936,10.982,5.635,5.849,28.221,12.354,-2.254,12.589,6.642,15.054,1.919,2.378
Mon Dec 02 21:11:56 2024,35,-16.874,-16.874,-5.680,-5.680,-7.762,11.190,5.588,6.107,29.062,12.762,-2.237,13.061,6.906,15.035,1.870,2.381
Mon Dec 02 21:11:56 2024,40,-16.962,-16.962,-5.580,-5.580,-7.554,11.446,5.590,6.327,29.882,13.216,-2.203,13.614,7.192,15.013,1.807,2.386
Mon Dec 02 21:11:56 2024,45,-16.982,-16.982,-5.358,-5.358,-7.278,11.792,5.775,6.331,30.214,13.681,-2.090,14.337,7.448,14.982,1.722,2.395
Mon Dec 02 21:11:56 2024,50,-16.995,-16.995,-5.068,-5.068,-6.934,12.229,6.038,6.298,30.545,14.256,-1.947,15.235,7.748,14.942,1.612,2.415
Mon Dec 02 21:11:56 2024,55,-16.996,-16.996,-4.823,-4.823,-6.470,12.783,6.300,6.471,31.277,15.350,-1.873,16.042,8.014,15.020,1.507,2.545
Mon Dec 02 21:11:56 2024,60,-16.993,-16.993,-4.678,-4.678,-6.047,13.272,6.490,6.743,32.108,16.553,-1.867,16.557,8.183,15.159,1.435,2.714
Mon Dec 02 21:11:56 2024,65,-16.976,-16.976,-4.521,-4.521,-5.556,13.870,6.681,7.052,33.320,18.219,-1.878,17.239,8.367,15.389,1.351,2.916
Mon Dec 02 21:11:56 2024,70,-16.890,-16.890,-4.456,-4.456,-5.187,14.439,6.650,7.261,35.310,20.512,-1.949,19.950,8.440,15.886,1.285,3.072
Mon Dec 02 21:11:56 2024,75,-16.801,-16.801,-4.404,-4.404,-4.860,14.945,6.598,7.414,37.385,22.932,-2.059,22.580,8.486,16.388,1.200,3.215
Mon Dec 02 21:11:56 2024,80,-16.753,-16.753,-4.346,-4.346,-4.769,24.855,6.557,7.469,39.404,24.969,-2.009,23.839,8.524,16.684,1.034,3.190
Mon Dec 02 21:11:56 2024,85,-16.728,-16.728,-4.284,-4.284,-4.823,24.845,6.521,7.482,41.485,26.840,-1.840,25.387,8.570,16.866,0.817,3.098
Mon Dec 02 21:11:56 2024,90,-16.740,-16.740,-4.196,-4.196,-4.924,24.923,6.544,7.490,43.223,28.279,-1.746,26.944,8.626,17.024,0.579,3.046
Mon Dec 02 21:11:56 2024,95,-16.885,-16.885,-4.014,-4.014,-5.204,25.201,6.778,7.468,43.531,27.964,-1.892,28.066,8.728,17.086,0.268,2.987
Mon Dec 02 21:11:56 2024,100,-17.018,-17.018,-3.851,-3.851,-5.460,25.455,7.002,7.450,43.766,27.625,-2.025,29.063,8.829,17.137,-0.019,2.964
Mon Dec 02 21:11:56 2024,105,-17.225,-17.225,-3.545,-3.545,-5.739,25.735,7.220,7.636,44.170,27.840,-2.232,30.007,9.148,17.171,-0.212,2.882
Mon Dec 02 21:11:56 2024,110,-17.418,-17.418,-3.251,-3.251,-5.976,25.973,7.400,7.860,44.561,28.201,-2.423,30.768,9.492,17.195,-0.344,2.806
Mon Dec 02 21:11:56 2024,115,-17.645,-17.645,-2.899,-2.899,-6.253,26.256,7.624,8.104,44.849,28.609,-2.680,31.568,9.897,17.245,-0.562,2.703
Mon Dec 02 21:11:56 2024,120,-17.823,-17.823,-2.609,-2.609,-6.467,26.497,7.838,8.220,44.572,28.842,-2.973,31.919,10.170,17.349,-0.908,2.561
Mon Dec 02 21:11:56 2024,125,-17.998,-17.998,-2.324,-2.324,-6.677,26.749,8.049,8.338,44.298,29.072,-3.261,32.268,10.440,17.452,-1.254,2.423
Mon Dec 02 21:11:56 2024,130,-18.127,-18.127,-2.101,-2.101,-6.793,26.896,8.088,9.348,43.804,28.828,-3.715,32.283,10.520,17.384,-1.342,2.395
Mon Dec 02 21:11:56 2024,135,-18.239,-18.239,-1.901,-1.901,-6.878,27.007,8.075,10.607,43.346,28.408,-4.203,32.219,10.539,17.269,-1.353,2.401
Mon Dec 02 21:11:56 2024,140,-18.342,-18.342,-1.684,-1.684,-6.922,19.978,8.088,12.196,42.746,27.644,-4.631,32.152,10.644,17.140,-1.346,2.342
Mon Dec 02 21:11:56 2024,145,-18.423,-18.423,0.420,-1.428,-6.876,27.000,8.155,14.428,41.887,26.192,-4.916,32.040,10.941,16.982,-1.293,2.145
Mon Dec 02 21:11:56 2024,150,-18.497,-18.497,1.208,-1.208,-6.840,26.947,8.212,16.337,41.580,24.897,-5.171,31.952,11.198,16.846,-1.250,1.994
Mon Dec 02 21:11:56 2024,155,-18.358,-18.358,0.906,-0.906,-6.360,26.446,8.751,19.015,41.718,23.257,-5.465,31.695,12.321,16.647,-1.688,1.696
Mon Dec 02 21:11:56 2024,160,-18.163,-18.163,0.639,-0.639,-5.784,25.847,9.399,21.584,27.312,21.795,-5.750,31.426,13.632,16.444,-2.263,1.584
Mon Dec 02 21:11:56 2024,165,-18.134,-18.134,0.434,-0.434,-5.518,25.580,9.732,22.904,-3.514,21.431,-6.104,31.673,14.389,16.187,-2.584,1.571
Mon Dec 02 21:11:56 2024,170,-18.289,-18.289,0.369,0.019,-5.587,25.672,9.724,22.982,-3.740,22.123,-6.538,32.480,14.548,15.866,-2.618,1.538
Mon Dec 02 21:11:56 2024,175,-18.438,-18.438,0.535,0.535,-5.653,25.763,9.717,23.059,-3.970,22.802,-6.950,33.241,14.702,15.561,-2.659,1.636
Mon Dec 02 21:11:56 2024,180,-18.786,-18.786,0.771,0.771,-5.620,14.240,9.797,23.341,44.731,24.276,-7.200,34.211,15.691,15.270,-2.811,1.501
Mon Dec 02 21:11:56 2024,185,-19.059,-19.059,0.976,0.976,-5.586,14.248,9.864,23.560,45.393,25.503,-7.371,34.947,16.524,15.060,-2.939,1.398
Mon Dec 02 21:11:56 2024,190,-19.332,-19.332,1.286,1.286,-5.514,14.293,9.930,23.702,46.158,26.951,-7.463,35.978,17.638,14.983,-3.021,1.345
Mon Dec 02 21:11:56 2024,195,-19.511,-19.511,1.630,1.630,-5.408,14.381,9.974,23.671,46.806,28.254,-7.406,37.132,18.821,15.130,-2.994,1.426
Mon Dec 02 21:11:56 2024,200,-19.651,-19.651,1.895,1.895,-5.326,14.449,10.008,23.638,47.352,29.347,-7.371,38.060,19.791,15.245,-2.975,1.538
Mon Dec 02 21:11:56 2024,205,-19.724,-19.724,2.100,2.100,-5.182,14.596,10.252,23.510,47.944,30.699,-7.218,38.813,20.865,15.414,-2.985,1.724
Mon Dec 02 21:11:56 2024,210,6.602,-19.772,2.245,2.245,-5.070,14.710,10.448,23.403,48.415,31.768,-7.098,39.370,21.699,15.544,-2.996,1.886
Mon Dec 02 21:11:56 2024,215,19.821,-19.821,2.394,2.394,-4.957,14.827,10.649,23.289,48.926,32.912,-6.977,39.955,22.585,15.675,-3.008,2.069
Mon Dec 02 21:11:56 2024,220,19.846,-19.846,2.467,2.467,-4.900,14.885,10.750,23.231,49.192,33.501,-6.917,40.252,23.040,15.741,-3.016,2.166
Mon Dec 02 21:11:56 2024,225,-6.457,-19.694,2.310,2.310,-4.959,14.831,10.720,23.159,49.045,33.114,-6.905,40.228,22.822,15.653,-2.994,2.146
Mon Dec 02 21:11:56 2024,230,-19.564,-19.564,2.189,2.189,-4.995,14.799,10.722,23.079,48.989,32.930,-6.876,40.289,22.755,15.592,-2.976,2.155
Mon Dec 02 21:11:56 2024,235,-19.506,-19.506,2.157,2.157,-4.990,14.807,10.767,23.011,49.078,33.093,-6.834,40.453,22.920,15.588,-2.969,2.203
Mon Dec 02 21:11:56 2024,240,-19.445,-19.445,2.127,2.127,-4.893,14.910,10.782,23.005,49.275,33.291,-6.768,40.615,23.032,15.561,-2.819,2.263
Mon Dec 02 21:11:56 2024,245,-19.400,-19.400,2.106,2.106,-4.741,15.070,10.763,23.060,49.513,33.463,-6.698,40.724,23.057,15.520,-2.582,2.318
Mon Dec 02 21:11:56 2024,250,-19.337,-19.337,2.095,2.095,-4.553,15.277,10.762,23.116,49.840,33.775,-6.682,41.036,23.211,15.497,-2.358,2.381
Mon Dec 02 21:11:56 2024,255,19.239,-19.239,2.117,2.117,-4.334,15.542,10.816,23.155,50.310,34.400,-6.841,41.841,23.708,15.537,-2.263,2.441
Mon Dec 02 21:11:56 2024,260,19.158,-19.158,2.136,2.136,-4.151,24.241,10.862,23.186,50.712,34.951,-6.980,42.518,24.142,15.571,-2.185,2.496
Mon Dec 02 21:11:56 2024,265,18.965,-18.965,2.171,2.171,-3.924,23.993,10.900,22.914,51.393,36.336,-7.146,43.564,25.058,15.551,-1.847,2.665
Mon Dec 02 21:11:56 2024,270,18.761,-18.761,2.206,2.206,-3.718,23.773,10.928,22.557,52.107,37.877,-7.303,44.588,26.056,15.511,-1.467,2.858
Mon Dec 02 21:11:56 2024,275,18.505,-18.505,2.207,2.207,-3.494,23.516,10.970,22.206,53.050,39.691,-7.423,45.935,27.381,15.454,-1.064,3.036
Mon Dec 02 21:11:56 2024,280,18.218,-18.218,2.152,2.152,-3.290,23.292,11.025,21.956,54.128,41.528,-7.452,47.525,28.960,15.385,-0.706,3.138
Mon Dec 02 21:11:56 2024,285,17.912,-17.912,2.090,2.090,-3.080,23.149,11.088,21.688,55.329,43.612,-7.498,49.260,30.816,15.311,-0.336,3.241
Mon Dec 02 21:11:56 2024,290,17.644,-17.644,2.085,2.085,-3.001,23.230,11.087,21.252,57.037,46.510,-7.148,51.184,33.102,15.096,-0.039,3.224
Mon Dec 02 21:11:56 2024,295,17.439,-17.439,2.093,2.093,-2.965,23.378,11.074,20.865,58.562,49.169,-6.805,52.803,35.222,14.899,0.182,3.185
Mon Dec 02 21:11:56 2024,300,17.157,-17.157,2.065,2.065,-2.877,23.587,11.137,20.488,60.468,52.627,-6.443,54.655,37.903,14.674,0.458,3.118
Mon Dec 02 21:11:56 2024,305,16.744,-16.744,1.944,1.944,-2.678,23.855,11.384,20.246,62.803,57.139,-6.097,56.570,41.069,14.429,0.812,2.993
Mon Dec 02 21:11:56 2024,310,16.414,-16.414,1.861,1.861,-2.500,24.148,11.617,20.065,64.823,61.243,-5.861,58.183,44.062,14.223,1.104,2.880
Mon Dec 02 21:11:56 2024,315,16.177,-16.177,1.891,1.891,-2.274,24.476,11.934,19.957,66.812,65.602,-5.608,59.651,47.358,14.000,1.374,2.717
Mon Dec 02 21:11:56 2024,320,15.981,-15.981,0.636,1.944,-2.055,24.819,12.253,19.886,68.658,69.742,-5.454,60.996,50.674,13.793,1.617,2.559
Mon Dec 02 21:11:56 2024,325,15.731,-15.731,-1.899,1.899,-1.850,25.204,12.530,19.469,70.597,74.140,-5.423,62.367,54.278,13.605,1.896,2.385
Mon Dec 02 21:11:56 2024,330,15.447,-15.447,-1.720,1.720,-1.704,25.549,12.687,18.610,72.305,78.009,-5.497,63.494,57.467,13.479,2.177,2.222
Mon Dec 02 21:11:56 2024,335,15.236,-15.236,-1.590,1.590,-1.594,25.819,12.813,17.990,73.625,80.833,-5.612,64.361,60.014,13.384,2.387,2.106
Mon Dec 02 21:11:56 2024,340,14.907,-14.907,-1.487,1.487,-1.373,26.124,13.169,17.762,75.194,83.677,-5.767,65.244,62.927,13.325,2.519,1.861
Mon Dec 02 21:11:56 2024,345,14.565,-14.565,1.387,1.387,-1.139,26.448,13.559,17.614,76.804,86.384,5.982,66.138,65.958,13.272,2.640,1.603
Mon Dec 02 21:11:56 2024,350,14.419,-14.419,1.372,1.372,-1.010,26.772,13.791,17.428,78.059,88.187,6.225,66.947,68.094,13.318,2.766,1.516
Mon Dec 02 21:11:56 2024,355,14.382,-14.382,1.412,1.412,-0.933,27.138,13.949,17.197,79.252,89.658,6.504,67.808,69.903,13.434,2.910,1.529
Mon Dec 02 21:11:56 2024,360,14.351,-14.351,1.446,1.446,-0.869,27.454,14.085,17.030,80.280,90.846,6.758,68.551,71.454,13.533,3.027,1.541
Mon Dec 02 21:11:56 2024,365,14.184,-14.184,1.451,1.451,-0.820,27.714,14.325,17.032,81.259,92.199,7.037,69.296,73.489,13.565,3.067,1.427
Mon Dec 02 21:11:56 2024,370,14.045,-14.045,1.455,1.455,-0.779,27.935,14.528,17.060,82.092,93.291,7.294,69.931,75.202,13.592,3.100,1.350
Mon Dec 02 21:11:56 2024,375,13.843,-13.843,1.326,1.326,-0.686,28.136,14.617,17.005,82.890,94.138,7.563,70.524,76.568,13.550,3.188,1.125
Mon Dec 02 21:11:56 2024,380,-13.662,-13.662,1.162,1.162,-0.592,28.278,14.626,16.937,83.481,94.652,7.784,70.954,77.436,13.483,3.282,0.881
Mon Dec 02 21:11:56 2024,385,-13.502,-13.502,1.030,1.030,-0.492,28.392,14.642,16.920,84.098,95.212,8.041,71.416,78.446,13.436,3.352,0.676
Mon Dec 02 21:11:56 2024,390,-13.464,-13.464,1.055,1.055,-0.373,28.354,14.684,17.061,84.731,95.957,8.371,71.939,79.905,13.485,3.308,0.676
Mon Dec 02 21:11:56 2024,395,-13.446,-13.446,1.086,1.086,-0.291,28.317,14.717,17.187,85.207,96.515,8.643,72.340,81.017,13.529,3.265,0.716
Mon Dec 02 21:11:56 2024,400,-13.412,-13.412,1.032,1.032,-0.288,28.371,14.739,17.141,85.629,96.978,8.983,72.921,82.115,13.402,3.413,0.797
Mon Dec 02 21:11:56 2024,405,-13.370,-13.370,0.935,0.935,-0.326,28.471,14.752,17.018,85.992,97.349,9.342,73.561,83.105,13.190,3.655,0.890
Mon Dec 02 21:11:56 2024,410,-13.355,-13.355,0.876,0.876,-0.344,28.574,14.797,17.011,86.337,97.675,9.620,74.058,83.911,13.062,3.809,0.988
Mon Dec 02 21:11:56 2024,415,-13.400,-13.400,0.888,0.888,-0.313,28.744,14.952,17.271,86.833,98.090,9.804,74.441,84.743,13.091,3.806,1.155
Mon Dec 02 21:11:56 2024,420,-13.448,-13.448,0.903,0.903,-0.288,28.921,15.115,17.550,87.352,98.513,10.000,74.842,85.602,13.122,3.802,1.330
Mon Dec 02 21:11:56 2024,425,-13.409,-13.409,0.901,0.901,-0.288,29.002,15.195,17.601,87.530,98.783,10.202,75.081,86.132,13.084,3.878,1.398
Mon Dec 02 21:11:56 2024,430,-13.358,-13.358,0.898,0.898,-0.295,29.057,15.250,17.604,87.624,98.995,10.390,75.266,86.543,13.039,3.959,1.439
Mon Dec 02 21:11:56 2024,435,-13.306,-13.306,0.888,0.888,-0.295,29.088,15.288,17.629,87.737,99.219,10.544,75.447,86.912,13.023,4.011,1.472
Mon Dec 02 21:11:56 2024,440,-13.250,-13.250,0.859,0.859,-0.278,29.049,15.271,17.719,87.903,99.483,10.579,75.615,87.158,13.096,3.967,1.475
Mon Dec 02 21:11:56 2024,445,-13.219,-13.219,0.837,0.837,-0.269,29.026,15.261,17.776,88.009,99.679,10.610,75.733,87.356,13.146,3.938,1.490
Mon Dec 02 21:11:56 2024,450,-13.244,-13.244,0.820,0.820,-0.276,29.040,15.264,17.766,87.998,99.779,10.638,75.768,87.520,13.157,3.940,1.549
Mon Dec 02 21:11:56 2024,455,-13.294,-13.294,0.808,0.808,-0.290,29.072,15.274,17.724,87.929,99.823,10.665,75.758,87.654,13.148,3.956,1.633
Mon Dec 02 21:11:56 2024,460,-13.316,-13.316,0.848,0.848,-0.296,29.029,15.215,17.581,87.763,99.779,10.617,75.660,87.607,13.128,3.975,1.670
Mon Dec 02 21:11:56 2024,465,-13.292,-13.292,0.956,0.956,-0.286,28.883,15.068,17.322,87.488,99.614,10.470,75.453,87.304,13.094,3.994,1.624
Mon Dec 02 21:11:56 2024,470,-13.272,-13.272,1.049,1.049,-0.278,28.756,14.938,17.100,87.248,99.470,10.346,75.274,87.040,13.065,4.010,1.584
Mon Dec 02 21:11:56 2024,475,-13.340,-13.340,1.051,1.051,-0.230,28.690,14.891,16.726,86.666,98.974,9.894,74.688,86.008,13.016,4.021,1.486
Mon Dec 02 21:11:56 2024,480,-13.411,-13.411,1.046,1.046,0.231,28.637,14.854,16.384,86.110,98.483,9.484,74.127,84.971,12.969,4.032,1.404
Mon Dec 02 21:11:56 2024,485,-13.535,-13.535,1.082,1.082,0.284,28.555,14.844,16.005,85.476,97.862,9.058,73.516,83.766,12.978,4.036,1.448
Mon Dec 02 21:11:56 2024,490,13.710,-13.710,1.164,1.164,0.380,28.446,14.866,15.608,84.788,97.134,8.652,72.886,82.458,13.050,4.033,1.632
Mon Dec 02 21:11:56 2024,495,13.858,-13.858,1.231,1.231,0.471,28.359,14.883,15.290,84.221,96.528,8.357,72.370,81.368,13.108,4.029,1.793
Mon Dec 02 21:11:56 2024,500,14.128,-14.128,1.277,1.277,0.457,28.098,14.809,14.895,83.789,95.769,8.178,71.945,80.371,13.052,4.205,2.252
Mon Dec 02 21:11:56 2024,505,14.366,-14.366,1.322,1.322,0.445,27.867,14.740,14.566,83.420,95.117,8.035,71.582,79.522,13.000,4.360,2.657
Mon Dec 02 21:11:56 2024,510,14.744,-14.744,-1.313,1.313,0.355,27.655,14.760,13.915,82.440,93.532,7.677,70.632,77.535,12.935,4.475,3.092
Mon Dec 02 21:11:56 2024,515,15.106,-15.106,-1.268,1.268,0.248,27.522,14.838,13.258,81.332,91.744,7.300,69.560,75.338,12.881,4.527,3.420
Mon Dec 02 21:11:56 2024,520,15.460,-15.460,-1.228,1.228,0.176,27.395,14.912,12.647,80.259,89.977,6.965,68.520,73.197,12.827,4.577,3.748
Mon Dec 02 21:11:56 2024,525,15.822,-15.822,-1.305,1.305,0.000,27.094,14.986,12.542,79.000,88.390,6.518,67.124,70.568,12.690,4.476,3.794
Mon Dec 02 21:11:56 2024,530,16.024,-16.024,-1.246,1.246,-0.307,26.668,15.020,12.623,76.921,85.484,3.148,65.301,66.682,12.497,4.431,3.996
Mon Dec 02 21:11:56 2024,535,16.185,-16.185,-1.155,1.155,-0.500,26.207,15.043,12.741,74.634,82.262,-0.957,63.365,62.474,12.287,4.398,4.230
Mon Dec 02 21:11:56 2024,540,16.346,-16.346,-1.064,1.064,-0.693,25.746,15.067,12.859,72.348,79.041,-5.062,61.430,58.265,12.078,4.365,4.465
Mon Dec 02 21:11:56 2024,545,16.318,-16.318,-0.825,0.825,-1.088,25.298,15.050,13.429,68.293,71.831,-4.589,58.442,51.442,11.951,4.342,4.844
Mon Dec 02 21:11:56 2024,550,15.990,-15.990,-0.568,0.568,-1.353,25.662,14.990,13.480,63.560,61.180,-4.161,55.459,43.525,12.510,4.278,4.998
Mon Dec 02 21:11:56 2024,555,15.651,-15.651,-0.363,0.363,-1.634,26.032,14.927,13.718,58.861,51.469,-3.885,52.455,37.063,13.088,4.157,5.158
Mon Dec 02 21:11:56 2024,560,15.371,-15.371,-0.403,-0.403,-2.043,26.244,15.349,10.203,54.177,44.094,-3.141,48.706,31.781,13.358,3.932,5.004
Mon Dec 02 21:11:56 2024,565,15.179,-15.179,-0.664,-0.664,-2.422,26.405,15.854,6.532,50.709,39.000,-2.483,45.444,28.151,13.488,3.719,4.782
Mon Dec 02 21:11:56 2024,570,15.096,-15.096,-0.933,-0.933,-2.677,26.729,15.928,3.748,47.340,33.941,-2.010,42.039,24.871,13.726,3.547,4.569
Mon Dec 02 21:11:56 2024,575,15.481,-15.481,-0.839,-0.839,-2.188,27.536,13.842,4.625,44.044,28.239,-2.163,39.486,21.776,14.309,3.684,4.559
Mon Dec 02 21:11:56 2024,580,15.779,-15.779,-0.791,-0.791,-1.857,28.227,12.310,5.271,41.617,24.473,-2.293,37.433,19.554,14.728,3.727,4.551
Mon Dec 02 21:11:56 2024,585,15.923,-15.923,-0.895,-0.895,-1.963,28.590,11.180,5.011,38.095,20.095,-2.270,35.311,17.423,14.784,4.007,4.271
Mon Dec 02 21:11:56 2024,590,16.004,-16.004,-1.012,-1.012,-2.144,28.811,10.371,4.613,35.107,16.611,-2.237,33.625,15.784,14.745,4.268,3.987
Mon Dec 02 21:11:56 2024,595,16.029,-16.029,-1.190,-1.190,-2.332,28.972,9.653,4.362,32.490,13.720,-2.182,31.801,14.157,14.742,4.468,3.683
