Timestamp,Millis,thumb_tm_aa,thumb_tm_flex,thumb_mcp_aa,thumb_mcp_flex,index_mcp_aa,index_mcp_flex,index_pip,middle_mcp_aa,middle_mcp_flex,middle_pip,ring_mcp_aa,ring_mcp_flex,ring_pip,little_mcp_aa,little_mcp_flex,little_pip
Mon Dec 02 20:54:42 2024,180,-32.143,-32.143,-0.403,-0.403,-3.280,10.593,5.138,0.271,10.632,8.235,-8.067,1.896,5.762,17.097,-1.343,6.637
Mon Dec 02 20:54:42 2024,185,-32.112,-32.112,-0.467,-0.467,-3.326,10.471,5.046,-0.273,10.603,8.159,-8.043,2.009,5.752,17.046,-1.261,6.653
Mon Dec 02 20:54:42 2024,190,-32.089,-32.089,-0.518,-0.518,-3.363,10.375,4.973,-0.312,10.580,8.099,-8.024,2.098,5.744,17.005,-1.196,6.665
Mon Dec 02 20:54:42 2024,195,-32.119,-32.119,-0.221,-0.221,-3.240,10.746,5.371,0.276,10.583,8.416,-8.144,1.967,5.876,17.053,-1.275,6.791
Mon Dec 02 20:54:42 2024,200,-32.119,-32.119,-0.136,-0.136,-3.210,10.846,5.496,0.289,10.570,8.514,-8.183,1.964,5.927,17.049,-1.269,6.852
Mon Dec 02 20:54:42 2024,205,-32.119,-32.119,-0.083,0.083,-3.181,10.942,5.616,0.306,10.557,8.608,-8.221,1.961,5.976,17.045,-1.265,6.910
Mon Dec 02 20:54:42 2024,210,-32.067,-32.067,-0.128,-0.011,-3.165,10.937,5.613,0.335,10.564,8.645,-8.207,1.933,5.976,17.060,-1.277,6.902
Mon Dec 02 20:54:42 2024,215,-31.973,-31.973,-0.338,-0.338,-3.171,10.819,5.469,0.374,10.592,8.601,-8.139,1.884,5.919,17.092,-1.304,6.821
Mon Dec 02 20:54:42 2024,220,-31.877,-31.877,-0.573,-0.573,-3.176,10.722,5.342,0.406,10.625,8.565,-8.072,1.851,5.866,17.122,-1.307,6.758
Mon Dec 02 20:54:42 2024,225,-31.820,-31.820,-0.680,-0.680,-3.168,10.792,5.368,0.361,10.670,8.581,-8.052,1.925,5.863,17.121,-1.190,6.824
Mon Dec 02 20:54:42 2024,230,-31.775,-31.775,-0.751,-0.751,-3.158,10.906,5.436,0.306,10.715,8.611,-8.045,2.025,5.872,17.112,-1.043,6.921
Mon Dec 02 20:54:42 2024,235,-31.755,-31.755,-0.776,-0.776,-3.153,10.917,5.445,0.287,10.739,8.625,-8.019,2.108,5.898,17.135,-1.008,6.954
Mon Dec 02 20:54:42 2024,240,-31.762,-31.762,-0.753,-0.753,-3.154,10.829,5.397,0.293,10.743,8.621,-7.978,2.169,5.938,17.186,-1.084,6.919
Mon Dec 02 20:54:42 2024,245,-31.762,-31.762,-0.753,-0.753,-3.153,10.771,5.361,0.300,10.745,8.610,-7.939,2.227,5.964,17.213,-1.131,6.893
Mon Dec 02 20:54:42 2024,250,-31.743,-31.743,-0.820,-0.820,-3.146,10.767,5.339,0.307,10.747,8.566,-7.879,2.316,5.964,17.185,-1.126,6.874
Mon Dec 02 20:54:42 2024,255,-31.721,-31.721,-0.894,-0.894,-3.140,10.772,5.320,0.314,10.748,8.519,-7.820,2.404,5.960,17.151,-1.112,6.858
Mon Dec 02 20:54:42 2024,260,-31.708,-31.708,-0.927,-0.927,-3.142,10.752,5.377,0.343,10.693,8.567,-7.848,2.298,5.953,17.160,-1.127,6.892
Mon Dec 02 20:54:42 2024,265,-31.699,-31.699,-0.941,-0.941,-3.148,10.721,5.467,0.384,10.612,8.656,-7.916,2.106,5.944,17.188,-1.154,6.948
Mon Dec 02 20:54:42 2024,270,-31.692,-31.692,-0.970,-0.970,-3.159,10.680,5.502,0.416,10.558,8.699,-7.965,1.962,5.927,17.210,-1.162,6.988
Mon Dec 02 20:54:42 2024,275,-31.694,-31.694,-1.054,-1.054,-3.194,10.611,5.316,0.403,10.616,8.552,-7.930,2.037,5.877,17.202,-1.091,6.954
Mon Dec 02 20:54:42 2024,280,-31.697,-31.697,-1.141,-1.141,-3.230,10.541,5.126,0.388,10.675,8.401,-7.893,2.114,5.825,17.193,-1.019,6.919
Mon Dec 02 20:54:42 2024,285,-31.704,-31.704,-1.109,-1.109,-3.298,10.546,5.080,0.396,10.772,8.274,-7.884,2.146,5.720,17.198,-0.994,6.839
Mon Dec 02 20:54:42 2024,290,-31.710,-31.710,-1.036,-1.036,-3.362,10.583,5.109,0.411,10.859,8.192,-7.888,2.152,5.620,17.208,-0.997,6.762
Mon Dec 02 20:54:42 2024,295,-31.715,-31.715,-0.990,-0.990,-3.418,10.614,5.152,0.426,10.901,8.135,-7.915,2.124,5.547,17.184,-1.007,6.686
Mon Dec 02 20:54:42 2024,300,-31.717,-31.717,-1.016,-1.016,-3.439,10.622,5.208,0.432,10.840,8.148,-7.978,2.044,5.554,17.103,-1.028,6.643
Mon Dec 02 20:54:42 2024,305,-31.719,-31.719,-1.044,-1.044,-3.460,10.631,5.268,0.438,10.773,8.162,-8.045,1.957,5.562,17.015,-1.052,6.597
Mon Dec 02 20:54:42 2024,310,-31.705,-31.705,-1.089,-1.089,-3.449,10.631,5.291,0.447,10.729,8.098,-7.987,2.017,5.536,17.022,-1.103,6.542
Mon Dec 02 20:54:42 2024,315,-31.689,-31.689,-1.127,-1.127,-3.430,10.627,5.293,0.455,10.707,8.025,-7.900,2.114,5.505,17.063,-1.150,6.500
Mon Dec 02 20:54:42 2024,320,-31.684,-31.684,-1.091,-1.091,-3.401,10.640,5.267,0.479,10.723,7.975,-7.843,2.162,5.459,17.079,-1.172,6.449
Mon Dec 02 20:54:42 2024,325,-31.694,-31.694,-0.969,-0.969,-3.361,10.672,5.209,0.526,10.785,7.955,-7.823,2.150,5.396,17.065,-1.163,6.389
Mon Dec 02 20:54:42 2024,330,-31.706,-31.706,-0.842,-0.842,-3.320,10.711,5.153,0.571,10.843,7.935,-7.804,2.149,5.340,17.048,-1.146,6.336
Mon Dec 02 20:54:42 2024,335,-31.701,-31.701,-0.818,-0.818,-3.310,10.767,5.178,0.542,10.788,7.901,-7.755,2.315,5.396,17.049,-1.096,6.397
Mon Dec 02 20:54:42 2024,340,-31.692,-31.692,-0.823,-0.823,-3.309,10.823,5.222,0.497,10.708,7.866,-7.704,2.513,5.476,17.054,-1.041,6.481
Mon Dec 02 20:54:42 2024,345,-31.696,-31.696,-0.831,-0.831,-3.333,10.852,5.222,0.463,10.707,7.816,-7.679,2.611,5.479,17.027,-1.012,6.471
Mon Dec 02 20:54:42 2024,350,-31.715,-31.715,-0.843,-0.843,-3.395,10.848,5.166,0.436,10.812,7.738,-7.683,2.597,5.379,16.955,-1.009,6.335
Mon Dec 02 20:54:42 2024,355,-31.729,-31.729,-0.851,-0.851,-3.442,10.842,5.121,0.417,10.895,7.681,-7.689,2.577,5.300,16.901,-1.010,6.229
Mon Dec 02 20:54:42 2024,360,-31.687,-31.687,-0.911,-0.911,-3.497,10.815,5.092,0.390,10.908,7.621,-7.801,2.487,5.218,16.886,-0.968,6.172
Mon Dec 02 20:54:42 2024,365,-31.641,-31.641,-0.969,-0.969,-3.545,10.790,5.068,0.366,10.909,7.569,-7.911,2.401,5.149,16.879,-0.926,6.132
Mon Dec 02 20:54:42 2024,370,-31.647,-31.647,-0.955,-0.955,-3.591,10.786,5.100,0.398,10.987,7.629,-7.906,2.421,5.197,16.955,-0.948,6.182
Mon Dec 02 20:54:42 2024,375,-31.690,-31.690,-0.888,-0.888,-3.631,10.799,5.170,0.474,11.115,7.766,-7.814,2.520,5.330,17.086,-1.015,6.295
Mon Dec 02 20:54:42 2024,380,-31.732,-31.732,-0.827,-0.827,-3.669,10.802,5.231,0.547,11.218,7.886,-7.725,2.610,5.451,17.202,-1.083,6.389
Mon Dec 02 20:54:42 2024,385,-31.712,-31.712,-0.873,-0.873,-3.654,10.731,5.165,0.483,11.033,7.761,-7.734,2.551,5.353,17.091,-1.089,6.223
Mon Dec 02 20:54:42 2024,390,-31.695,-31.695,-0.912,-0.912,-3.642,10.671,5.109,0.432,10.875,7.655,-7.741,2.501,5.271,16.996,-1.095,6.085
Mon Dec 02 20:54:42 2024,395,-31.663,-31.663,-0.915,-0.915,-3.609,10.698,5.097,0.424,10.855,7.615,-7.730,2.560,5.236,16.972,-1.101,6.030
Mon Dec 02 20:54:42 2024,400,-31.620,-31.620,-0.883,-0.883,-3.558,10.804,5.128,0.456,10.966,7.642,-7.703,2.717,5.246,17.016,-1.107,6.060
Mon Dec 02 20:54:42 2024,405,-31.587,-31.587,-0.858,-0.858,-3.524,10.865,5.153,0.473,11.023,7.674,-7.673,2.830,5.274,17.065,-1.109,6.102
Mon Dec 02 20:54:42 2024,410,-31.579,-31.579,-0.857,-0.857,-3.531,10.810,5.163,0.450,10.946,7.720,-7.641,2.826,5.341,17.117,-1.101,6.171
Mon Dec 02 20:54:42 2024,415,-31.576,-31.576,-0.857,-0.857,-3.544,10.743,5.170,0.425,10.857,7.767,-7.610,2.808,5.411,17.168,-1.092,6.241
Mon Dec 02 20:54:42 2024,420,-31.559,-31.559,-0.839,-0.839,-3.558,10.653,5.158,0.441,10.888,7.807,-7.602,2.797,5.437,17.187,-1.105,6.269
Mon Dec 02 20:54:42 2024,425,-31.540,-31.540,-0.815,-0.815,-3.571,10.573,5.139,0.476,10.978,7.834,-7.608,2.792,5.433,17.185,-1.126,6.267
Mon Dec 02 20:54:42 2024,430,-31.526,-31.526,-0.774,-0.774,-3.565,10.557,5.115,0.507,11.034,7.823,-7.614,2.768,5.402,17.164,-1.136,6.248
Mon Dec 02 20:54:42 2024,435,-31.529,-31.529,-0.703,-0.703,-3.515,10.713,5.088,0.510,10.985,7.719,-7.618,2.704,5.310,17.106,-1.111,6.192
Mon Dec 02 20:54:42 2024,440,-31.527,-31.527,-0.656,-0.656,-3.479,10.828,5.066,0.514,10.961,7.647,-7.620,2.659,5.241,17.066,-1.089,6.152
Mon Dec 02 20:54:42 2024,445,-31.496,-31.496,-0.675,-0.675,-3.479,10.860,5.062,0.534,11.023,7.662,-7.619,2.657,5.220,17.080,-1.062,6.145
Mon Dec 02 20:54:42 2024,450,-31.448,-31.448,-0.744,-0.744,-3.508,10.814,5.073,0.560,11.144,7.747,-7.616,2.694,5.242,17.135,-1.038,6.167
Mon Dec 02 20:54:42 2024,455,-31.421,-31.421,-0.760,-0.760,-3.538,10.779,5.076,0.553,11.209,7.771,-7.625,2.729,5.224,17.154,-1.025,6.147
Mon Dec 02 20:54:42 2024,460,-31.435,-31.435,-0.686,-0.686,-3.557,10.773,5.066,0.492,11.161,7.690,-7.649,2.750,5.151,17.113,-1.035,6.066
Mon Dec 02 20:54:42 2024,465,-31.447,-31.447,-0.620,-0.620,-3.575,10.768,5.058,0.440,11.118,7.618,-7.671,2.769,5.086,17.076,-1.044,5.995
Mon Dec 02 20:54:42 2024,470,-31.451,-31.451,-0.528,-0.528,-3.566,10.700,5.035,0.441,11.123,7.633,-7.659,2.703,5.118,17.116,-1.084,6.037
Mon Dec 02 20:54:42 2024,475,-31.451,-31.451,-0.448,-0.448,-3.551,10.626,5.010,0.456,11.142,7.672,-7.640,2.625,5.173,17.172,-1.125,6.105
Mon Dec 02 20:54:42 2024,480,-31.434,-31.434,-0.400,-0.400,-3.534,10.637,5.042,0.478,11.186,7.715,-7.614,2.642,5.227,17.231,-1.155,6.145
Mon Dec 02 20:54:42 2024,485,-31.383,-31.383,-0.401,-0.401,-3.508,10.800,5.175,0.511,11.281,7.774,-7.570,2.830,5.289,17.304,-1.167,6.140
Mon Dec 02 20:54:42 2024,490,-31.340,-31.340,-0.403,-0.403,-3.488,10.936,5.285,0.541,11.361,7.825,-7.533,2.993,5.344,17.363,-1.174,6.136
Mon Dec 02 20:54:42 2024,495,-31.308,-31.308,-0.396,-0.396,-3.496,10.881,5.229,0.545,11.376,7.857,-7.519,3.038,5.384,17.340,-1.111,6.163
Mon Dec 02 20:54:42 2024,500,-31.267,-31.267,-0.388,-0.388,-3.507,10.810,5.156,0.551,11.397,7.899,-7.501,3.097,5.437,17.310,-1.029,6.197
Mon Dec 02 20:54:42 2024,505,-31.259,-31.259,-0.295,-0.295,-3.505,10.796,5.168,0.558,11.455,7.940,-7.488,3.132,5.469,17.276,-1.007,6.229
Mon Dec 02 20:54:42 2024,510,-31.273,-31.273,-0.162,-0.162,-3.496,10.818,5.235,0.566,11.539,7.978,-7.479,3.153,5.487,17.238,-1.022,6.259
Mon Dec 02 20:54:42 2024,515,-31.275,-31.275,-0.117,0.117,-3.484,10.834,5.285,0.569,11.606,8.021,-7.478,3.160,5.502,17.213,-1.033,6.285
Mon Dec 02 20:54:42 2024,520,-31.195,-31.195,-0.130,0.035,-3.442,10.838,5.304,0.541,11.652,8.162,-7.540,3.070,5.530,17.243,-1.030,6.316
Mon Dec 02 20:54:42 2024,525,-31.131,-31.131,-0.168,-0.168,-3.411,10.839,5.312,0.519,11.680,8.270,-7.590,2.998,5.551,17.271,-1.025,6.337
Mon Dec 02 20:54:42 2024,530,-31.103,-31.103,-0.197,-0.197,-3.346,10.911,5.301,0.455,11.754,8.375,-7.596,3.054,5.632,17.290,-0.906,6.482
Mon Dec 02 20:54:42 2024,535,-31.126,-31.126,-0.186,-0.186,-3.275,11.030,5.276,0.375,11.844,8.431,-7.551,3.229,5.746,17.290,-0.714,6.702
Mon Dec 02 20:54:42 2024,540,-31.134,-31.134,-0.170,-0.170,-3.215,11.115,5.260,0.323,11.880,8.476,-7.525,3.339,5.840,17.278,-0.575,6.874
Mon Dec 02 20:54:42 2024,545,-31.081,-31.081,-0.133,-0.133,-3.198,11.054,5.285,0.370,11.703,8.478,-7.580,3.180,5.847,17.222,-0.645,6.838
Mon Dec 02 20:54:42 2024,550,-31.033,-31.033,-0.103,-0.103,-3.183,10.998,5.308,0.413,11.540,8.479,-7.630,3.035,5.855,17.170,-0.710,6.805
Mon Dec 02 20:54:42 2024,555,-31.026,-31.026,-0.124,-0.124,-3.202,10.994,5.354,0.414,11.427,8.490,-7.736,2.921,5.835,17.130,-0.767,6.769
Mon Dec 02 20:54:42 2024,560,-31.045,-31.045,-0.175,-0.175,-3.235,11.022,5.400,0.388,11.380,8.504,-7.839,2.863,5.806,17.110,-0.800,6.743
Mon Dec 02 20:54:42 2024,565,-31.032,-31.032,-0.236,-0.236,-3.243,11.058,5.436,0.367,11.404,8.516,-7.903,2.858,5.771,17.109,-0.803,6.716
Mon Dec 02 20:54:42 2024,570,-30.956,-30.956,-0.292,-0.292,-3.194,11.093,5.433,0.364,11.564,8.518,-7.854,2.968,5.739,17.148,-0.744,6.701
Mon Dec 02 20:54:42 2024,575,-30.881,-30.881,-0.346,-0.346,-3.143,11.124,5.425,0.363,11.721,8.520,-7.797,3.077,5.712,17.187,-0.684,6.689
Mon Dec 02 20:54:42 2024,580,-30.877,-30.877,-0.327,-0.327,-3.165,11.069,5.392,0.333,11.626,8.467,-7.760,3.082,5.734,17.247,-0.731,6.733
Mon Dec 02 20:54:42 2024,585,-30.904,-30.904,-0.281,-0.281,-3.214,10.983,5.351,0.299,11.431,8.396,-7.735,3.041,5.775,17.310,-0.818,6.798
Mon Dec 02 20:54:42 2024,590,-30.909,-30.909,-0.263,-0.263,-3.250,10.928,5.336,0.288,11.260,8.347,-7.754,2.966,5.792,17.341,-0.909,6.814
Mon Dec 02 20:54:42 2024,595,-30.841,-30.841,-0.342,-0.342,-3.227,10.990,5.412,0.341,11.226,8.390,-7.919,2.800,5.720,17.250,-0.988,6.659
Mon Dec 02 20:54:42 2024,600,-30.781,-30.781,-0.410,-0.410,-3.210,11.050,5.478,0.392,11.216,8.436,-8.057,2.673,5.662,17.173,-1.055,6.530
Mon Dec 02 20:54:42 2024,605,-30.756,-30.756,-0.408,-0.408,-3.233,11.126,5.500,0.373,11.475,8.555,-8.015,2.844,5.714,17.207,-1.039,6.571
Mon Dec 02 20:54:42 2024,610,-30.739,-30.739,-0.383,-0.383,-3.271,11.213,5.511,0.332,11.842,8.706,-7.912,3.125,5.804,17.280,-0.997,6.669
Mon Dec 02 20:54:42 2024,615,-30.712,-30.712,-0.382,-0.382,-3.257,11.268,5.528,0.308,11.904,8.749,-7.906,3.172,5.831,17.298,-0.958,6.725
Mon Dec 02 20:54:42 2024,620,-30.662,-30.662,-0.406,-0.406,-3.176,11.309,5.561,0.295,11.631,8.680,-8.009,2.961,5.797,17.258,-0.907,6.751
Mon Dec 02 20:54:42 2024,625,-30.611,-30.611,-0.431,-0.431,-3.094,11.346,5.594,0.288,11.343,8.604,-8.118,2.739,5.758,17.215,-0.858,6.774
Mon Dec 02 20:54:42 2024,630,-30.576,-30.576,-0.484,-0.484,-3.137,11.239,5.658,0.324,11.402,8.771,-8.078,2.766,5.871,17.233,-0.991,6.756
Mon Dec 02 20:54:42 2024,635,-30.548,-30.548,-0.533,-0.533,-3.193,11.126,5.718,0.366,11.505,8.949,-8.021,2.827,5.991,17.255,-1.131,6.736
Mon Dec 02 20:54:42 2024,640,-30.530,-30.530,-0.568,-0.568,-3.208,11.144,5.791,0.405,11.589,9.061,-8.000,2.873,6.057,17.263,-1.228,6.715
Mon Dec 02 20:54:42 2024,645,-30.528,-30.528,-0.574,-0.574,-3.154,11.379,5.879,0.427,11.634,9.050,-8.039,2.889,6.020,17.245,-1.240,6.694
Mon Dec 02 20:54:42 2024,650,-30.526,-30.526,-0.580,-0.580,-3.099,11.615,5.967,0.450,11.679,9.039,-8.079,2.905,5.984,17.228,-1.251,6.673
Mon Dec 02 20:54:42 2024,655,-30.487,-30.487,-0.582,-0.582,-3.074,11.603,5.815,0.507,11.862,9.050,-8.020,2.924,5.938,17.306,-1.184,6.728
Mon Dec 02 20:54:42 2024,660,-30.447,-30.447,-0.585,-0.585,-3.053,11.575,5.659,0.564,12.038,9.061,-7.959,2.943,5.895,17.382,-1.120,6.784
Mon Dec 02 20:54:42 2024,665,-30.438,-30.438,-0.654,-0.654,-3.050,11.557,5.612,0.530,12.008,9.031,-7.962,2.967,5.915,17.452,-1.072,6.877
Mon Dec 02 20:54:42 2024,670,-30.451,-30.451,-0.757,-0.757,-3.061,11.549,5.645,0.443,11.845,8.978,-8.008,2.993,5.973,17.506,-1.045,6.979
Mon Dec 02 20:54:42 2024,675,-30.461,-30.461,-0.853,-0.853,-3.064,11.544,5.676,0.372,11.674,8.919,-8.042,3.019,6.024,17.565,-1.034,7.072
Mon Dec 02 20:54:42 2024,680,-30.443,-30.443,-0.782,-0.782,-3.020,11.566,5.655,0.448,11.667,8.895,-7.965,3.020,5.966,17.591,-1.136,6.980
Mon Dec 02 20:54:42 2024,685,-30.426,-30.426,-0.716,-0.716,-2.978,11.588,5.636,0.523,11.660,8.873,-7.892,3.019,5.912,17.614,-1.232,6.896
Mon Dec 02 20:54:42 2024,690,-30.428,-30.428,-0.690,-0.690,-2.948,11.615,5.679,0.527,11.623,8.908,-7.870,3.051,5.951,17.593,-1.242,6.898
Mon Dec 02 20:54:42 2024,695,-30.439,-30.439,-0.687,-0.687,-2.928,11.640,5.745,0.497,11.578,8.963,-7.877,3.093,6.027,17.554,-1.209,6.943
Mon Dec 02 20:54:42 2024,700,-30.447,-30.447,-0.689,-0.689,-2.908,11.658,5.802,0.489,11.550,9.023,-7.865,3.128,6.104,17.538,-1.220,6.974
Mon Dec 02 20:54:42 2024,705,-30.445,-30.445,-0.705,-0.705,-2.894,11.647,5.815,0.549,11.579,9.075,-7.804,3.133,6.154,17.593,-1.354,6.956
Mon Dec 02 20:54:42 2024,710,-30.443,-30.443,-0.722,-0.722,-2.882,11.633,5.823,0.616,11.612,9.124,-7.739,3.134,6.199,17.654,-1.496,6.933
Mon Dec 02 20:54:42 2024,715,-30.428,-30.428,-0.733,-0.733,-2.913,11.608,5.856,0.670,11.678,9.213,-7.782,3.068,6.224,17.660,-1.444,6.996
Mon Dec 02 20:54:42 2024,720,-30.411,-30.411,-0.740,-0.740,-2.956,11.581,5.897,0.710,11.749,9.306,-7.862,2.986,6.238,17.644,-1.322,7.085
Mon Dec 02 20:54:42 2024,725,-30.410,-30.410,-0.714,-0.714,-2.980,11.571,5.914,0.742,11.798,9.355,-7.925,2.908,6.225,17.625,-1.274,7.121
Mon Dec 02 20:54:42 2024,730,-30.444,-30.444,-0.616,-0.616,-2.958,11.598,5.881,0.752,11.796,9.308,-7.947,2.844,6.154,17.605,-1.387,7.036
Mon Dec 02 20:54:42 2024,735,-30.475,-30.475,-0.529,-0.529,-2.939,11.622,5.850,0.759,11.794,9.265,-7.968,2.787,6.090,17.586,-1.490,6.958
Mon Dec 02 20:54:42 2024,740,-30.466,-30.466,-0.572,-0.572,-2.941,11.609,5.858,0.769,11.762,9.244,-7.936,2.862,6.109,17.604,-1.520,6.942
Mon Dec 02 20:54:42 2024,745,-30.443,-30.443,-0.659,-0.659,-2.952,11.584,5.878,0.779,11.723,9.232,-7.887,2.980,6.156,17.634,-1.522,6.949
Mon Dec 02 20:54:42 2024,750,-30.422,-30.422,-0.755,-0.755,-2.955,11.589,5.894,0.792,11.731,9.262,-7.839,3.052,6.198,17.672,-1.511,6.981
Mon Dec 02 20:54:42 2024,755,-30.414,-30.414,-0.823,-0.823,-2.948,11.638,5.895,0.804,11.807,9.340,-7.810,3.028,6.216,17.705,-1.485,7.040
Mon Dec 02 20:54:42 2024,760,-30.407,-30.407,-0.886,-0.886,-2.941,11.682,5.897,0.815,11.877,9.412,-7.784,3.007,6.233,17.736,-1.461,7.093
Mon Dec 02 20:54:42 2024,765,-30.396,-30.396,-0.873,-0.873,-2.933,11.641,5.868,0.859,11.822,9.392,-7.807,2.968,6.199,17.723,-1.491,7.057
Mon Dec 02 20:54:42 2024,770,-30.386,-30.386,-0.845,-0.845,-2.925,11.586,5.835,0.906,11.746,9.353,-7.839,2.930,6.159,17.702,-1.530,7.005
Mon Dec 02 20:54:42 2024,775,-30.408,-30.408,-0.821,-0.821,-2.930,11.555,5.814,0.925,11.720,9.299,-7.864,2.882,6.118,17.730,-1.570,6.988
Mon Dec 02 20:54:42 2024,780,-30.458,-30.458,-0.807,-0.807,-2.947,11.556,5.810,0.910,11.752,9.240,-7.874,2.834,6.086,17.804,-1.601,7.012
Mon Dec 02 20:54:42 2024,785,-30.509,-30.509,-0.794,-0.794,-2.958,11.555,5.802,0.894,11.775,9.175,-7.885,2.783,6.055,17.874,-1.627,7.036
Mon Dec 02 20:54:42 2024,790,-30.486,-30.486,-0.800,-0.800,-2.916,11.537,5.770,0.900,11.674,9.131,-7.880,2.765,6.072,17.830,-1.582,7.028
Mon Dec 02 20:54:42 2024,795,-30.450,-30.450,-0.808,-0.808,-2.862,11.516,5.733,0.910,11.551,9.090,-7.873,2.751,6.096,17.767,-1.524,7.014
Mon Dec 02 20:54:42 2024,800,-30.438,-30.438,-0.802,-0.802,-2.829,11.498,5.714,0.916,11.464,9.039,-7.839,2.776,6.075,17.736,-1.535,6.966
Mon Dec 02 20:54:42 2024,805,-30.447,-30.447,-0.785,-0.785,-2.816,11.485,5.713,0.919,11.419,8.990,-7.787,2.829,6.018,17.739,-1.603,6.898
Mon Dec 02 20:54:42 2024,810,-30.456,-30.456,-0.770,-0.770,-2.806,11.481,5.713,0.919,11.383,8.951,-7.742,2.871,5.977,17.744,-1.650,6.851
Mon Dec 02 20:54:42 2024,815,-30.475,-30.475,-0.744,-0.744,-2.796,11.509,5.719,0.899,11.350,8.915,-7.681,2.905,5.972,17.760,-1.644,6.862
Mon Dec 02 20:54:42 2024,820,-30.491,-30.491,-0.720,-0.720,-2.789,11.537,5.724,0.880,11.324,8.888,-7.628,2.931,5.973,17.776,-1.628,6.882
Mon Dec 02 20:54:42 2024,825,-30.476,-30.476,-0.694,-0.694,-2.774,11.542,5.725,0.854,11.274,8.848,-7.619,2.921,5.955,17.786,-1.632,6.868
Mon Dec 02 20:54:42 2024,830,-30.439,-30.439,-0.666,-0.666,-2.756,11.533,5.721,0.827,11.208,8.803,-7.641,2.887,5.926,17.789,-1.649,6.831
Mon Dec 02 20:54:42 2024,835,-30.413,-30.413,-0.643,-0.643,-2.761,11.519,5.701,0.792,11.186,8.749,-7.668,2.866,5.897,17.783,-1.623,6.811
Mon Dec 02 20:54:42 2024,840,-30.433,-30.433,-0.644,-0.644,-2.835,11.506,5.643,0.756,11.302,8.696,-7.686,2.901,5.885,17.749,-1.480,6.857
Mon Dec 02 20:54:42 2024,845,-30.441,-30.441,-0.663,-0.663,-2.875,11.490,5.585,0.734,11.374,8.655,-7.676,2.928,5.874,17.720,-1.366,6.904
Mon Dec 02 20:54:42 2024,850,-30.446,-30.446,-0.687,-0.687,-2.908,11.472,5.526,0.716,11.438,8.616,-7.660,2.952,5.863,17.692,-1.256,6.952
Mon Dec 02 20:54:42 2024,855,-30.423,-30.423,-0.746,-0.746,-2.865,11.451,5.474,0.733,11.401,8.607,-7.587,2.954,5.854,17.680,-1.219,6.999
Mon Dec 02 20:54:42 2024,860,-30.406,-30.406,-0.790,-0.790,-2.834,11.435,5.435,0.746,11.374,8.600,-7.534,2.956,5.848,17.670,-1.192,7.034
Mon Dec 02 20:54:42 2024,865,-30.415,-30.415,-0.684,-0.684,-2.883,11.454,5.348,0.732,11.474,8.454,-7.597,2.978,5.661,17.682,-1.224,6.794
Mon Dec 02 20:54:42 2024,870,-30.418,-30.418,-0.616,-0.616,-2.915,11.465,5.285,0.724,11.540,8.353,-7.636,2.993,5.533,17.689,-1.243,6.634
Mon Dec 02 20:54:42 2024,875,-30.422,-30.422,-0.556,-0.556,-2.942,11.475,5.229,0.716,11.599,8.263,-7.670,3.007,5.421,17.694,-1.260,6.495
Mon Dec 02 20:54:42 2024,880,-30.421,-30.421,-0.522,-0.522,-2.958,11.481,5.197,0.712,11.633,8.211,-7.689,3.015,5.356,17.698,-1.270,6.415
Mon Dec 02 20:54:42 2024,885,-30.389,-30.389,-0.671,-0.671,-2.952,11.420,5.273,0.721,11.555,8.392,-7.697,2.793,5.501,17.669,-1.160,6.726
Mon Dec 02 20:54:42 2024,890,-30.360,-30.360,-0.794,-0.794,-2.952,11.367,5.329,0.727,11.498,8.535,-7.713,2.593,5.607,17.645,-1.064,6.978
Mon Dec 02 20:54:42 2024,895,-30.346,-30.346,-0.839,-0.839,-2.959,11.343,5.344,0.728,11.484,8.585,-7.728,2.498,5.632,17.634,-1.020,7.070
Mon Dec 02 20:54:42 2024,900,-30.350,-30.350,-0.785,-0.785,-2.912,11.414,5.364,0.764,11.532,8.566,-7.708,2.605,5.600,17.594,-1.030,7.002
Mon Dec 02 20:54:42 2024,905,-30.358,-30.358,-0.708,-0.708,-2.856,11.501,5.382,0.804,11.591,8.526,-7.678,2.763,5.554,17.552,-1.056,6.893
Mon Dec 02 20:54:42 2024,910,-30.369,-30.369,-0.641,-0.641,-2.843,11.508,5.402,0.816,11.609,8.537,-7.669,2.862,5.570,17.533,-1.100,6.835
Mon Dec 02 20:54:42 2024,915,-30.380,-30.380,-0.599,-0.599,-2.926,11.342,5.428,0.770,11.541,8.653,-7.703,2.834,5.714,17.566,-1.180,6.887
Mon Dec 02 20:54:42 2024,920,-30.383,-30.383,-0.582,-0.582,-2.985,11.229,5.447,0.744,11.493,8.735,-7.715,2.830,5.822,17.595,-1.238,6.930
Mon Dec 02 20:54:42 2024,925,-30.333,-30.333,-0.672,-0.672,-2.972,11.274,5.460,0.798,11.504,8.720,-7.618,2.966,5.852,17.623,-1.240,6.973
Mon Dec 02 20:54:42 2024,930,-30.281,-30.281,-0.769,-0.769,-2.946,11.347,5.468,0.858,11.527,8.687,-7.516,3.105,5.858,17.646,-1.228,7.005
Mon Dec 02 20:54:42 2024,935,-30.262,-30.262,-0.812,-0.812,-2.919,11.400,5.490,0.891,11.538,8.694,-7.462,3.153,5.863,17.655,-1.221,7.038
Mon Dec 02 20:54:42 2024,940,-30.288,-30.288,-0.774,-0.774,-2.899,11.414,5.522,0.881,11.532,8.749,-7.483,3.072,5.866,17.643,-1.220,7.060
Mon Dec 02 20:54:42 2024,945,-30.316,-30.316,-0.734,-0.734,-2.877,11.429,5.556,0.871,11.526,8.808,-7.506,2.985,5.870,17.630,-1.219,7.084
Mon Dec 02 20:54:42 2024,950,-30.305,-30.305,-0.753,-0.753,-2.856,11.397,5.542,0.885,11.368,8.657,-7.484,3.035,5.842,17.651,-1.230,7.050
Mon Dec 02 20:54:42 2024,955,-30.295,-30.295,-0.769,-0.769,-2.838,11.369,5.529,0.897,11.230,8.526,-7.465,3.079,5.819,17.670,-1.240,7.020
Mon Dec 02 20:54:42 2024,960,-30.302,-30.302,-0.819,-0.819,-2.911,11.282,5.478,0.832,11.172,8.441,-7.469,3.116,5.799,17.627,-1.193,6.970
Mon Dec 02 20:54:42 2024,965,-30.322,-30.322,-0.887,-0.887,-3.048,11.157,5.403,0.712,11.189,8.405,-7.492,3.141,5.786,17.537,-1.107,6.910
Mon Dec 02 20:54:42 2024,970,-30.338,-30.338,-0.942,-0.942,-3.152,11.062,5.331,0.628,11.219,8.369,-7.517,3.134,5.748,17.466,-1.036,6.848
Mon Dec 02 20:54:42 2024,975,-30.337,-30.337,-0.938,-0.938,-3.115,11.097,5.286,0.680,11.295,8.335,-7.540,3.018,5.629,17.471,-1.029,6.791
Mon Dec 02 20:54:42 2024,980,-30.336,-30.336,-0.934,-0.934,-3.075,11.134,5.238,0.738,11.376,8.299,-7.565,2.892,5.501,17.477,-1.022,6.730
Mon Dec 02 20:54:42 2024,985,-30.342,-30.342,-0.867,-0.867,-3.074,11.161,5.198,0.774,11.455,8.230,-7.511,2.946,5.458,17.500,-1.001,6.715
Mon Dec 02 20:54:42 2024,990,-30.353,-30.353,-0.773,-0.773,-3.094,11.183,5.165,0.795,11.528,8.148,-7.420,3.089,5.460,17.532,-0.975,6.723
Mon Dec 02 20:54:42 2024,995,-30.371,-30.371,-0.690,-0.690,-3.105,11.210,5.138,0.827,11.596,8.094,-7.349,3.189,5.466,17.565,-0.966,6.732
Mon Dec 02 20:54:43 2024,0,-30.407,-30.407,-0.688,-0.688,-3.083,11.242,5.152,0.876,11.608,8.172,-7.390,3.083,5.486,17.588,-1.026,6.739
Mon Dec 02 20:54:43 2024,5,-30.444,-30.444,-0.685,-0.685,-3.061,11.275,5.166,0.928,11.622,8.254,-7.431,2.973,5.507,17.613,-1.088,6.746
Mon Dec 02 20:54:43 2024,10,-30.459,-30.459,-0.689,-0.689,-3.071,11.234,5.182,0.953,11.659,8.365,-7.418,3.000,5.585,17.561,-1.103,6.739
Mon Dec 02 20:54:43 2024,15,-30.462,-30.462,-0.696,-0.696,-3.094,11.166,5.197,0.963,11.702,8.473,-7.385,3.082,5.677,17.485,-1.096,6.727
Mon Dec 02 20:54:43 2024,20,-30.472,-30.472,-0.682,-0.682,-3.111,11.102,5.203,0.948,11.667,8.504,-7.369,3.133,5.727,17.429,-1.091,6.720
Mon Dec 02 20:54:43 2024,25,-30.488,-30.488,-0.637,-0.637,-3.106,11.084,5.190,0.896,11.510,8.375,-7.395,3.096,5.668,17.444,-1.092,6.725
Mon Dec 02 20:54:43 2024,30,-30.505,-30.505,-0.590,-0.590,-3.101,11.065,5.177,0.841,11.343,8.236,-7.423,3.056,5.605,17.462,-1.093,6.731
Mon Dec 02 20:54:43 2024,35,-30.455,-30.455,-0.634,-0.634,-3.095,11.080,5.194,0.844,11.297,8.184,-7.415,3.126,5.625,17.439,-1.044,6.723
Mon Dec 02 20:54:43 2024,40,-30.385,-30.385,-0.709,-0.709,-3.091,11.106,5.220,0.869,11.303,8.172,-7.393,3.230,5.675,17.404,-0.983,6.711
Mon Dec 02 20:54:43 2024,45,-30.339,-30.339,-0.781,-0.781,-3.098,11.138,5.247,0.848,11.289,8.145,-7.381,3.291,5.692,17.392,-0.929,6.701
Mon Dec 02 20:54:43 2024,50,-30.351,-30.351,-0.815,-0.815,-3.120,11.166,5.263,0.766,11.249,8.107,-7.387,3.253,5.648,17.422,-0.912,6.699
Mon Dec 02 20:54:43 2024,55,-30.360,-30.360,-0.824,-0.824,-3.134,11.217,5.270,0.725,11.255,8.068,-7.375,3.255,5.602,17.441,-0.887,6.690
Mon Dec 02 20:54:43 2024,60,-30.359,-30.359,-0.776,-0.776,-3.130,11.297,5.261,0.781,11.359,8.039,-7.326,3.337,5.568,17.431,-0.853,6.669
Mon Dec 02 20:54:43 2024,65,-30.352,-30.352,-0.687,-0.687,-3.113,11.401,5.238,0.907,11.533,8.016,-7.252,3.476,5.541,17.400,-0.813,6.638
Mon Dec 02 20:54:43 2024,70,-30.349,-30.349,-0.646,-0.646,-3.111,11.407,5.203,0.951,11.603,8.021,-7.250,3.468,5.516,17.382,-0.773,6.639
Mon Dec 02 20:54:43 2024,75,-30.350,-30.350,-0.646,-0.646,-3.122,11.341,5.164,0.929,11.588,8.045,-7.301,3.351,5.495,17.375,-0.738,6.664
Mon Dec 02 20:54:43 2024,80,-30.347,-30.347,-0.635,-0.635,-3.127,11.283,5.132,0.919,11.586,8.078,-7.344,3.241,5.475,17.379,-0.723,6.680
Mon Dec 02 20:54:43 2024,85,-30.321,-30.321,-0.580,-0.580,-3.100,11.293,5.145,0.973,11.650,8.125,-7.327,3.224,5.468,17.427,-0.810,6.644
Mon Dec 02 20:54:43 2024,90,-30.288,-30.288,-0.509,-0.509,-3.065,11.317,5.169,1.048,11.734,8.183,-7.297,3.221,5.461,17.489,-0.926,6.593
Mon Dec 02 20:54:43 2024,95,-30.269,-30.269,-0.466,-0.466,-3.035,11.336,5.178,1.089,11.771,8.202,-7.300,3.190,5.444,17.481,-0.955,6.571
Mon Dec 02 20:54:43 2024,100,-30.256,-30.256,-0.433,-0.433,-3.001,11.357,5.179,1.115,11.781,8.191,-7.329,3.128,5.414,17.415,-0.921,6.567
Mon Dec 02 20:54:43 2024,105,-30.244,-30.244,-0.404,-0.404,-2.978,11.370,5.182,1.130,11.791,8.194,-7.348,3.098,5.404,17.364,-0.892,6.570
Mon Dec 02 20:54:43 2024,110,-30.226,-30.226,-0.385,-0.385,-3.007,11.351,5.198,1.092,11.799,8.253,-7.322,3.218,5.496,17.365,-0.871,6.621
Mon Dec 02 20:54:43 2024,115,-30.209,-30.209,-0.369,-0.369,-3.043,11.328,5.215,1.047,11.806,8.318,-7.289,3.356,5.599,17.375,-0.853,6.677
Mon Dec 02 20:54:43 2024,120,-30.101,-30.101,-0.335,-0.335,-3.017,11.323,5.241,1.059,11.788,8.344,-7.261,3.397,5.638,17.377,-0.906,6.635
Mon Dec 02 20:54:43 2024,125,-29.950,-29.950,-0.291,-0.291,-2.959,11.327,5.272,1.100,11.756,8.347,-7.237,3.386,5.641,17.374,-0.996,6.545
Mon Dec 02 20:54:43 2024,130,-29.793,-29.793,-0.251,-0.251,-2.923,11.309,5.293,1.131,11.733,8.362,-7.222,3.387,5.654,17.364,-1.053,6.487
Mon Dec 02 20:54:43 2024,135,-29.679,-29.679,-0.242,-0.242,-2.981,11.213,5.265,1.107,11.750,8.414,-7.253,3.430,5.697,17.331,-0.960,6.576
Mon Dec 02 20:54:43 2024,140,-29.570,-29.570,-0.236,-0.236,-3.039,11.119,5.237,1.083,11.767,8.465,-7.285,3.472,5.740,17.298,-0.867,6.666
Mon Dec 02 20:54:43 2024,145,-29.481,-29.481,-0.217,-0.217,-3.030,11.127,5.218,1.120,11.837,8.467,-7.309,3.475,5.725,17.308,-0.829,6.661
Mon Dec 02 20:54:43 2024,150,-29.414,-29.414,-0.193,-0.193,-2.990,11.183,5.205,1.182,11.922,8.446,-7.327,3.460,5.684,17.336,-0.821,6.611
Mon Dec 02 20:54:43 2024,155,-29.371,-29.371,-0.170,-0.170,-2.975,11.213,5.215,1.226,11.974,8.449,-7.329,3.465,5.675,17.348,-0.813,6.582
Mon Dec 02 20:54:43 2024,160,-29.407,-29.407,-0.158,-0.158,-3.036,11.161,5.281,1.216,11.922,8.517,-7.286,3.521,5.756,17.312,-0.804,6.616
Mon Dec 02 20:54:43 2024,165,-29.440,-29.440,-0.147,-0.147,-3.090,11.115,5.341,1.207,11.875,8.579,-7.248,3.573,5.829,17.280,-0.796,6.648
Mon Dec 02 20:54:43 2024,170,-29.444,-29.444,-0.165,-0.165,-3.082,11.172,5.345,1.216,11.869,8.569,-7.223,3.634,5.855,17.340,-0.792,6.672
Mon Dec 02 20:54:43 2024,175,-29.438,-29.438,-0.194,-0.194,-3.051,11.260,5.327,1.232,11.878,8.533,-7.206,3.691,5.858,17.427,-0.792,6.688
Mon Dec 02 20:54:43 2024,180,-29.434,-29.434,-0.225,-0.225,-3.022,11.321,5.334,1.251,11.876,8.527,-7.190,3.712,5.870,17.505,-0.816,6.702
Mon Dec 02 20:54:43 2024,185,-29.428,-29.428,-0.262,-0.262,-2.992,11.334,5.398,1.280,11.850,8.584,-7.168,3.665,5.899,17.579,-0.899,6.712
Mon Dec 02 20:54:43 2024,190,-29.424,-29.424,-0.294,-0.294,-2.975,11.347,5.452,1.299,11.839,8.630,-7.158,3.628,5.923,17.624,-0.953,6.722
Mon Dec 02 20:54:43 2024,195,-29.421,-29.421,-0.332,-0.332,-3.008,11.384,5.484,1.276,11.897,8.658,-7.195,3.626,5.934,17.567,-0.897,6.741
Mon Dec 02 20:54:43 2024,200,-29.417,-29.417,-0.374,-0.374,-3.056,11.429,5.512,1.241,11.978,8.680,-7.247,3.635,5.941,17.478,-0.809,6.762
Mon Dec 02 20:54:43 2024,205,-29.415,-29.415,-0.336,-0.336,-3.084,11.387,5.485,1.226,11.968,8.636,-7.270,3.607,5.903,17.439,-0.788,6.751
Mon Dec 02 20:54:43 2024,210,-29.416,-29.416,-0.203,-0.203,-3.091,11.243,5.393,1.234,11.854,8.512,-7.262,3.537,5.813,17.455,-0.843,6.704
Mon Dec 02 20:54:43 2024,215,-29.413,-29.413,-0.100,-0.100,-3.100,11.122,5.316,1.242,11.766,8.412,-7.259,3.479,5.733,17.463,-0.887,6.654
Mon Dec 02 20:54:43 2024,220,-29.382,-29.382,-0.112,-0.112,-3.110,11.089,5.294,1.249,11.792,8.405,-7.283,3.468,5.694,17.439,-0.884,6.587
Mon Dec 02 20:54:43 2024,225,-29.343,-29.343,-0.180,-0.180,-3.121,11.100,5.299,1.255,11.867,8.442,-7.316,3.479,5.676,17.403,-0.860,6.519
Mon Dec 02 20:54:43 2024,230,-29.318,-29.318,-0.168,-0.168,-3.100,11.154,5.322,1.294,11.882,8.438,-7.301,3.499,5.669,17.392,-0.873,6.463
Mon Dec 02 20:54:43 2024,235,-29.297,-29.297,-0.099,-0.099,-3.050,11.256,5.365,1.369,11.854,8.400,-7.245,3.529,5.669,17.399,-0.918,6.402
Mon Dec 02 20:54:43 2024,240,-29.274,-29.274,-0.077,0.077,-2.994,11.366,5.411,1.451,11.820,8.358,-7.182,3.561,5.669,17.407,-0.968,6.338
Mon Dec 02 20:54:43 2024,245,-29.303,-29.303,-0.052,0.052,-3.053,11.370,5.470,1.447,11.868,8.375,-7.108,3.739,5.748,17.519,-0.995,6.401
Mon Dec 02 20:54:43 2024,250,-29.327,-29.327,-0.036,0.036,-3.102,11.379,5.526,1.448,11.909,8.388,-7.040,3.898,5.819,17.618,-1.023,6.455
Mon Dec 02 20:54:43 2024,255,-29.323,-29.323,-0.049,0.049,-3.121,11.406,5.531,1.473,11.937,8.346,-6.960,4.043,5.832,17.702,-1.032,6.466
Mon Dec 02 20:54:43 2024,260,-29.283,-29.283,0.101,0.101,-3.105,11.460,5.477,1.530,11.953,8.232,-6.857,4.184,5.776,17.776,-1.021,6.431
Mon Dec 02 20:54:43 2024,265,-29.255,-29.255,0.124,0.124,-3.110,11.537,5.452,1.560,11.954,8.176,-6.802,4.245,5.752,17.823,-1.006,6.430
Mon Dec 02 20:54:43 2024,270,-29.226,-29.226,0.126,0.126,-3.141,11.679,5.448,1.570,11.940,8.160,-6.778,4.234,5.757,17.858,-0.976,6.472
Mon Dec 02 20:54:43 2024,275,-29.200,-29.200,0.116,0.116,-3.182,11.840,5.454,1.570,11.920,8.163,-6.772,4.190,5.774,17.886,-0.942,6.530
Mon Dec 02 20:54:43 2024,280,-29.129,-29.129,-0.062,0.062,-3.240,11.976,5.461,1.602,12.036,8.134,-6.787,4.203,5.716,17.890,-0.932,6.507
Mon Dec 02 20:54:43 2024,285,-29.048,-29.048,-0.038,-0.001,-3.294,12.080,5.470,1.643,12.193,8.096,-6.811,4.239,5.636,17.885,-0.933,6.453
Mon Dec 02 20:54:43 2024,290,-28.964,-28.964,-0.094,-0.094,-3.352,12.213,5.494,1.687,12.330,8.072,-6.811,4.311,5.587,17.881,-0.938,6.394
Mon Dec 02 20:54:43 2024,295,-28.890,-28.890,-0.124,-0.124,-3.410,12.445,5.586,1.733,12.349,8.118,-6.709,4.523,5.688,17.894,-0.951,6.324
Mon Dec 02 20:54:43 2024,300,-28.822,-28.822,-0.151,-0.151,-3.463,12.652,5.671,1.773,12.364,8.160,-6.617,4.716,5.783,17.906,-0.964,6.261
Mon Dec 02 20:54:43 2024,305,-28.758,-28.758,-0.152,-0.152,-3.453,12.756,5.734,1.849,12.319,8.171,-6.599,4.710,5.768,17.929,-1.007,6.219
Mon Dec 02 20:54:43 2024,310,-28.701,-28.701,-0.143,-0.143,-3.422,12.815,5.784,1.930,12.258,8.170,-6.609,4.636,5.714,17.956,-1.056,6.188
Mon Dec 02 20:54:43 2024,315,-28.638,-28.638,-0.141,-0.141,-3.425,12.844,5.828,1.979,12.292,8.237,-6.619,4.582,5.703,17.958,-1.089,6.156
Mon Dec 02 20:54:43 2024,320,-28.562,-28.562,-0.143,-0.143,-3.445,12.863,5.877,2.018,12.380,8.348,-6.630,4.531,5.712,17.947,-1.119,6.119
Mon Dec 02 20:54:43 2024,325,-28.501,-28.501,-0.145,-0.145,-3.471,12.867,5.913,2.037,12.481,8.458,-6.639,4.498,5.733,17.931,-1.136,6.090
Mon Dec 02 20:54:43 2024,330,-28.464,-28.464,-0.247,-0.247,-3.496,12.979,5.984,2.010,12.533,8.518,-6.627,4.570,5.805,17.997,-1.060,6.248
Mon Dec 02 20:54:43 2024,335,-28.442,-28.442,-0.346,-0.346,-3.513,13.082,6.044,1.981,12.560,8.551,-6.613,4.646,5.869,18.062,-0.988,6.405
Mon Dec 02 20:54:43 2024,340,-28.450,-28.450,-0.391,-0.391,-3.546,13.168,6.094,1.967,12.637,8.588,-6.591,4.706,5.915,18.123,-0.948,6.526
Mon Dec 02 20:54:43 2024,345,-28.510,-28.510,-0.316,-0.316,-3.592,13.185,6.103,1.987,12.769,8.614,-6.563,4.713,5.909,18.150,-0.981,6.526
Mon Dec 02 20:54:43 2024,350,-28.574,-28.574,-0.242,-0.242,-3.644,13.200,6.125,2.011,12.908,8.651,-6.538,4.718,5.911,18.173,-1.013,6.531
Mon Dec 02 20:54:43 2024,355,-28.628,-28.628,-0.226,-0.226,-3.690,13.193,6.234,2.053,12.978,8.764,-6.558,4.703,5.993,18.142,-0.994,6.565
Mon Dec 02 20:54:43 2024,360,-28.676,-28.676,-0.225,-0.225,-3.734,13.180,6.357,2.096,13.028,8.888,-6.588,4.684,6.089,18.100,-0.966,6.605
Mon Dec 02 20:54:43 2024,365,-28.698,-28.698,-0.216,-0.216,-3.719,13.204,6.426,2.113,13.028,8.969,-6.585,4.656,6.154,18.075,-0.938,6.671
Mon Dec 02 20:54:43 2024,370,-28.690,-28.690,-0.199,-0.199,-3.638,13.268,6.440,2.101,12.974,9.009,-6.546,4.617,6.188,18.065,-0.910,6.771
Mon Dec 02 20:54:43 2024,375,-28.685,-28.685,-0.182,-0.182,-3.564,13.327,6.452,2.091,12.923,9.045,-6.509,4.581,6.220,18.056,-0.884,6.864
Mon Dec 02 20:54:43 2024,380,-28.709,-28.709,-0.289,-0.289,-3.610,13.363,6.463,2.060,12.954,9.015,-6.555,4.524,6.178,18.026,-0.812,6.899
Mon Dec 02 20:54:43 2024,385,-28.732,-28.732,-0.391,-0.391,-3.663,13.388,6.472,2.032,12.990,8.982,-6.603,4.474,6.135,17.998,-0.748,6.920
Mon Dec 02 20:54:43 2024,390,-28.754,-28.754,-0.488,-0.488,-3.714,13.412,6.480,2.005,13.024,8.950,-6.650,4.427,6.094,17.972,-0.686,6.941
Mon Dec 02 20:54:43 2024,395,-28.763,-28.763,-0.542,-0.542,-3.741,13.425,6.485,1.991,13.043,8.932,-6.675,4.401,6.071,17.957,-0.653,6.952
Mon Dec 02 20:54:43 2024,400,-28.768,-28.768,-0.529,-0.529,-3.738,13.352,6.612,1.994,13.026,9.099,-6.682,4.279,6.184,17.814,-0.642,6.976
Mon Dec 02 20:54:43 2024,405,-28.778,-28.778,-0.507,-0.507,-3.732,13.242,6.801,2.001,12.998,9.346,-6.691,4.100,6.351,17.604,-0.628,7.009
Mon Dec 02 20:54:43 2024,410,-28.788,-28.788,-0.524,-0.524,-3.743,13.201,6.885,1.997,12.996,9.446,-6.708,4.009,6.414,17.504,-0.607,7.030
Mon Dec 02 20:54:43 2024,415,-28.752,-28.752,-0.573,-0.573,-3.735,13.214,6.820,1.994,12.994,9.386,-6.719,3.997,6.361,17.427,-0.482,7.028
Mon Dec 02 20:54:43 2024,420,-28.696,-28.696,-0.629,-0.629,-3.714,13.263,6.665,1.992,12.993,9.227,-6.720,4.049,6.239,17.394,-0.324,7.010
Mon Dec 02 20:54:43 2024,425,-28.654,-28.654,-0.666,-0.666,-3.693,13.307,6.538,1.967,12.960,9.084,-6.714,4.093,6.145,17.357,-0.183,6.992
Mon Dec 02 20:54:43 2024,430,-28.659,-28.659,-0.643,-0.643,-3.669,13.334,6.504,1.860,12.821,8.990,-6.684,4.116,6.133,17.307,-0.095,6.976
Mon Dec 02 20:54:43 2024,435,-28.666,-28.666,-0.621,-0.621,-3.649,13.355,6.483,1.769,12.699,8.919,-6.657,4.132,6.131,17.265,-0.030,6.964
Mon Dec 02 20:54:43 2024,440,-28.699,-28.699,-0.550,-0.550,-3.615,13.329,6.481,1.739,12.664,8.902,-6.628,4.123,6.122,17.109,0.068,6.940
Mon Dec 02 20:54:43 2024,445,-28.736,-28.736,-0.476,-0.476,-3.582,13.287,6.488,1.748,12.679,8.918,-6.605,4.105,6.113,16.940,0.154,6.917
Mon Dec 02 20:54:43 2024,450,-28.772,-28.772,-0.446,-0.446,-3.570,13.243,6.465,1.734,12.680,8.906,-6.584,4.115,6.100,16.804,0.238,6.888
Mon Dec 02 20:54:43 2024,455,-28.815,-28.815,-0.476,-0.476,-3.587,13.190,6.392,1.684,12.657,8.849,-6.561,4.169,6.080,16.696,0.336,6.844
Mon Dec 02 20:54:43 2024,460,-28.855,-28.855,-0.522,-0.522,-3.611,13.137,6.308,1.627,12.628,8.782,-6.538,4.235,6.058,16.602,0.435,6.798
Mon Dec 02 20:54:43 2024,465,-28.888,-28.888,-0.461,-0.461,-3.584,13.191,6.300,1.610,12.651,8.758,-6.524,4.219,6.021,16.450,0.605,6.781
Mon Dec 02 20:54:43 2024,470,-28.912,-28.912,-0.390,-0.390,-3.549,13.260,6.309,1.604,12.681,8.749,-6.513,4.189,5.987,16.316,0.760,6.773
Mon Dec 02 20:54:43 2024,475,-28.946,-28.946,-0.320,-0.320,-3.516,13.332,6.332,1.610,12.720,8.746,-6.496,4.191,5.972,16.183,0.903,6.766
Mon Dec 02 20:54:43 2024,480,-28.995,-28.995,-0.267,-0.267,-3.496,13.401,6.394,1.652,12.778,8.758,-6.468,4.299,6.019,16.086,0.971,6.760
Mon Dec 02 20:54:43 2024,485,-29.038,-29.038,-0.223,-0.223,-3.478,13.461,6.448,1.688,12.829,8.769,-6.443,4.393,6.061,16.000,1.030,6.755
Mon Dec 02 20:54:43 2024,490,-29.017,-29.017,-0.268,-0.268,-3.450,13.564,6.430,1.752,12.952,8.817,-6.324,4.563,6.102,15.800,1.221,6.704
Mon Dec 02 20:54:43 2024,495,-28.985,-28.985,-0.331,-0.331,-3.424,13.660,6.400,1.814,13.070,8.864,-6.204,4.726,6.139,15.604,1.413,6.650
Mon Dec 02 20:54:43 2024,500,-28.995,-28.995,-0.308,-0.308,-3.433,13.677,6.404,1.854,13.175,8.925,-6.141,4.821,6.186,15.446,1.567,6.640
Mon Dec 02 20:54:43 2024,505,-29.052,-29.052,-0.195,-0.195,-3.485,13.603,6.448,1.873,13.275,9.007,-6.139,4.848,6.252,15.313,1.694,6.681
Mon Dec 02 20:54:43 2024,510,-29.097,-29.097,-0.149,0.149,-3.524,13.541,6.483,1.883,13.342,9.065,-6.145,4.857,6.299,15.227,1.776,6.714
Mon Dec 02 20:54:43 2024,515,-29.039,-29.039,-0.175,-0.068,-3.456,13.617,6.425,1.978,13.370,9.018,-6.119,4.909,6.233,15.077,1.884,6.626
Mon Dec 02 20:54:43 2024,520,-28.967,-28.967,-0.240,-0.240,-3.372,13.713,6.354,2.084,13.388,8.958,-6.089,4.966,6.152,14.926,1.989,6.522
Mon Dec 02 20:54:43 2024,525,-28.952,-28.952,-0.272,-0.272,-3.354,13.754,6.299,2.094,13.440,8.920,-6.068,5.028,6.135,14.824,2.109,6.516
Mon Dec 02 20:54:43 2024,530,-28.994,-28.994,-0.266,-0.266,-3.397,13.755,6.240,2.010,13.546,8.894,-6.049,5.118,6.180,14.738,2.288,6.609
Mon Dec 02 20:54:43 2024,535,-29.018,-29.018,-0.270,-0.270,-3.411,13.750,6.192,1.968,13.614,8.881,-6.033,5.162,6.206,14.646,2.433,6.662
Mon Dec 02 20:54:43 2024,540,-29.002,-29.002,-0.290,-0.290,-3.344,13.708,6.180,2.050,13.569,8.922,-6.028,5.059,6.185,14.534,2.489,6.604
Mon Dec 02 20:54:43 2024,545,-28.976,-28.976,-0.319,-0.319,-3.254,13.652,6.173,2.164,13.499,8.978,-6.022,4.914,6.155,14.399,2.539,6.520
Mon Dec 02 20:54:43 2024,550,-28.998,-28.998,-0.299,-0.299,-3.230,13.631,6.165,2.193,13.446,8.998,-5.997,4.895,6.157,14.320,2.597,6.493
Mon Dec 02 20:54:43 2024,555,-29.078,-29.078,-0.222,-0.222,-3.261,13.638,6.152,2.149,13.384,8.994,-5.936,4.991,6.194,14.256,2.693,6.509
Mon Dec 02 20:54:43 2024,560,-29.149,-29.149,-0.159,-0.159,-3.287,13.643,6.141,2.111,13.326,8.991,-5.882,5.075,6.227,14.197,2.780,6.522
Mon Dec 02 20:54:43 2024,565,-29.180,-29.180,-0.166,-0.166,-3.306,13.531,5.985,2.156,13.250,8.859,-5.906,4.884,6.076,13.992,2.827,6.424
Mon Dec 02 20:54:43 2024,570,-29.215,-29.215,-0.166,-0.166,-3.325,13.439,5.857,2.187,13.180,8.750,-5.918,4.738,5.957,13.817,2.872,6.346
Mon Dec 02 20:54:43 2024,575,-29.176,-29.176,-0.174,-0.174,-3.343,13.459,5.806,2.185,13.204,8.732,-5.895,4.754,5.940,13.722,2.895,6.280
Mon Dec 02 20:54:43 2024,580,-29.096,-29.096,-0.187,-0.187,-3.361,13.538,5.794,2.165,13.278,8.763,-5.852,4.856,5.978,13.666,2.907,6.219
Mon Dec 02 20:54:43 2024,585,-29.006,-29.006,-0.209,-0.209,-3.395,13.585,5.777,2.148,13.357,8.774,-5.808,4.954,5.990,13.602,2.945,6.142
Mon Dec 02 20:54:43 2024,590,-28.902,-28.902,-0.258,-0.258,-3.456,13.578,5.748,2.136,13.438,8.750,-5.767,5.036,5.956,13.517,3.024,6.036
Mon Dec 02 20:54:43 2024,595,-28.783,-28.783,-0.326,-0.326,-3.527,13.568,5.714,2.121,13.532,8.722,-5.720,5.131,5.915,13.418,3.116,5.914
Mon Dec 02 20:54:43 2024,600,-28.718,-28.718,-0.328,-0.328,-3.543,13.643,5.692,2.145,13.580,8.655,-5.696,5.227,5.869,13.329,3.182,5.844
Mon Dec 02 20:54:43 2024,605,-28.678,-28.678,-0.310,-0.310,-3.541,13.733,5.678,2.178,13.609,8.585,-5.682,5.312,5.827,13.253,3.233,5.797
Mon Dec 02 20:54:43 2024,610,-28.634,-28.634,-0.299,-0.299,-3.551,13.784,5.643,2.219,13.650,8.531,-5.664,5.393,5.787,13.141,3.283,5.718
Mon Dec 02 20:54:43 2024,615,-28.593,-28.593,-0.313,-0.313,-3.587,13.730,5.571,2.269,13.705,8.534,-5.640,5.439,5.763,12.975,3.312,5.583
Mon Dec 02 20:54:43 2024,620,-28.555,-28.555,-0.326,-0.326,-3.623,13.676,5.501,2.318,13.759,8.537,-5.616,5.485,5.740,12.813,3.338,5.453
Mon Dec 02 20:54:43 2024,625,-28.490,-28.490,-0.395,-0.395,-3.651,13.678,5.464,2.326,13.750,8.525,-5.582,5.505,5.720,12.696,3.371,5.388
Mon Dec 02 20:54:43 2024,630,-28.420,-28.420,-0.483,-0.483,-3.675,13.695,5.437,2.324,13.724,8.509,-5.547,5.518,5.704,12.598,3.404,5.344
Mon Dec 02 20:54:43 2024,635,-28.367,-28.367,-0.569,-0.569,-3.714,13.714,5.418,2.350,13.769,8.514,-5.502,5.610,5.720,12.501,3.467,5.313
Mon Dec 02 20:54:43 2024,640,-28.356,-28.356,-0.618,-0.618,-3.758,13.728,5.416,2.408,13.897,8.545,-5.460,5.782,5.776,12.439,3.551,5.310
Mon Dec 02 20:54:43 2024,645,-28.344,-28.344,-0.670,-0.670,-3.806,13.744,5.413,2.470,14.031,8.579,-5.414,5.967,5.837,12.373,3.641,5.307
Mon Dec 02 20:54:43 2024,650,-28.280,-28.280,-0.722,-0.722,-3.710,13.798,5.346,2.512,13.898,8.494,-5.409,5.909,5.740,12.105,3.676,5.098
Mon Dec 02 20:54:43 2024,655,-28.219,-28.219,-0.766,-0.766,-3.612,13.845,5.281,2.546,13.755,8.408,-5.409,5.833,5.641,11.854,3.694,4.901
Mon Dec 02 20:54:43 2024,660,-28.181,-28.181,-0.838,-0.838,-3.568,13.860,5.251,2.537,13.674,8.385,-5.402,5.794,5.614,11.717,3.743,4.849
Mon Dec 02 20:54:43 2024,665,-28.174,-28.174,-0.916,-0.916,-3.585,13.842,5.261,2.492,13.671,8.424,-5.392,5.802,5.661,11.722,3.813,4.943
Mon Dec 02 20:54:43 2024,670,-28.166,-28.166,-1.000,-1.000,-3.602,13.823,5.272,2.444,13.668,8.466,-5.382,5.809,5.712,11.727,3.887,5.044
Mon Dec 02 20:54:43 2024,675,-28.130,-28.130,-1.100,-1.100,-3.551,13.877,5.207,2.472,13.568,8.422,-5.423,5.783,5.681,11.562,3.963,4.982
Mon Dec 02 20:54:43 2024,680,-28.100,-28.100,-1.186,-1.186,-3.508,13.923,5.151,2.494,13.482,8.384,-5.458,5.760,5.656,11.420,4.028,4.931
Mon Dec 02 20:54:43 2024,685,-28.122,-28.122,-1.183,-1.183,-3.474,13.888,5.115,2.474,13.389,8.344,-5.473,5.725,5.647,11.315,4.056,4.930
Mon Dec 02 20:54:43 2024,690,-28.184,-28.184,-1.114,-1.114,-3.449,13.791,5.095,2.419,13.291,8.301,-5.472,5.679,5.652,11.241,4.054,4.968
Mon Dec 02 20:54:43 2024,695,-28.228,-28.228,-1.078,-1.078,-3.429,13.732,5.073,2.373,13.221,8.257,-5.474,5.677,5.658,11.179,4.096,5.007
Mon Dec 02 20:54:43 2024,700,-28.212,-28.212,-1.165,-1.165,-3.427,13.813,5.036,2.351,13.255,8.199,-5.487,5.848,5.671,11.156,4.327,5.055
Mon Dec 02 20:54:43 2024,705,-28.191,-28.191,-1.267,-1.267,-3.425,13.907,4.996,2.329,13.298,8.136,-5.502,6.039,5.687,11.132,4.583,5.108
Mon Dec 02 20:54:43 2024,710,-28.208,-28.208,-1.321,-1.321,-3.398,13.942,5.070,2.311,13.203,8.157,-5.546,5.991,5.722,11.077,4.630,5.139
Mon Dec 02 20:54:43 2024,715,-28.239,-28.239,-1.342,-1.342,-3.365,13.942,5.180,2.298,13.065,8.211,-5.593,5.845,5.760,11.018,4.570,5.155
Mon Dec 02 20:54:43 2024,720,-28.254,-28.254,-1.366,-1.366,-3.339,13.934,5.248,2.281,12.965,8.242,-5.620,5.751,5.782,10.954,4.533,5.155
Mon Dec 02 20:54:43 2024,725,-28.216,-28.216,-1.404,-1.404,-3.337,13.890,5.159,2.252,12.999,8.186,-5.574,5.855,5.745,10.855,4.580,5.089
Mon Dec 02 20:54:43 2024,730,-28.180,-28.180,-1.440,-1.440,-3.335,13.848,5.075,2.223,13.031,8.132,-5.530,5.953,5.710,10.762,4.625,5.028
Mon Dec 02 20:54:43 2024,735,-28.230,-28.230,-1.415,-1.415,-3.297,13.887,5.082,2.201,12.998,8.092,-5.529,5.955,5.701,10.820,4.634,5.083
Mon Dec 02 20:54:43 2024,740,-28.300,-28.300,-1.374,-1.374,-3.257,13.946,5.124,2.189,12.948,8.071,-5.547,5.916,5.704,10.921,4.625,5.170
Mon Dec 02 20:54:43 2024,745,-28.358,-28.358,-1.361,-1.361,-3.218,14.005,5.162,2.180,12.894,8.052,-5.552,5.910,5.719,11.020,4.618,5.241
Mon Dec 02 20:54:43 2024,750,-28.350,-28.350,-1.423,-1.423,-3.205,14.029,5.169,2.181,12.865,8.047,-5.522,5.983,5.754,11.054,4.622,5.231
Mon Dec 02 20:54:43 2024,755,-28.343,-28.343,-1.482,-1.482,-3.193,14.052,5.175,2.182,12.837,8.043,-5.494,6.052,5.786,11.086,4.627,5.223
Mon Dec 02 20:54:43 2024,760,-28.404,-28.404,-1.492,-1.492,-3.188,13.905,5.173,2.144,12.744,8.083,-5.502,6.001,5.860,11.100,4.539,5.275
Mon Dec 02 20:54:43 2024,765,-28.498,-28.498,-1.487,-1.487,-3.183,13.676,5.167,2.089,12.616,8.143,-5.523,5.900,5.958,11.111,4.405,5.355
Mon Dec 02 20:54:43 2024,770,-28.544,-28.544,-1.503,-1.503,-3.166,13.551,5.138,2.064,12.538,8.138,-5.555,5.796,5.959,11.116,4.347,5.391
Mon Dec 02 20:54:43 2024,775,-28.539,-28.539,-1.558,-1.558,-3.123,13.532,5.064,2.076,12.505,8.037,-5.617,5.647,5.819,11.114,4.379,5.376
Mon Dec 02 20:54:43 2024,780,-28.543,-28.543,-1.592,-1.592,-3.104,13.503,5.012,2.073,12.492,7.960,-5.666,5.539,5.708,11.107,4.394,5.354
Mon Dec 02 20:54:43 2024,785,-28.579,-28.579,-1.559,-1.559,-3.164,13.431,5.025,2.014,12.549,7.949,-5.679,5.546,5.670,11.084,4.352,5.302
Mon Dec 02 20:54:43 2024,790,-28.632,-28.632,-1.493,-1.493,-3.264,13.334,5.070,1.925,12.641,7.968,-5.679,5.605,5.660,11.052,4.282,5.234
Mon Dec 02 20:54:43 2024,795,-28.663,-28.663,-1.478,-1.478,-3.262,13.332,5.105,1.891,12.656,7.978,-5.664,5.624,5.665,11.086,4.226,5.218
Mon Dec 02 20:54:43 2024,800,-28.665,-28.665,-1.520,-1.520,-3.159,13.428,5.122,1.920,12.591,7.976,-5.638,5.597,5.685,11.177,4.201,5.260
Mon Dec 02 20:54:43 2024,805,-28.667,-28.667,-1.553,-1.553,-3.074,13.505,5.136,1.944,12.538,7.974,-5.617,5.575,5.701,11.252,4.180,5.295
Mon Dec 02 20:54:43 2024,810,-28.671,-28.671,-1.522,-1.522,-3.049,13.406,5.060,1.961,12.537,7.939,-5.607,5.519,5.632,11.293,4.160,5.253
Mon Dec 02 20:54:43 2024,815,-28.674,-28.674,-1.496,-1.496,-3.037,13.325,5.001,1.972,12.541,7.912,-5.599,5.478,5.579,11.319,4.147,5.220
Mon Dec 02 20:54:43 2024,820,-28.698,-28.698,-1.458,-1.458,-3.034,13.250,4.970,1.970,12.436,7.869,-5.617,5.416,5.562,11.304,4.127,5.215
Mon Dec 02 20:54:43 2024,825,-28.726,-28.726,-1.420,-1.420,-3.036,13.184,4.949,1.965,12.304,7.825,-5.641,5.352,5.559,11.277,4.107,5.219
Mon Dec 02 20:54:43 2024,830,-28.752,-28.752,-1.389,-1.389,-3.041,13.138,4.941,1.958,12.181,7.789,-5.664,5.300,5.566,11.246,4.090,5.230
Mon Dec 02 20:54:43 2024,835,-28.776,-28.776,-1.384,-1.384,-3.100,13.102,4.952,1.872,12.140,7.754,-5.702,5.283,5.532,11.194,4.147,5.197
Mon Dec 02 20:54:43 2024,840,-28.797,-28.797,-1.380,-1.380,-3.156,13.068,4.962,1.792,12.104,7.723,-5.738,5.268,5.500,11.146,4.200,5.167
Mon Dec 02 20:54:43 2024,845,-28.795,-28.795,-1.363,-1.363,-3.174,13.077,4.961,1.762,12.107,7.703,-5.731,5.302,5.493,11.174,4.216,5.162
Mon Dec 02 20:54:43 2024,850,-28.772,-28.772,-1.329,-1.329,-3.163,13.126,4.949,1.769,12.148,7.689,-5.683,5.389,5.506,11.275,4.202,5.178
Mon Dec 02 20:54:43 2024,855,-28.759,-28.759,-1.289,-1.289,-3.151,13.153,4.950,1.784,12.180,7.687,-5.647,5.442,5.509,11.347,4.182,5.181
Mon Dec 02 20:54:43 2024,860,-28.760,-28.760,-1.222,-1.222,-3.126,13.141,4.978,1.828,12.206,7.714,-5.624,5.435,5.491,11.375,4.138,5.161
Mon Dec 02 20:54:43 2024,865,-28.763,-28.763,-1.165,-1.165,-3.104,13.128,5.004,1.866,12.228,7.740,-5.606,5.424,5.475,11.396,4.101,5.141
Mon Dec 02 20:54:43 2024,870,-28.786,-28.786,-1.080,-1.080,-3.109,13.153,5.047,1.849,12.162,7.706,-5.632,5.408,5.467,11.419,4.063,5.135
Mon Dec 02 20:54:43 2024,875,-28.825,-28.825,-0.976,-0.976,-3.134,13.209,5.103,1.788,12.026,7.626,-5.694,5.386,5.466,11.442,4.027,5.140
Mon Dec 02 20:54:43 2024,880,-28.848,-28.848,-0.887,-0.887,-3.143,13.221,5.128,1.754,11.968,7.587,-5.719,5.393,5.468,11.463,4.017,5.147
Mon Dec 02 20:54:43 2024,885,-28.862,-28.862,-0.743,-0.743,-3.127,13.158,5.114,1.739,12.007,7.594,-5.696,5.459,5.480,11.498,4.051,5.170
Mon Dec 02 20:54:43 2024,890,-28.870,-28.870,-0.637,-0.637,-3.107,13.119,5.111,1.743,12.037,7.607,-5.684,5.467,5.478,11.530,4.052,5.186
Mon Dec 02 20:54:43 2024,895,-28.876,-28.876,-0.504,-0.504,-3.074,13.085,5.120,1.764,12.067,7.627,-5.683,5.421,5.462,11.579,4.021,5.208
Mon Dec 02 20:54:43 2024,900,-28.883,-28.883,-0.370,-0.370,-3.042,13.050,5.128,1.786,12.097,7.648,-5.682,5.375,5.445,11.628,3.989,5.229
Mon Dec 02 20:54:43 2024,905,-28.861,-28.861,-0.255,-0.097,-3.013,13.041,5.145,1.806,12.140,7.658,-5.692,5.370,5.426,11.665,3.962,5.217
Mon Dec 02 20:54:43 2024,910,-28.756,-28.756,-0.232,0.232,-2.998,13.112,5.186,1.822,12.219,7.635,-5.735,5.488,5.400,11.662,3.947,5.104
Mon Dec 02 20:54:43 2024,915,-28.674,-28.674,-0.262,0.262,-2.983,13.169,5.221,1.837,12.288,7.619,-5.771,5.581,5.376,11.663,3.932,5.011
Mon Dec 02 20:54:43 2024,920,-28.564,-28.564,-0.313,0.313,-2.921,13.156,5.239,1.824,12.210,7.616,-5.766,5.579,5.398,11.768,3.920,5.088
Mon Dec 02 20:54:43 2024,925,-28.454,-28.454,-0.381,0.381,-2.854,13.132,5.253,1.806,12.114,7.616,-5.756,5.564,5.425,11.882,3.908,5.188
Mon Dec 02 20:54:43 2024,930,-28.368,-28.368,-0.443,0.443,-2.800,13.113,5.265,1.794,12.037,7.615,-5.747,5.552,5.447,11.976,3.897,5.269
Mon Dec 02 20:54:43 2024,935,-27.926,-27.926,-0.452,0.452,-2.811,13.011,5.295,1.755,12.236,7.768,-5.844,5.514,5.513,12.092,3.928,5.358
Mon Dec 02 20:54:43 2024,940,-27.642,-27.642,-0.474,0.474,-2.807,12.944,5.317,1.729,12.341,7.863,-5.901,5.487,5.559,12.184,3.942,5.430
Mon Dec 02 20:54:43 2024,945,-27.253,-27.253,0.359,0.746,-2.783,12.898,5.407,1.757,12.343,7.886,-5.899,5.544,5.592,12.310,3.902,5.482
Mon Dec 02 20:54:43 2024,950,-26.822,-26.822,1.149,1.149,-2.750,12.870,5.528,1.812,12.312,7.882,-5.875,5.632,5.620,12.449,3.840,5.523
Mon Dec 02 20:54:43 2024,955,-26.447,-26.447,1.529,1.529,-2.717,12.873,5.634,1.859,12.347,7.915,-5.877,5.684,5.648,12.564,3.795,5.555
Mon Dec 02 20:54:43 2024,960,-26.054,-26.054,1.965,1.965,-2.680,12.902,5.749,1.915,12.426,7.975,-5.894,5.722,5.678,12.679,3.752,5.584
Mon Dec 02 20:54:43 2024,965,-25.715,-25.715,2.415,2.415,-2.656,12.901,5.850,1.961,12.515,8.026,-5.908,5.761,5.697,12.784,3.713,5.608
Mon Dec 02 20:54:43 2024,970,-25.433,-25.433,3.152,3.152,-2.702,12.694,5.917,1.980,12.668,8.035,-5.883,5.858,5.673,12.908,3.664,5.626
Mon Dec 02 20:54:43 2024,975,-25.219,-25.219,3.842,3.842,-2.752,12.483,5.969,1.992,12.808,8.035,-5.856,5.950,5.645,13.016,3.620,5.642
Mon Dec 02 20:54:43 2024,980,-25.050,-25.050,4.364,4.364,-2.764,12.434,6.030,2.022,12.930,8.060,-5.810,6.100,5.699,13.161,3.626,5.746
Mon Dec 02 20:54:43 2024,985,-24.889,-24.889,4.798,4.798,-2.737,12.554,6.112,2.078,13.051,8.117,-5.735,6.342,5.852,13.374,3.685,5.966
Mon Dec 02 20:54:43 2024,990,-24.760,-24.760,5.195,5.195,-2.720,12.633,6.182,2.122,13.157,8.162,-5.676,6.539,5.971,13.545,3.722,6.144
Mon Dec 02 20:54:43 2024,995,-24.726,-24.726,5.822,5.822,-2.700,12.610,6.273,2.229,13.155,8.153,-5.565,6.645,6.021,13.745,3.577,6.216
Mon Dec 02 20:54:44 2024,0,-24.718,-24.718,6.434,6.434,-2.682,12.591,6.361,2.330,13.155,8.147,-5.460,6.749,6.072,13.936,3.444,6.290
Mon Dec 02 20:54:44 2024,5,-24.690,-24.690,6.908,6.908,-2.739,12.486,6.442,2.352,13.119,8.150,-5.475,6.691,6.082,14.024,3.346,6.302
Mon Dec 02 20:54:44 2024,10,-24.656,-24.656,7.332,7.332,-2.832,12.341,6.524,2.342,13.068,8.158,-5.540,6.562,6.073,14.070,3.264,6.288
Mon Dec 02 20:54:44 2024,15,-24.619,-24.619,7.708,7.708,-2.902,12.204,6.605,2.347,13.018,8.184,-5.589,6.430,6.072,14.130,3.177,6.285
Mon Dec 02 20:54:44 2024,20,-24.542,-24.542,7.813,7.813,-2.872,12.107,6.683,2.422,12.981,8.288,-5.562,6.294,6.105,14.242,3.077,6.334
Mon Dec 02 20:54:44 2024,25,-24.505,-24.505,7.909,7.909,-2.845,12.023,6.750,2.486,12.948,8.378,-5.538,6.178,6.133,14.338,2.990,6.377
Mon Dec 02 20:54:44 2024,30,-24.549,-24.549,8.119,8.119,-2.822,11.937,6.882,2.506,12.933,8.440,-5.480,6.229,6.208,14.455,2.913,6.439
Mon Dec 02 20:54:44 2024,35,-24.650,-24.650,8.346,8.346,-2.805,11.863,7.019,2.504,12.926,8.481,-5.417,6.341,6.292,14.562,2.852,6.500
Mon Dec 02 20:54:44 2024,40,-24.692,-24.692,8.458,8.458,-2.742,11.821,7.141,2.552,12.847,8.549,-5.356,6.355,6.383,14.668,2.798,6.573
Mon Dec 02 20:54:44 2024,45,-24.634,-24.634,8.412,8.412,-2.634,11.822,7.226,2.654,12.690,8.639,-5.305,6.249,6.472,14.759,2.761,6.652
Mon Dec 02 20:54:44 2024,50,-24.602,24.602,8.359,8.359,-2.506,11.821,7.328,2.776,12.504,8.747,-5.243,6.123,6.577,14.865,2.717,6.744
Mon Dec 02 20:54:44 2024,55,-24.679,24.679,8.078,8.078,-2.472,11.800,7.400,2.823,12.442,8.836,-5.192,6.072,6.652,14.992,2.670,6.832
Mon Dec 02 20:54:44 2024,60,-24.802,24.802,7.778,7.778,-2.448,11.778,7.470,2.864,12.390,8.924,-5.143,6.029,6.724,15.119,2.623,6.918
Mon Dec 02 20:54:44 2024,65,-24.938,24.938,7.404,7.404,-2.419,11.751,7.524,2.902,12.358,8.997,-5.100,6.020,6.777,15.213,2.577,6.937
Mon Dec 02 20:54:44 2024,70,-25.090,25.090,6.792,6.792,-2.377,11.708,7.562,2.944,12.357,9.056,-5.059,6.081,6.802,15.259,2.527,6.825
Mon Dec 02 20:54:44 2024,75,-25.245,25.245,6.296,6.296,-2.343,11.673,7.592,2.979,12.356,9.104,-5.026,6.130,6.822,15.296,2.486,6.734
Mon Dec 02 20:54:44 2024,80,-25.415,25.415,6.199,6.199,-2.391,11.543,7.539,2.952,12.410,9.122,-5.088,6.028,6.786,15.324,2.529,6.784
Mon Dec 02 20:54:44 2024,85,-25.579,25.579,6.155,6.155,-2.445,11.410,7.480,2.921,12.467,9.136,-5.158,5.914,6.745,15.350,2.579,6.847
Mon Dec 02 20:54:44 2024,90,-25.791,25.791,6.132,6.132,-2.443,11.351,7.468,2.926,12.476,9.152,-5.187,5.862,6.741,15.375,2.568,6.880
Mon Dec 02 20:54:44 2024,95,-25.978,25.978,6.131,6.131,-2.398,11.366,7.495,2.958,12.445,9.165,-5.176,5.873,6.766,15.394,2.514,6.881
Mon Dec 02 20:54:44 2024,100,-26.187,26.187,6.127,6.127,-2.354,11.386,7.525,2.994,12.420,9.189,-5.172,5.874,6.793,15.420,2.450,6.876
Mon Dec 02 20:54:44 2024,105,-26.238,26.238,6.104,6.104,-2.373,11.415,7.535,3.000,12.471,9.249,-5.219,5.799,6.789,15.464,2.402,6.843
Mon Dec 02 20:54:44 2024,110,-26.279,26.279,6.080,6.080,-2.396,11.444,7.543,3.005,12.525,9.310,-5.268,5.723,6.785,15.508,2.357,6.809
Mon Dec 02 20:54:44 2024,115,-26.303,26.303,6.133,6.133,-2.335,11.495,7.503,3.057,12.493,9.287,-5.237,5.700,6.772,15.548,2.313,6.793
Mon Dec 02 20:54:44 2024,120,-26.313,26.313,6.230,6.230,-2.226,11.550,7.438,3.132,12.406,9.211,-5.157,5.719,6.756,15.580,2.278,6.793
Mon Dec 02 20:54:44 2024,125,-26.315,26.315,6.305,6.305,-2.141,11.589,7.392,3.195,12.324,9.153,-5.092,5.731,6.749,15.600,2.247,6.786
Mon Dec 02 20:54:44 2024,130,-26.280,26.280,6.244,6.244,-2.202,11.541,7.456,3.170,12.294,9.199,-5.124,5.707,6.785,15.558,2.246,6.749
Mon Dec 02 20:54:44 2024,135,-26.237,26.237,6.168,6.168,-2.280,11.478,7.539,3.139,12.254,9.257,-5.164,5.677,6.831,15.505,2.244,6.702
Mon Dec 02 20:54:44 2024,140,-26.190,26.190,6.030,6.030,-2.284,11.547,7.593,3.147,12.282,9.297,-5.164,5.700,6.840,15.541,2.242,6.701
Mon Dec 02 20:54:44 2024,145,-26.127,26.127,5.817,5.817,-2.258,11.696,7.654,3.174,12.349,9.342,-5.146,5.752,6.838,15.629,2.238,6.718
Mon Dec 02 20:54:44 2024,150,-26.069,26.069,5.578,5.578,-2.254,11.825,7.672,3.216,12.454,9.375,-5.114,5.829,6.822,15.692,2.253,6.706
Mon Dec 02 20:54:44 2024,155,-26.021,26.021,5.287,5.287,-2.297,11.901,7.583,3.291,12.646,9.376,-5.053,5.965,6.777,15.693,2.321,6.626
Mon Dec 02 20:54:44 2024,160,-25.970,25.970,4.962,4.962,-2.346,11.986,7.483,3.375,12.855,9.377,-4.984,6.115,6.727,15.694,2.395,6.537
Mon Dec 02 20:54:44 2024,165,-25.986,25.986,4.749,4.749,-2.378,12.051,7.555,3.438,12.941,9.486,-4.949,6.139,6.754,15.691,2.391,6.526
Mon Dec 02 20:54:44 2024,170,-26.023,26.023,4.580,4.580,-2.404,12.107,7.681,3.492,12.984,9.628,-4.927,6.120,6.806,15.687,2.362,6.542
Mon Dec 02 20:54:44 2024,175,-26.034,26.034,4.471,4.471,-2.422,12.135,7.741,3.546,13.047,9.713,-4.912,6.112,6.820,15.689,2.336,6.527
Mon Dec 02 20:54:44 2024,180,-25.981,25.981,4.447,4.447,-2.434,12.110,7.669,3.632,13.192,9.708,-4.908,6.124,6.746,15.708,2.300,6.426
Mon Dec 02 20:54:44 2024,185,-25.928,25.928,4.424,4.424,-2.447,12.086,7.596,3.714,13.330,9.702,-4.906,6.137,6.672,15.726,2.268,6.327
Mon Dec 02 20:54:44 2024,190,-25.874,25.874,4.409,4.409,-2.529,12.065,7.518,3.651,13.395,9.649,-4.949,6.142,6.627,15.668,2.342,6.320
Mon Dec 02 20:54:44 2024,195,-25.814,25.814,4.396,4.396,-2.634,12.041,7.431,3.554,13.451,9.582,-5.004,6.147,6.582,15.588,2.445,6.330
Mon Dec 02 20:54:44 2024,200,-25.797,25.797,4.357,4.357,-2.697,12.043,7.393,3.494,13.475,9.545,-5.054,6.150,6.555,15.544,2.500,6.321
Mon Dec 02 20:54:44 2024,205,-25.854,25.854,4.276,4.276,-2.682,12.093,7.443,3.502,13.444,9.564,-5.089,6.150,6.560,15.563,2.470,6.277
Mon Dec 02 20:54:44 2024,210,-25.920,25.920,4.183,4.183,-2.664,12.148,7.500,3.512,13.408,9.587,-5.129,6.148,6.564,15.585,2.433,6.227
Mon Dec 02 20:54:44 2024,215,-25.939,25.939,4.202,4.202,-2.657,12.088,7.490,3.559,13.423,9.613,-5.119,6.082,6.538,15.591,2.391,6.210
Mon Dec 02 20:54:44 2024,220,-25.960,25.960,4.222,4.222,-2.650,12.026,7.480,3.606,13.438,9.638,-5.110,6.014,6.511,15.597,2.347,6.192
Mon Dec 02 20:54:44 2024,225,-26.002,26.002,4.182,4.182,-2.652,11.995,7.486,3.641,13.424,9.630,-5.094,6.005,6.488,15.590,2.315,6.150
Mon Dec 02 20:54:44 2024,230,-26.052,26.052,4.106,4.106,-2.661,11.992,7.504,3.661,13.392,9.599,-5.077,6.039,6.472,15.575,2.298,6.097
Mon Dec 02 20:54:44 2024,235,-26.108,26.108,4.023,4.023,-2.671,11.989,7.524,3.682,13.357,9.564,-5.059,6.077,6.455,15.559,2.279,6.039
Mon Dec 02 20:54:44 2024,240,-26.125,26.125,3.989,3.989,-2.613,11.989,7.438,3.677,13.313,9.523,-5.069,5.953,6.403,15.529,2.315,6.061
Mon Dec 02 20:54:44 2024,245,-26.139,26.139,3.963,3.963,-2.562,11.989,7.363,3.671,13.277,9.489,-5.078,5.844,6.360,15.503,2.347,6.083
Mon Dec 02 20:54:44 2024,250,-26.351,26.351,3.907,3.907,-2.489,12.043,7.305,3.739,13.285,9.460,-5.014,5.913,6.339,15.531,2.340,6.075
Mon Dec 02 20:54:44 2024,255,-26.648,26.648,3.845,3.845,-2.420,12.120,7.276,3.840,13.321,9.443,-4.914,6.091,6.341,15.590,2.307,6.048
Mon Dec 02 20:54:44 2024,260,-26.915,26.915,3.789,3.789,-2.358,12.189,7.250,3.931,13.351,9.428,-4.824,6.252,6.343,15.643,2.277,6.024
Mon Dec 02 20:54:44 2024,265,-27.231,27.231,3.878,3.878,-2.408,12.242,7.160,3.919,13.341,9.280,-4.879,6.149,6.200,15.565,2.254,5.849
Mon Dec 02 20:54:44 2024,270,-27.483,27.483,3.949,3.949,-2.446,12.284,7.089,3.911,13.334,9.163,-4.921,6.069,6.087,15.503,2.235,5.712
Mon Dec 02 20:54:44 2024,275,-27.812,27.812,4.003,4.003,-2.430,12.328,7.034,3.948,13.345,9.134,-4.890,6.078,6.079,15.520,2.214,5.719
Mon Dec 02 20:54:44 2024,280,-28.184,28.184,4.049,4.049,-2.384,12.374,6.986,4.011,13.366,9.157,-4.816,6.141,6.134,15.584,2.190,5.810
Mon Dec 02 20:54:44 2024,285,-28.499,28.499,4.087,4.087,-2.346,12.413,6.946,4.065,13.383,9.176,-4.752,6.194,6.181,15.638,2.170,5.888
Mon Dec 02 20:54:44 2024,290,-28.623,28.623,4.070,4.070,-2.377,12.392,6.891,4.032,13.371,9.099,-4.816,6.115,6.109,15.587,2.178,5.820
Mon Dec 02 20:54:44 2024,295,-28.775,28.775,4.057,4.057,-2.404,12.376,6.834,4.006,13.361,9.028,-4.870,6.046,6.045,15.545,2.183,5.763
Mon Dec 02 20:54:44 2024,300,-28.873,28.873,4.004,4.004,-2.367,12.405,6.902,4.045,13.302,9.034,-4.890,6.024,6.061,15.574,2.131,5.782
Mon Dec 02 20:54:44 2024,305,-28.944,28.944,3.947,3.947,-2.317,12.443,6.999,4.098,13.236,9.062,-4.896,6.019,6.099,15.621,2.070,5.820
Mon Dec 02 20:54:44 2024,310,-28.998,28.998,3.903,3.903,-2.278,12.471,7.073,4.138,13.186,9.084,-4.901,6.014,6.127,15.657,2.023,5.850
Mon Dec 02 20:54:44 2024,315,-29.075,29.075,3.877,3.877,-2.264,12.444,7.002,4.087,13.162,9.050,-4.950,5.918,6.084,15.585,2.048,5.804
Mon Dec 02 20:54:44 2024,320,-29.141,29.141,3.851,3.851,-2.249,12.425,6.954,4.052,13.136,9.026,-4.988,5.841,6.052,15.533,2.063,5.771
Mon Dec 02 20:54:44 2024,325,-29.220,29.220,3.731,3.731,-2.225,12.352,7.008,4.022,13.058,9.059,-4.945,5.865,6.128,15.564,2.068,5.836
Mon Dec 02 20:54:44 2024,330,-29.310,29.310,3.577,3.577,-2.198,12.258,7.092,3.993,12.959,9.110,-4.878,5.916,6.237,15.616,2.070,5.932
Mon Dec 02 20:54:44 2024,335,-29.378,29.378,3.460,3.460,-2.177,12.187,7.156,3.970,12.883,9.147,-4.828,5.955,6.319,15.656,2.072,6.003
Mon Dec 02 20:54:44 2024,340,-29.340,29.340,3.547,3.547,-2.067,12.181,7.009,3.937,12.762,8.984,-4.928,5.744,6.177,15.626,2.038,5.930
Mon Dec 02 20:54:44 2024,345,-29.330,29.330,3.582,3.582,-1.988,12.160,6.923,3.910,12.662,8.882,-4.985,5.609,6.098,15.613,2.015,5.896
Mon Dec 02 20:54:44 2024,350,-29.427,29.427,3.514,3.514,-1.958,12.216,7.036,3.921,12.664,8.927,-4.941,5.693,6.152,15.649,1.972,5.894
Mon Dec 02 20:54:44 2024,355,-29.549,29.549,3.425,3.425,-1.938,12.288,7.188,3.940,12.684,9.001,-4.877,5.819,6.231,15.694,1.925,5.900
Mon Dec 02 20:54:44 2024,360,-29.559,29.559,3.331,3.331,-1.923,12.216,7.258,3.940,12.653,9.084,-4.871,5.813,6.304,15.742,1.907,5.952
Mon Dec 02 20:54:44 2024,365,-29.459,29.459,3.215,3.215,-1.907,11.986,7.262,3.920,12.563,9.191,-4.920,5.677,6.384,15.802,1.914,6.059
Mon Dec 02 20:54:44 2024,370,-29.366,29.366,3.104,3.104,-1.892,11.769,7.266,3.903,12.477,9.292,-4.967,5.547,6.460,15.858,1.920,6.162
Mon Dec 02 20:54:44 2024,375,-29.296,29.296,3.020,3.020,-1.879,11.603,7.268,3.890,12.410,9.369,-5.002,5.449,6.518,15.900,1.924,6.239
Mon Dec 02 20:54:44 2024,380,-29.397,29.397,3.172,3.172,-1.820,11.865,7.260,3.916,12.517,9.174,-4.872,5.637,6.380,16.012,1.912,6.227
Mon Dec 02 20:54:44 2024,385,-29.380,29.380,2.995,2.995,-1.751,11.895,7.347,3.905,12.476,9.199,-4.829,5.653,6.392,16.099,1.870,6.229
Mon Dec 02 20:54:44 2024,390,-29.328,29.328,2.610,2.610,-1.658,11.891,7.518,3.878,12.373,9.315,-4.801,5.630,6.460,16.186,1.796,6.201
Mon Dec 02 20:54:44 2024,395,-29.293,29.293,2.320,2.320,-1.586,11.887,7.647,3.856,12.293,9.403,-4.779,5.612,6.513,16.252,1.739,6.180
Mon Dec 02 20:54:44 2024,400,-29.263,29.263,2.128,2.128,-1.532,11.840,7.768,3.838,12.253,9.524,-4.724,5.677,6.628,16.355,1.716,6.326
Mon Dec 02 20:54:44 2024,405,-29.241,29.241,2.088,2.088,-1.504,11.747,7.859,3.827,12.267,9.666,-4.636,5.835,6.803,16.487,1.736,6.657
Mon Dec 02 20:54:44 2024,410,-29.246,29.246,2.111,2.111,-1.453,11.612,7.922,3.810,12.211,9.789,-4.595,5.832,6.926,16.553,1.743,6.849
Mon Dec 02 20:54:44 2024,415,-29.305,29.305,2.372,2.372,-1.388,11.374,7.902,3.789,12.078,9.884,-4.615,5.615,6.998,16.520,1.768,6.930
Mon Dec 02 20:54:44 2024,420,-29.348,29.348,2.549,2.549,-1.338,11.201,7.896,3.774,11.982,9.962,-4.622,5.473,7.059,16.508,1.785,7.005
Mon Dec 02 20:54:44 2024,425,-29.398,29.398,3.003,3.003,-1.358,11.264,7.927,3.821,12.036,9.933,-4.614,5.548,7.086,16.615,1.768,7.048
Mon Dec 02 20:54:44 2024,430,-29.445,29.445,3.380,3.380,-1.373,11.314,7.952,3.860,12.078,9.909,-4.606,5.608,7.108,16.704,1.753,7.084
Mon Dec 02 20:54:44 2024,435,-29.527,29.527,3.922,3.922,-1.362,11.210,7.961,3.903,12.011,9.964,-4.554,5.559,7.200,16.795,1.687,7.174
Mon Dec 02 20:54:44 2024,440,-29.653,29.653,4.666,4.666,-1.335,11.001,7.961,3.957,11.870,10.072,-4.468,5.439,7.349,16.907,1.581,7.309
Mon Dec 02 20:54:44 2024,445,-29.773,29.773,5.322,5.322,-1.310,10.819,7.962,4.004,11.747,10.167,-4.392,5.334,7.480,17.005,1.488,7.429
Mon Dec 02 20:54:44 2024,450,-29.500,29.500,6.490,6.490,-1.281,10.808,8.080,3.958,11.790,10.188,-4.328,5.492,7.548,17.056,1.459,7.495
Mon Dec 02 20:54:44 2024,455,-29.272,29.272,7.648,7.648,-1.250,10.773,8.188,3.922,11.813,10.220,-4.260,5.622,7.628,17.115,1.421,7.572
Mon Dec 02 20:54:44 2024,460,-29.069,29.069,8.580,8.580,-1.338,10.707,8.080,3.862,11.996,10.213,-4.286,5.745,7.664,17.121,1.536,7.727
Mon Dec 02 20:54:44 2024,465,-28.883,28.883,9.462,9.462,-1.455,10.631,7.917,3.794,12.222,10.195,-4.338,5.865,7.688,17.111,1.687,7.907
Mon Dec 02 20:54:44 2024,470,-28.773,28.773,10.215,10.215,-1.542,10.535,7.775,3.731,12.354,10.208,-4.347,5.959,7.750,17.131,1.794,8.105
Mon Dec 02 20:54:44 2024,475,-28.875,28.875,10.632,10.632,-1.545,10.359,7.676,3.674,12.200,10.324,-4.216,5.986,7.946,17.257,1.790,8.391
Mon Dec 02 20:54:44 2024,480,-28.982,28.982,11.068,11.068,-1.553,10.200,7.578,3.622,12.074,10.424,-4.104,6.017,8.121,17.363,1.791,8.652
Mon Dec 02 20:54:44 2024,485,-29.649,29.649,11.741,11.741,-1.512,10.089,7.585,3.587,11.958,10.577,-4.041,6.053,8.249,17.425,1.750,8.688
Mon Dec 02 20:54:44 2024,490,-30.469,30.469,12.476,12.476,-1.460,9.987,7.612,3.557,11.842,10.742,-3.987,6.091,8.369,17.479,1.699,8.678
Mon Dec 02 20:54:44 2024,495,-31.223,31.223,13.129,13.129,-1.413,9.897,7.637,3.530,11.738,10.887,-3.940,6.125,8.475,17.527,1.654,8.669
Mon Dec 02 20:54:44 2024,500,-31.995,31.995,14.567,14.567,-1.608,9.351,7.818,3.489,11.694,11.218,-4.194,5.793,8.682,17.221,1.996,9.022
Mon Dec 02 20:54:44 2024,505,-32.809,32.809,15.844,15.844,-1.740,8.906,7.962,3.453,11.631,11.510,-4.372,5.547,8.867,16.999,2.244,9.288
Mon Dec 02 20:54:44 2024,510,-33.275,33.275,17.667,17.667,-1.850,8.371,8.104,3.445,11.211,11.504,-4.504,5.082,8.883,16.862,2.379,9.521
Mon Dec 02 20:54:44 2024,515,-33.614,33.614,19.182,19.182,-1.937,7.935,8.215,3.442,10.836,11.468,-4.603,4.690,8.878,16.761,2.475,9.704
Mon Dec 02 20:54:44 2024,520,-33.968,33.968,20.690,20.690,-1.944,7.607,8.319,3.470,10.528,11.474,-4.611,4.436,8.975,16.799,2.394,9.868
Mon Dec 02 20:54:44 2024,525,-34.390,34.390,22.424,22.424,-1.850,7.374,8.428,3.540,10.266,11.536,-4.500,4.326,9.220,17.024,2.066,10.032
Mon Dec 02 20:54:44 2024,530,-34.768,34.768,24.000,24.000,-1.769,7.163,8.524,3.600,10.032,11.588,-4.406,4.224,9.433,17.220,1.780,10.180
Mon Dec 02 20:54:44 2024,535,-35.328,35.328,24.937,24.937,-1.782,7.256,8.439,3.628,10.260,11.526,-4.196,4.490,9.417,17.479,1.530,10.067
Mon Dec 02 20:54:44 2024,540,-35.824,35.824,25.752,25.752,-1.794,7.341,8.363,3.653,10.462,11.471,-4.013,4.724,9.400,17.703,1.316,9.965
Mon Dec 02 20:54:44 2024,545,-36.334,36.334,26.368,26.368,-1.826,7.520,8.231,3.666,10.693,11.351,-3.877,4.999,9.329,17.862,1.191,9.862
Mon Dec 02 20:54:44 2024,550,-36.769,36.769,26.299,26.299,-1.902,7.910,7.980,3.647,10.959,11.080,-3.886,5.334,9.126,17.824,1.326,9.774
Mon Dec 02 20:54:44 2024,555,-37.220,37.220,26.360,26.360,-1.969,8.256,7.753,3.634,11.213,10.840,-3.868,5.652,8.950,17.823,1.407,9.687
Mon Dec 02 20:54:44 2024,560,-37.181,37.181,26.946,26.946,-2.172,8.104,7.555,3.562,11.198,10.833,-3.910,5.646,8.980,17.856,1.411,9.757
Mon Dec 02 20:54:44 2024,565,-37.159,37.159,27.391,27.391,-2.324,7.989,7.408,3.508,11.187,10.828,-3.942,5.641,9.001,17.881,1.413,9.809
Mon Dec 02 20:54:44 2024,570,-37.286,37.286,27.695,27.695,-2.357,7.849,7.258,3.538,11.139,10.863,-3.985,5.520,8.996,17.921,1.390,9.873
Mon Dec 02 20:54:44 2024,575,-37.496,37.496,27.787,27.787,-2.284,7.734,7.152,3.629,11.077,10.919,-4.024,5.342,8.970,17.961,1.354,9.926
Mon Dec 02 20:54:44 2024,580,-37.726,37.726,27.903,27.903,-2.213,7.619,7.042,3.716,10.977,10.965,-4.072,5.145,8.946,18.002,1.310,9.980
Mon Dec 02 20:54:44 2024,585,-37.882,37.882,27.907,27.907,-2.150,7.615,7.018,3.746,10.758,10.933,-4.132,4.972,8.944,18.012,1.254,9.987
Mon Dec 02 20:54:44 2024,590,-38.010,38.010,27.908,27.908,-2.100,7.616,7.000,3.768,10.574,10.904,-4.182,4.832,8.942,18.020,1.207,9.992
Mon Dec 02 20:54:44 2024,595,-38.402,38.402,27.704,27.704,-2.047,7.454,6.998,3.836,10.328,10.916,-4.198,4.755,8.983,18.084,1.142,10.012
Mon Dec 02 20:54:44 2024,600,-38.851,38.851,27.439,27.439,-2.002,7.246,7.003,3.916,10.089,10.942,-4.200,4.714,9.035,18.161,1.077,10.034
Mon Dec 02 20:54:44 2024,605,-39.267,39.267,27.247,27.247,-1.950,7.108,6.990,3.970,9.878,10.957,-4.216,4.623,9.050,18.184,1.041,10.020
Mon Dec 02 20:54:44 2024,610,-39.599,39.599,27.221,27.221,-1.882,7.130,6.937,3.966,9.734,10.945,-4.268,4.418,8.983,18.086,1.066,9.928
Mon Dec 02 20:54:44 2024,615,-39.872,39.872,27.206,27.206,-1.824,7.153,6.891,3.959,9.616,10.934,-4.312,4.245,8.925,18.001,1.087,9.850
Mon Dec 02 20:54:44 2024,620,-40.098,40.098,27.233,27.233,-1.746,7.159,6.859,3.923,9.428,10.853,-4.369,4.100,8.844,17.939,1.069,9.760
Mon Dec 02 20:54:44 2024,625,-40.320,40.320,27.278,27.278,-1.657,7.159,6.828,3.874,9.204,10.743,-4.433,3.958,8.753,17.883,1.034,9.662
Mon Dec 02 20:54:44 2024,630,-40.496,40.496,27.315,27.315,-1.585,7.157,6.805,3.833,9.024,10.656,-4.486,3.845,8.680,17.837,1.004,9.583
Mon Dec 02 20:54:44 2024,635,-40.705,40.705,27.400,27.400,-1.435,7.514,6.823,3.900,8.998,10.508,-4.325,4.046,8.585,17.798,0.923,9.309
Mon Dec 02 20:54:44 2024,640,-40.870,40.870,27.463,27.463,-1.325,7.745,6.830,3.936,8.951,10.397,-4.229,4.157,8.511,17.764,0.862,9.120
Mon Dec 02 20:54:44 2024,645,-41.092,41.092,27.165,27.165,-1.281,7.853,6.785,3.880,8.938,10.288,-4.316,4.030,8.330,17.654,0.850,8.935
Mon Dec 02 20:54:44 2024,650,-41.272,41.272,26.880,26.880,-1.258,7.915,6.742,3.822,8.934,10.204,-4.413,3.893,8.175,17.557,0.847,8.794
Mon Dec 02 20:54:44 2024,655,-41.444,41.444,26.616,26.616,-1.242,7.962,6.745,3.767,8.990,10.202,-4.490,3.853,8.103,17.498,0.825,8.702
Mon Dec 02 20:54:44 2024,660,-41.586,41.586,26.412,26.412,-1.240,7.981,6.819,3.725,9.132,10.328,-4.525,3.966,8.166,17.503,0.780,8.695
Mon Dec 02 20:54:44 2024,665,-41.731,41.731,26.205,26.205,-1.239,8.002,6.893,3.681,9.273,10.451,-4.562,4.076,8.226,17.507,0.735,8.687
Mon Dec 02 20:54:44 2024,670,-41.818,41.818,25.998,25.998,-1.114,8.287,6.974,3.730,9.363,10.518,-4.497,4.161,8.236,17.682,0.619,8.704
Mon Dec 02 20:54:44 2024,675,-41.894,41.894,25.818,25.818,-0.996,8.556,7.046,3.780,9.437,10.573,-4.433,4.234,8.241,17.848,0.509,8.721
Mon Dec 02 20:54:44 2024,680,-41.982,41.982,25.633,25.633,-0.924,8.717,7.097,3.804,9.573,10.649,-4.400,4.276,8.246,17.959,0.439,8.748
Mon Dec 02 20:54:44 2024,685,-42.150,42.150,25.318,25.318,-0.948,8.646,7.114,3.760,9.985,10.836,-4.444,4.249,8.258,17.970,0.451,8.826
Mon Dec 02 20:54:44 2024,690,-42.263,42.263,25.106,25.106,-0.954,8.622,7.130,3.737,10.249,10.958,-4.467,4.238,8.265,17.988,0.450,8.877
Mon Dec 02 20:54:44 2024,695,-42.436,42.436,24.884,24.884,-0.892,8.872,7.363,3.740,10.598,11.153,-4.457,4.540,8.416,18.188,0.363,9.030
Mon Dec 02 20:54:44 2024,700,-42.615,42.615,24.660,24.660,-0.827,9.139,7.613,3.745,10.951,11.354,-4.446,4.861,8.575,18.397,0.265,9.191
Mon Dec 02 20:54:44 2024,705,-42.632,42.632,24.604,24.604,-0.752,9.200,7.848,3.778,11.219,11.576,-4.478,5.059,8.708,18.482,0.221,9.341
Mon Dec 02 20:54:44 2024,710,-42.556,42.556,24.649,24.649,-0.685,9.138,8.035,3.820,11.395,11.770,-4.528,5.155,8.803,18.485,0.215,9.460
Mon Dec 02 20:54:44 2024,715,-42.489,42.489,24.690,24.690,-0.627,9.081,8.204,3.858,11.551,11.945,-4.573,5.241,8.888,18.488,0.210,9.567
Mon Dec 02 20:54:44 2024,720,-42.252,42.252,24.607,24.607,-0.504,9.302,8.390,3.924,11.806,12.082,-4.465,5.634,9.024,18.543,0.200,9.653
Mon Dec 02 20:54:44 2024,725,-42.046,42.046,24.532,24.532,-0.407,9.498,8.563,3.983,12.033,12.207,-4.371,5.986,9.148,18.593,0.191,9.733
Mon Dec 02 20:54:44 2024,730,-41.760,41.760,24.458,24.458,-0.344,9.574,8.746,4.056,12.188,12.322,-4.266,6.320,9.292,18.643,0.160,9.818
Mon Dec 02 20:54:44 2024,735,-41.376,41.376,24.381,24.381,0.336,9.504,8.939,4.151,12.260,12.426,-4.146,6.633,9.462,18.694,0.102,9.910
Mon Dec 02 20:54:44 2024,740,-41.102,41.102,24.320,24.320,0.378,9.470,9.089,4.220,12.325,12.507,-4.056,6.877,9.590,18.732,0.061,9.980
Mon Dec 02 20:54:44 2024,745,-40.853,40.853,24.451,24.451,0.453,9.698,9.332,4.270,12.590,12.619,-4.064,7.238,9.666,18.722,0.152,10.136
Mon Dec 02 20:54:44 2024,750,-40.610,40.610,24.564,24.564,0.555,9.903,9.569,4.321,12.831,12.727,-4.066,7.586,9.746,18.714,0.230,10.285
Mon Dec 02 20:54:44 2024,755,-40.280,40.280,24.647,24.647,0.634,10.133,9.829,4.364,12.939,12.732,-4.057,7.825,9.800,18.692,0.261,10.352
Mon Dec 02 20:54:44 2024,760,-39.951,39.951,24.716,24.716,0.704,10.354,10.078,4.403,13.007,12.709,-4.045,8.020,9.844,18.666,0.278,10.393
Mon Dec 02 20:54:44 2024,765,-39.683,39.683,24.770,24.770,0.763,10.534,10.285,4.434,13.060,12.690,-4.036,8.179,9.879,18.645,0.292,10.426
Mon Dec 02 20:54:44 2024,770,-39.469,39.469,24.762,24.762,0.719,10.717,10.497,4.442,13.239,12.733,-4.020,8.470,9.958,18.616,0.355,10.459
Mon Dec 02 20:54:44 2024,775,-39.266,39.266,24.762,24.762,0.695,10.886,10.694,4.452,13.380,12.763,-4.007,8.716,10.024,18.589,0.405,10.489
Mon Dec 02 20:54:44 2024,780,-39.176,39.176,24.735,24.735,0.713,11.051,10.936,4.466,13.418,12.780,-4.004,8.834,10.070,18.544,0.439,10.507
Mon Dec 02 20:54:44 2024,785,-39.103,39.103,24.696,24.696,0.748,11.248,11.237,4.483,13.433,12.796,-4.004,8.937,10.118,18.485,0.472,10.524
Mon Dec 02 20:54:44 2024,790,-39.039,39.039,24.664,24.664,0.776,11.407,11.482,4.498,13.448,12.809,-4.002,9.023,10.158,18.438,0.501,10.538
Mon Dec 02 20:54:44 2024,795,-38.784,38.784,24.673,24.673,0.719,11.502,11.534,4.408,13.466,12.712,-4.072,9.066,10.112,18.346,0.617,10.575
Mon Dec 02 20:54:44 2024,800,-38.594,38.594,24.672,24.672,0.684,11.599,11.619,4.348,13.480,12.645,-4.121,9.111,10.088,18.274,0.703,10.603
Mon Dec 02 20:54:44 2024,805,-38.540,38.540,24.742,24.742,0.730,11.844,11.811,4.439,13.423,12.639,-4.047,9.143,10.096,18.245,0.691,10.584
Mon Dec 02 20:54:44 2024,810,-38.516,38.516,24.814,24.814,0.785,12.079,11.994,4.545,13.360,12.643,-3.963,9.168,10.109,18.227,0.664,10.560
Mon Dec 02 20:54:44 2024,815,-38.499,38.499,24.871,24.871,0.829,12.263,12.139,4.627,13.309,12.647,-3.896,9.186,10.118,18.213,0.642,10.542
Mon Dec 02 20:54:44 2024,820,-38.417,38.417,25.612,25.612,0.817,12.024,12.276,4.659,13.118,12.565,-4.033,8.852,9.927,18.166,0.576,10.309
Mon Dec 02 20:54:44 2024,825,-38.376,38.376,26.038,26.038,0.820,11.930,12.383,4.694,13.000,12.520,-4.097,8.669,9.823,18.136,0.532,10.176
Mon Dec 02 20:54:44 2024,830,-38.436,38.436,26.608,26.608,0.847,11.939,12.506,4.731,12.863,12.470,-4.130,8.578,9.816,18.054,0.517,10.095
Mon Dec 02 20:54:44 2024,835,-38.560,38.560,27.215,27.215,0.886,12.002,12.627,4.764,12.726,12.421,-4.142,8.543,9.865,17.950,0.517,10.050
Mon Dec 02 20:54:44 2024,840,-38.736,38.736,27.691,27.691,0.915,11.962,12.677,4.833,12.581,12.336,-4.155,8.420,9.815,17.881,0.470,9.952
Mon Dec 02 20:54:44 2024,845,-38.687,38.687,28.157,28.157,0.898,11.898,12.686,4.974,12.482,12.219,-4.187,8.241,9.648,17.855,0.364,9.779
Mon Dec 02 20:54:44 2024,850,-38.268,38.268,28.543,28.543,0.846,12.013,12.778,5.048,12.520,12.208,-4.236,8.242,9.594,17.843,0.329,9.706
Mon Dec 02 20:54:44 2024,855,-37.849,37.849,28.928,28.928,0.793,12.128,12.870,5.122,12.558,12.198,-4.284,8.243,9.541,17.832,0.295,9.633
Mon Dec 02 20:54:44 2024,860,-37.430,37.430,29.313,29.313,0.740,12.243,12.962,5.197,12.597,12.188,-4.332,8.243,9.487,17.820,0.260,9.560
Mon Dec 02 20:54:44 2024,865,-37.010,37.010,29.699,29.699,0.687,12.358,13.055,5.271,12.635,12.177,-4.381,8.244,9.434,17.808,0.225,9.487
Mon Dec 02 20:54:44 2024,870,-36.591,36.591,30.084,30.084,0.634,12.473,13.147,5.346,12.673,12.167,-4.429,8.244,9.380,17.797,0.190,9.414
Mon Dec 02 20:54:44 2024,875,-36.172,36.172,30.470,30.470,0.582,12.588,13.239,5.420,12.711,12.157,-4.478,8.245,9.327,17.785,0.155,9.341
Mon Dec 02 20:54:44 2024,880,-35.753,35.753,30.855,30.855,0.529,12.703,13.331,5.494,12.749,12.146,-4.526,8.246,9.273,17.773,0.121,9.268
Mon Dec 02 20:54:44 2024,885,-35.333,35.333,31.240,31.240,0.476,12.818,13.423,5.569,12.788,12.136,-4.575,8.246,9.220,17.762,0.086,9.195
Mon Dec 02 20:54:44 2024,890,-34.914,34.914,31.626,31.626,0.423,12.933,13.515,5.643,12.826,12.126,-4.623,8.247,9.166,17.750,0.051,9.122
Mon Dec 02 20:54:44 2024,895,-34.495,34.495,32.011,32.011,0.370,13.048,13.607,5.718,12.864,12.115,-4.672,8.247,9.113,17.738,0.016,9.049
Mon Dec 02 20:54:44 2024,900,-34.076,34.076,32.397,32.397,0.318,13.163,13.699,5.792,12.902,12.105,-4.720,8.248,9.059,17.727,-0.019,8.976
Mon Dec 02 20:54:44 2024,905,-33.656,33.656,32.782,32.782,0.265,13.278,13.791,5.866,12.940,12.095,-4.769,8.249,9.005,17.715,-0.053,8.903
Mon Dec 02 20:54:44 2024,910,-33.237,33.237,33.167,33.167,0.212,13.393,13.883,5.941,12.979,12.084,-4.817,8.249,8.952,17.703,-0.088,8.830
Mon Dec 02 20:54:44 2024,915,-32.818,32.818,33.553,33.553,0.159,13.508,13.975,6.015,13.017,12.074,-4.866,8.250,8.898,17.692,-0.123,8.757
Mon Dec 02 20:54:44 2024,920,-31.977,31.977,33.561,33.561,-0.003,13.443,13.965,5.899,12.963,11.979,-5.073,7.873,8.775,17.494,-0.064,8.800
Mon Dec 02 20:54:44 2024,925,-30.767,30.767,33.141,33.141,-0.163,13.227,13.944,5.674,12.858,11.875,-5.354,7.273,8.625,17.248,-0.003,8.930
Mon Dec 02 20:54:44 2024,930,-29.571,29.571,32.288,32.288,-0.196,12.973,14.112,5.564,12.838,11.950,-5.456,6.924,8.577,17.312,-0.153,9.051
Mon Dec 02 20:54:44 2024,935,-28.508,28.508,31.586,31.586,-0.233,12.735,14.254,5.452,12.803,12.005,-5.567,6.575,8.526,17.349,-0.278,9.165
Mon Dec 02 20:54:44 2024,940,-27.558,27.558,29.329,29.329,-0.168,12.643,14.194,5.516,12.809,11.883,-5.451,6.713,8.515,17.456,-0.381,9.227
Mon Dec 02 20:54:44 2024,945,-26.624,26.624,26.996,26.996,0.178,12.553,14.124,5.591,12.815,11.751,-5.322,6.878,8.507,17.570,-0.485,9.289
Mon Dec 02 20:54:44 2024,950,-26.019,26.019,23.795,23.795,0.250,12.808,14.092,5.718,12.900,11.624,-5.145,7.221,8.417,17.646,-0.466,9.178
Mon Dec 02 20:54:44 2024,955,-26.038,26.038,21.028,21.028,0.298,13.344,14.118,5.848,13.017,11.561,-4.992,7.611,8.273,17.645,-0.319,8.918
Mon Dec 02 20:54:44 2024,960,-26.060,26.060,18.241,18.241,0.362,13.892,14.144,5.986,13.110,11.495,-4.832,8.010,8.124,17.649,-0.174,8.650
Mon Dec 02 20:54:44 2024,965,-26.366,26.366,14.512,14.512,0.390,14.087,14.072,6.033,12.982,11.564,-4.800,7.922,8.136,17.590,-0.135,8.388
Mon Dec 02 20:54:44 2024,970,-26.662,26.662,11.182,11.182,0.412,14.224,14.000,6.064,12.847,11.635,-4.784,7.799,8.160,17.532,-0.111,8.159
Mon Dec 02 20:54:44 2024,975,-26.850,26.850,8.109,8.109,0.414,14.362,13.760,6.104,12.791,11.626,-4.765,7.838,8.098,17.524,-0.026,7.951
Mon Dec 02 20:54:44 2024,980,-26.951,26.951,5.512,5.512,0.402,14.486,13.440,6.146,12.792,11.566,-4.746,7.976,7.989,17.546,0.086,7.777
Mon Dec 02 20:54:44 2024,985,-27.058,27.058,2.829,2.829,0.383,14.657,13.092,6.193,12.800,11.491,-4.719,8.144,7.870,17.570,0.200,7.580
Mon Dec 02 20:54:44 2024,990,-27.130,27.130,-1.065,1.065,0.340,14.993,12.776,6.242,12.839,11.376,-4.663,8.389,7.758,17.584,0.284,7.364
Mon Dec 02 20:54:44 2024,995,-27.230,27.230,-1.292,-1.292,0.287,15.420,12.375,6.304,12.884,11.229,-4.591,8.698,7.617,17.604,0.386,7.090
Mon Dec 02 20:54:45 2024,0,-27.294,27.294,-2.788,-2.788,0.365,15.648,12.080,6.395,12.830,11.186,-4.568,8.718,7.549,17.560,0.447,6.944
Mon Dec 02 20:54:45 2024,5,-27.350,27.350,-4.010,-4.010,0.510,15.782,11.828,6.502,12.729,11.189,-4.567,8.597,7.512,17.485,0.492,6.853
Mon Dec 02 20:54:45 2024,10,-27.342,27.342,-4.955,-4.955,0.615,15.861,11.614,6.575,12.657,11.194,-4.563,8.512,7.491,17.429,0.529,6.797
Mon Dec 02 20:54:45 2024,15,-26.941,26.941,-5.420,-5.420,0.604,15.747,11.369,6.530,12.668,11.217,-4.528,8.536,7.527,17.420,0.564,6.877
Mon Dec 02 20:54:45 2024,20,-26.663,26.663,-5.784,-5.784,0.597,15.656,11.174,6.495,12.677,11.237,-4.500,8.556,7.557,17.414,0.592,6.940
Mon Dec 02 20:54:45 2024,25,-26.436,26.436,-6.037,-6.037,0.630,15.503,11.023,6.508,12.612,11.238,-4.528,8.416,7.559,17.403,0.557,6.942
Mon Dec 02 20:54:45 2024,30,-26.321,26.321,-6.143,-6.143,0.677,15.356,10.942,6.546,12.522,11.228,-4.582,8.220,7.543,17.393,0.493,6.906
Mon Dec 02 20:54:45 2024,35,-26.215,26.215,-6.195,-6.195,0.711,15.263,10.859,6.550,12.466,11.206,-4.652,8.037,7.523,17.359,0.467,6.888
Mon Dec 02 20:54:45 2024,40,-25.967,25.967,-6.108,-6.108,0.722,15.308,10.694,6.420,12.497,11.118,-4.843,7.746,7.465,17.204,0.572,6.928
Mon Dec 02 20:54:45 2024,45,-25.814,25.814,-6.030,-6.030,0.731,15.344,10.559,6.313,12.518,11.047,-5.000,7.509,7.418,17.077,0.656,6.961
Mon Dec 02 20:54:45 2024,50,-25.641,-25.641,-5.890,-5.890,0.725,15.258,10.421,6.261,12.531,11.040,-5.033,7.420,7.380,16.966,0.684,6.901
Mon Dec 02 20:54:45 2024,55,-25.470,-25.470,-5.719,-5.719,0.714,15.136,10.267,6.215,12.543,11.046,-5.043,7.353,7.340,16.845,0.701,6.815
Mon Dec 02 20:54:45 2024,60,-25.306,-25.306,-5.518,-5.518,0.725,15.113,10.157,6.167,12.571,11.020,-5.083,7.292,7.282,16.722,0.731,6.734
Mon Dec 02 20:54:45 2024,65,-25.188,-25.188,-5.358,-5.358,0.763,15.247,10.156,6.138,12.612,10.956,-5.151,7.264,7.221,16.646,0.769,6.693
Mon Dec 02 20:54:45 2024,70,-25.070,-25.070,-5.171,-5.171,0.807,15.400,10.154,6.103,12.659,10.882,-5.230,7.232,7.149,16.558,0.814,6.647
Mon Dec 02 20:54:45 2024,75,-24.789,-24.789,-4.905,-4.905,0.784,15.497,10.122,6.038,12.746,10.897,-5.305,7.206,7.139,16.418,0.879,6.568
Mon Dec 02 20:54:45 2024,80,-24.575,-24.575,-4.704,-4.704,0.757,15.558,10.094,5.988,12.814,10.921,-5.358,7.188,7.141,16.309,0.928,6.507
Mon Dec 02 20:54:45 2024,85,-24.267,-24.267,-4.485,-4.485,0.749,15.675,10.062,5.938,12.867,10.908,-5.388,7.185,7.136,16.178,0.982,6.469
Mon Dec 02 20:54:45 2024,90,-23.980,-23.980,-4.350,-4.350,0.769,15.808,10.041,5.913,12.875,10.854,-5.373,7.203,7.124,16.081,1.017,6.479
Mon Dec 02 20:54:45 2024,95,-23.667,-23.667,-4.202,-4.202,0.788,15.954,10.022,5.886,12.890,10.808,-5.362,7.225,7.116,15.974,1.057,6.488
Mon Dec 02 20:54:45 2024,100,-23.275,-23.275,-4.049,-4.049,0.775,16.097,10.048,5.876,12.962,10.911,-5.396,7.271,7.169,15.882,1.126,6.485
Mon Dec 02 20:54:45 2024,105,-22.886,-22.886,-3.895,-3.895,0.757,16.239,10.079,5.868,13.038,11.030,-5.436,7.319,7.227,15.790,1.198,6.479
Mon Dec 02 20:54:45 2024,110,-22.489,-22.489,-3.824,-3.824,0.778,16.384,10.113,5.869,13.070,11.093,-5.435,7.371,7.251,15.732,1.206,6.411
Mon Dec 02 20:54:45 2024,115,-22.101,-22.101,-3.842,-3.842,0.837,16.521,10.148,5.878,13.057,11.096,-5.395,7.424,7.238,15.714,1.148,6.283
Mon Dec 02 20:54:45 2024,120,-21.814,-21.814,-3.855,-3.855,0.881,16.622,10.173,5.884,13.048,11.098,-5.364,7.464,7.228,15.700,1.105,6.188
Mon Dec 02 20:54:45 2024,125,-21.458,-21.458,-3.722,-3.722,0.784,16.813,10.191,5.865,13.119,11.089,-5.349,7.587,7.228,15.582,1.264,6.149
Mon Dec 02 20:54:45 2024,130,-21.166,-21.166,-3.601,-3.601,0.694,16.974,10.204,5.848,13.182,11.080,-5.337,7.693,7.228,15.478,1.408,6.122
Mon Dec 02 20:54:45 2024,135,-20.893,-20.893,-3.520,-3.520,0.674,17.218,10.260,5.863,13.210,11.109,-5.300,7.761,7.269,15.468,1.457,6.142
Mon Dec 02 20:54:45 2024,140,-20.712,-20.712,-3.492,-3.492,0.714,17.456,10.330,5.896,13.204,11.157,-5.254,7.781,7.328,15.530,1.418,6.192
Mon Dec 02 20:54:45 2024,145,-20.496,-20.496,-3.484,-3.484,0.747,17.695,10.409,5.936,13.194,11.205,-5.206,7.819,7.392,15.575,1.387,6.242
Mon Dec 02 20:54:45 2024,150,-20.315,-20.315,-3.556,-3.556,0.729,17.774,10.455,5.967,13.178,11.214,-5.191,7.892,7.425,15.524,1.407,6.254
Mon Dec 02 20:54:45 2024,155,-20.144,-20.144,-3.624,-3.624,0.712,17.849,10.498,5.998,13.162,11.223,-5.177,7.961,7.457,15.475,1.426,6.266
Mon Dec 02 20:54:45 2024,160,-19.998,-19.998,-3.692,-3.692,0.730,17.943,10.502,6.014,13.175,11.209,-5.156,8.021,7.442,15.512,1.410,6.214
Mon Dec 02 20:54:45 2024,165,-19.855,-19.855,-3.762,-3.762,0.763,18.046,10.490,6.025,13.198,11.186,-5.130,8.081,7.408,15.586,1.378,6.134
Mon Dec 02 20:54:45 2024,170,-19.702,-19.702,-3.840,-3.840,0.790,18.132,10.465,6.042,13.209,11.166,-5.114,8.113,7.372,15.630,1.372,6.079
Mon Dec 02 20:54:45 2024,175,-19.482,-19.482,-3.960,-3.960,0.794,18.170,10.389,6.082,13.173,11.148,-5.132,8.034,7.324,15.564,1.465,6.110
Mon Dec 02 20:54:45 2024,180,-19.253,-19.253,-4.085,-4.085,0.797,18.206,10.308,6.124,13.134,11.130,-5.150,7.948,7.275,15.492,1.564,6.144
Mon Dec 02 20:54:45 2024,185,-19.035,-19.035,-4.077,-4.077,0.832,18.215,10.194,6.225,13.087,11.107,-5.082,7.975,7.227,15.490,1.567,6.087
Mon Dec 02 20:54:45 2024,190,-18.838,-18.838,-4.043,-4.043,0.871,18.218,10.084,6.328,13.041,11.084,-5.002,8.023,7.185,15.502,1.551,6.017
Mon Dec 02 20:54:45 2024,195,-18.649,-18.649,-4.009,-4.009,0.908,18.220,9.976,6.428,12.994,11.062,-4.926,8.067,7.143,15.513,1.535,5.950
Mon Dec 02 20:54:45 2024,200,-18.506,-18.506,-3.984,-3.984,0.936,18.220,9.896,6.502,12.956,11.047,-4.868,8.101,7.112,15.522,1.523,5.900
Mon Dec 02 20:54:45 2024,205,-18.445,-18.445,-3.973,-3.973,0.948,18.220,9.862,6.534,12.940,11.040,-4.844,8.116,7.099,15.526,1.518,5.878
Mon Dec 02 20:54:45 2024,210,-18.018,-18.018,-4.274,-4.274,0.976,18.160,10.171,6.402,12.915,11.096,-4.845,8.213,7.209,15.631,1.422,5.971
Mon Dec 02 20:54:45 2024,215,-17.830,-17.830,-4.346,-4.346,0.996,18.142,10.220,6.400,12.889,11.104,-4.817,8.258,7.226,15.666,1.389,5.974
Mon Dec 02 20:54:45 2024,220,-17.639,-17.639,-4.421,-4.421,1.018,18.124,10.270,6.399,12.862,11.113,-4.790,8.302,7.242,15.700,1.356,5.976
Mon Dec 02 20:54:45 2024,225,-17.466,-17.466,-4.419,-4.419,1.138,18.218,10.162,6.526,12.834,11.044,-4.704,8.419,7.174,15.738,1.456,5.906
Mon Dec 02 20:54:45 2024,230,-17.281,-17.281,-4.437,-4.437,1.238,18.270,10.088,6.628,12.801,10.990,-4.629,8.523,7.123,15.776,1.527,5.852
Mon Dec 02 20:54:45 2024,235,-17.191,-17.191,-4.474,-4.474,1.202,18.241,10.072,6.566,12.808,10.968,-4.668,8.450,7.134,15.775,1.540,5.927
Mon Dec 02 20:54:45 2024,240,-17.115,-17.115,-4.506,-4.506,1.166,18.210,10.060,6.507,12.812,10.950,-4.706,8.380,7.145,15.773,1.551,5.997
Mon Dec 02 20:54:45 2024,245,-17.056,-17.056,-4.515,-4.515,1.138,18.198,10.041,6.484,12.813,10.939,-4.714,8.374,7.148,15.748,1.574,6.030
Mon Dec 02 20:54:45 2024,250,-17.046,-17.046,-4.468,-4.468,1.127,18.243,10.007,6.550,12.810,10.946,-4.648,8.524,7.132,15.664,1.626,5.970
Mon Dec 02 20:54:45 2024,255,-17.029,-17.029,-4.436,-4.436,1.126,18.279,9.999,6.597,12.799,10.952,-4.602,8.627,7.125,15.601,1.664,5.934
Mon Dec 02 20:54:45 2024,260,-17.005,-17.005,-4.446,-4.446,1.195,18.312,10.131,6.606,12.754,10.977,-4.604,8.594,7.163,15.599,1.648,5.956
Mon Dec 02 20:54:45 2024,265,-16.982,-16.982,-4.460,-4.460,1.268,18.335,10.272,6.611,12.706,11.002,-4.612,8.548,7.203,15.604,1.627,5.986
Mon Dec 02 20:54:45 2024,270,-16.962,-16.962,-4.474,-4.474,1.330,18.346,10.396,6.615,12.664,11.024,-4.618,8.508,7.238,15.610,1.609,6.012
Mon Dec 02 20:54:45 2024,275,-16.925,-16.925,-4.404,-4.404,1.224,18.377,10.186,6.630,12.757,11.032,-4.642,8.560,7.190,15.665,1.576,5.986
Mon Dec 02 20:54:45 2024,280,-16.894,-16.894,-4.362,-4.362,1.183,18.399,10.107,6.645,12.798,11.048,-4.656,8.583,7.176,15.693,1.553,5.978
Mon Dec 02 20:54:45 2024,285,-16.883,-16.883,-4.348,-4.348,1.209,18.412,10.197,6.669,12.782,11.073,-4.641,8.602,7.211,15.651,1.568,5.979
Mon Dec 02 20:54:45 2024,290,-16.872,-16.872,-4.336,-4.336,1.234,18.422,10.280,6.691,12.768,11.095,-4.627,8.620,7.242,15.612,1.582,5.980
Mon Dec 02 20:54:45 2024,295,-16.844,-16.844,-4.325,-4.325,1.264,18.424,10.327,6.718,12.738,11.092,-4.627,8.593,7.235,15.571,1.573,5.953
Mon Dec 02 20:54:45 2024,300,-16.782,-16.782,-4.319,-4.319,1.302,18.408,10.292,6.752,12.678,11.034,-4.658,8.470,7.144,15.530,1.515,5.868
Mon Dec 02 20:54:45 2024,305,-16.734,-16.734,-4.319,-4.319,1.316,18.402,10.285,6.774,12.654,11.016,-4.666,8.432,7.108,15.510,1.491,5.830
Mon Dec 02 20:54:45 2024,310,-16.681,-16.681,-4.354,-4.354,1.230,18.432,10.305,6.765,12.746,11.110,-4.621,8.646,7.203,15.576,1.549,5.911
Mon Dec 02 20:54:45 2024,315,-16.639,-16.639,-4.381,-4.381,1.164,18.450,10.321,6.757,12.815,11.185,-4.585,8.814,7.278,15.628,1.593,5.976
Mon Dec 02 20:54:45 2024,320,-16.605,-16.605,-4.403,-4.403,1.108,18.461,10.334,6.750,12.870,11.248,-4.555,8.956,7.341,15.672,1.629,6.030
Mon Dec 02 20:54:45 2024,325,-16.528,-16.528,-4.259,-4.259,1.299,18.424,10.344,6.907,12.675,11.148,-4.499,8.752,7.186,15.538,1.555,5.884
Mon Dec 02 20:54:45 2024,330,-16.495,-16.495,-4.221,-4.221,1.358,18.419,10.359,6.955,12.634,11.133,-4.470,8.750,7.161,15.521,1.546,5.872
Mon Dec 02 20:54:45 2024,335,-16.508,-16.508,-4.257,-4.257,1.369,18.471,10.398,6.925,12.707,11.166,-4.461,8.918,7.229,15.615,1.594,5.992
Mon Dec 02 20:54:45 2024,340,-16.519,-16.519,-4.288,-4.288,1.378,18.507,10.432,6.898,12.767,11.194,-4.454,9.060,7.286,15.693,1.632,6.094
Mon Dec 02 20:54:45 2024,345,-16.575,-16.575,-4.214,-4.214,1.372,18.467,10.439,6.913,12.736,11.180,-4.474,8.949,7.232,15.632,1.575,5.999
Mon Dec 02 20:54:45 2024,350,-16.643,-16.643,-4.114,-4.114,1.362,18.400,10.442,6.937,12.684,11.157,-4.502,8.782,7.153,15.540,1.492,5.862
Mon Dec 02 20:54:45 2024,355,-16.668,-16.668,-4.095,-4.095,1.376,18.353,10.400,6.959,12.653,11.136,-4.499,8.697,7.101,15.488,1.463,5.780
Mon Dec 02 20:54:45 2024,360,-16.628,-16.628,-4.187,-4.187,1.418,18.354,10.306,6.974,12.656,11.121,-4.454,8.743,7.095,15.506,1.515,5.794
Mon Dec 02 20:54:45 2024,365,-16.580,-16.580,-4.297,-4.297,1.469,18.350,10.194,6.991,12.658,11.103,-4.400,8.797,7.088,15.527,1.576,5.810
Mon Dec 02 20:54:45 2024,370,-16.705,-16.705,-4.169,-4.169,1.407,18.379,10.253,6.989,12.660,11.152,-4.437,8.768,7.121,15.464,1.580,5.801
Mon Dec 02 20:54:45 2024,375,-16.834,-16.834,-4.035,-4.035,1.342,18.403,10.319,6.985,12.662,11.202,-4.478,8.735,7.153,15.400,1.579,5.792
Mon Dec 02 20:54:45 2024,380,-16.984,-16.984,-3.908,-3.908,1.301,18.402,10.376,6.983,12.654,11.238,-4.512,8.692,7.182,15.367,1.568,5.815
Mon Dec 02 20:54:45 2024,385,-17.127,-17.127,-3.826,-3.826,1.312,18.365,10.403,6.985,12.632,11.242,-4.527,8.646,7.197,15.397,1.543,5.883
Mon Dec 02 20:54:45 2024,390,-17.256,-17.256,-3.752,-3.752,1.321,18.331,10.427,6.987,12.612,11.245,-4.539,8.604,7.210,15.424,1.521,5.945
Mon Dec 02 20:54:45 2024,395,-17.495,-17.495,-3.217,-3.217,1.338,18.295,10.514,7.026,12.592,11.285,-4.505,8.561,7.193,15.323,1.469,5.857
Mon Dec 02 20:54:45 2024,400,-17.707,-17.707,-2.759,-2.759,1.351,18.264,10.590,7.060,12.574,11.320,-4.475,8.524,7.178,15.234,1.422,5.782
Mon Dec 02 20:54:45 2024,405,-17.870,-17.870,-2.056,-2.056,1.314,18.258,10.661,7.042,12.592,11.309,-4.469,8.502,7.186,15.170,1.374,5.779
Mon Dec 02 20:54:45 2024,410,-17.995,-17.995,-1.058,-1.058,1.219,18.270,10.736,6.964,12.650,11.250,-4.490,8.495,7.219,15.127,1.318,5.852
Mon Dec 02 20:54:45 2024,415,-18.097,-18.097,-0.522,0.522,1.139,18.274,10.796,6.900,12.698,11.200,-4.507,8.489,7.247,15.092,1.272,5.914
Mon Dec 02 20:54:45 2024,420,-18.286,-18.286,-1.424,1.424,1.092,18.175,10.953,6.848,12.724,11.224,-4.500,8.426,7.312,15.053,1.174,6.022
Mon Dec 02 20:54:45 2024,425,-18.620,-18.620,3.517,3.517,1.076,17.928,11.253,6.800,12.724,11.344,-4.460,8.282,7.435,15.005,0.995,6.210
Mon Dec 02 20:54:45 2024,430,-18.945,-18.945,5.275,5.275,1.026,17.648,11.490,6.740,12.722,11.384,-4.469,8.173,7.523,14.978,0.893,6.428
Mon Dec 02 20:54:45 2024,435,-19.392,-19.392,7.370,7.370,0.944,17.190,11.774,6.658,12.699,11.392,-4.515,8.040,7.618,14.966,0.817,6.764
Mon Dec 02 20:54:45 2024,440,-19.814,-19.814,9.326,9.326,0.870,16.745,12.034,6.583,12.668,11.399,-4.558,7.918,7.704,14.957,0.746,7.076
Mon Dec 02 20:54:45 2024,445,-20.511,-20.511,11.200,11.200,0.895,16.409,12.337,6.548,12.618,11.368,-4.604,7.671,7.725,15.010,0.702,7.338
Mon Dec 02 20:54:45 2024,450,-21.175,-21.175,13.027,13.027,0.906,16.078,12.613,6.510,12.568,11.345,-4.645,7.456,7.754,15.052,0.658,7.592
Mon Dec 02 20:54:45 2024,455,-21.983,-21.983,15.066,15.066,0.869,15.788,12.862,6.456,12.588,11.404,-4.664,7.324,7.842,15.228,0.569,7.886
Mon Dec 02 20:54:45 2024,460,-22.921,-22.921,17.370,17.370,0.810,15.500,13.110,6.391,12.642,11.504,-4.674,7.223,7.959,15.472,0.454,8.214
Mon Dec 02 20:54:45 2024,465,-23.821,-23.821,19.564,19.564,0.758,15.234,13.337,6.332,12.692,11.596,-4.682,7.130,8.067,15.694,0.349,8.516
Mon Dec 02 20:54:45 2024,470,-24.871,-24.871,22.404,22.404,0.699,14.888,13.314,6.414,12.697,11.713,-4.546,7.212,8.252,15.857,0.254,8.710
Mon Dec 02 20:54:45 2024,475,-25.988,25.988,25.281,25.281,0.644,14.554,13.324,6.477,12.705,11.826,-4.429,7.271,8.427,16.025,0.159,8.918
Mon Dec 02 20:54:45 2024,480,-26.868,26.868,27.517,27.517,0.504,14.294,13.256,6.574,12.657,11.889,-4.369,7.293,8.480,16.223,0.159,9.008
Mon Dec 02 20:54:45 2024,485,-27.648,27.648,29.322,29.322,0.367,14.087,13.180,6.664,12.603,11.930,-4.332,7.302,8.496,16.396,0.178,9.054
Mon Dec 02 20:54:45 2024,490,-28.578,28.578,31.292,31.292,0.234,13.866,13.100,6.757,12.545,11.972,-4.294,7.311,8.511,16.575,0.195,9.104
Mon Dec 02 20:54:45 2024,495,-29.723,29.723,32.882,32.882,-0.268,13.653,12.773,6.633,12.767,12.017,-4.404,7.129,8.468,16.490,0.205,8.980
Mon Dec 02 20:54:45 2024,500,-30.880,30.880,34.495,34.495,-0.610,13.429,12.515,6.560,12.914,12.058,-4.478,6.996,8.439,16.463,0.214,8.898
Mon Dec 02 20:54:45 2024,505,-31.930,31.930,35.324,35.324,-0.830,13.186,12.407,6.497,12.905,12.097,-4.454,6.936,8.469,16.502,0.182,8.735
Mon Dec 02 20:54:45 2024,510,-32.681,32.681,35.767,35.767,-0.962,13.012,12.357,6.455,12.867,12.123,-4.421,6.906,8.501,16.541,0.153,8.607
Mon Dec 02 20:54:45 2024,515,-33.604,33.604,36.281,36.281,-1.115,12.809,12.299,6.406,12.816,12.153,-4.382,6.872,8.537,16.585,0.118,8.461
Mon Dec 02 20:54:45 2024,520,-34.284,34.284,35.915,35.915,-1.078,13.096,12.129,6.461,12.969,12.091,-4.543,7.105,8.411,16.367,0.552,8.345
Mon Dec 02 20:54:45 2024,525,-34.909,34.909,35.790,35.790,-1.087,13.229,12.015,6.484,13.042,12.059,-4.633,7.237,8.342,16.245,0.805,8.249
Mon Dec 02 20:54:45 2024,530,-35.167,35.167,35.635,35.635,-1.050,13.420,11.979,6.558,13.039,12.043,-4.508,7.471,8.361,16.323,0.774,8.173
Mon Dec 02 20:54:45 2024,535,-35.396,35.396,35.482,35.482,-1.010,13.615,11.949,6.636,13.024,12.028,-4.364,7.712,8.388,16.418,0.718,8.100
Mon Dec 02 20:54:45 2024,540,-35.590,35.590,35.360,35.360,-0.976,13.774,11.925,6.700,13.007,12.016,-4.247,7.909,8.410,16.495,0.672,8.040
Mon Dec 02 20:54:45 2024,545,-35.787,35.787,35.400,35.400,-0.955,14.020,11.901,6.717,13.023,11.963,-4.213,8.056,8.379,16.504,0.719,8.040
Mon Dec 02 20:54:45 2024,550,-35.993,35.993,35.571,35.571,-0.941,14.348,11.876,6.698,13.068,11.876,-4.244,8.170,8.306,16.458,0.840,8.090
Mon Dec 02 20:54:45 2024,555,-36.238,36.238,35.654,35.654,-0.902,14.636,11.879,6.744,13.064,11.838,-4.192,8.356,8.287,16.488,0.880,8.091
Mon Dec 02 20:54:45 2024,560,-36.726,36.726,35.813,35.813,-0.780,15.125,11.975,6.930,12.964,11.857,-4.020,8.769,8.330,16.639,0.865,8.057
Mon Dec 02 20:54:45 2024,565,-36.895,36.895,36.087,36.087,-0.780,15.210,11.907,6.943,12.957,11.792,-4.023,8.793,8.284,16.567,0.912,8.016
Mon Dec 02 20:54:45 2024,570,-36.933,36.933,36.495,36.495,-0.848,15.100,11.735,6.867,13.006,11.667,-4.123,8.614,8.178,16.353,1.005,7.960
Mon Dec 02 20:54:45 2024,575,-36.969,36.969,36.847,36.847,-0.907,15.005,11.587,6.801,13.045,11.559,-4.209,8.461,8.087,16.170,1.081,7.912
Mon Dec 02 20:54:45 2024,580,-37.164,37.164,36.952,36.952,-0.994,14.873,11.618,6.747,13.057,11.608,-4.220,8.437,8.199,16.204,1.085,8.057
Mon Dec 02 20:54:45 2024,585,-37.346,37.346,37.072,37.072,-1.075,14.747,11.635,6.694,13.065,11.643,-4.236,8.403,8.293,16.221,1.093,8.182
Mon Dec 02 20:54:45 2024,590,-37.519,37.519,37.192,37.192,-1.120,14.590,11.685,6.659,13.057,11.737,-4.269,8.333,8.404,16.277,1.059,8.299
Mon Dec 02 20:54:45 2024,595,-37.662,37.662,37.296,37.296,-1.133,14.434,11.753,6.642,13.040,11.860,-4.310,8.247,8.512,16.354,0.998,8.394
Mon Dec 02 20:54:45 2024,600,-37.816,37.816,37.406,37.406,-1.146,14.270,11.824,6.624,13.018,11.990,-4.354,8.157,8.627,16.435,0.934,8.494
Mon Dec 02 20:54:45 2024,605,-37.935,37.935,37.690,37.690,-1.228,14.048,11.638,6.493,13.019,11.900,-4.406,7.946,8.646,16.374,0.921,8.473
Mon Dec 02 20:54:45 2024,610,-38.058,38.058,37.945,37.945,-1.300,13.837,11.488,6.379,12.998,11.837,-4.457,7.754,8.676,16.333,0.901,8.468
Mon Dec 02 20:54:45 2024,615,-38.416,38.416,38.253,38.253,-1.343,13.707,11.512,6.318,12.967,11.834,-4.452,7.720,8.714,16.442,0.827,8.525
Mon Dec 02 20:54:45 2024,620,-38.742,38.742,38.500,38.500,-1.371,13.621,11.566,6.281,12.940,11.843,-4.437,7.725,8.746,16.556,0.759,8.581
Mon Dec 02 20:54:45 2024,625,-39.128,39.128,38.786,38.786,-1.403,13.521,11.628,6.237,12.904,11.853,-4.419,7.730,8.784,16.690,0.678,8.647
Mon Dec 02 20:54:45 2024,630,-39.573,39.573,38.917,38.917,-1.483,13.403,11.444,6.155,12.981,11.834,-4.472,7.772,8.799,16.662,0.793,8.657
Mon Dec 02 20:54:45 2024,635,-39.932,39.932,39.038,39.038,-1.542,13.309,11.324,6.092,13.028,11.821,-4.506,7.801,8.814,16.659,0.863,8.672
Mon Dec 02 20:54:45 2024,640,-40.182,40.182,39.210,39.210,-1.532,13.170,11.276,6.054,12.952,11.751,-4.561,7.672,8.784,16.650,0.841,8.673
Mon Dec 02 20:54:45 2024,645,-40.365,40.365,39.367,39.367,-1.506,13.041,11.255,6.028,12.847,11.676,-4.613,7.522,8.746,16.641,0.797,8.670
Mon Dec 02 20:54:45 2024,650,-40.551,40.551,39.521,39.521,-1.479,12.912,11.234,6.002,12.737,11.601,-4.665,7.371,8.709,16.632,0.753,8.667
Mon Dec 02 20:54:45 2024,655,-40.697,40.697,39.093,39.093,-1.324,12.814,11.082,6.033,12.698,11.649,-4.627,7.251,8.688,16.801,0.717,8.697
Mon Dec 02 20:54:45 2024,660,-40.863,40.863,38.793,38.793,-1.194,12.702,10.958,6.051,12.639,11.667,-4.610,7.118,8.663,16.930,0.677,8.720
Mon Dec 02 20:54:45 2024,665,-40.965,40.965,38.578,38.578,-1.202,12.256,10.911,5.962,12.502,11.736,-4.628,6.965,8.749,16.958,0.650,8.795
Mon Dec 02 20:54:45 2024,670,-41.054,41.054,38.389,38.389,-1.229,11.785,10.878,5.862,12.344,11.807,-4.649,6.820,8.847,16.969,0.627,8.873
Mon Dec 02 20:54:45 2024,675,-41.147,41.147,38.196,38.196,-1.255,11.306,10.844,5.762,12.163,11.878,-4.671,6.671,8.948,16.980,0.603,8.952
Mon Dec 02 20:54:45 2024,680,-41.442,41.442,37.245,37.245,-1.006,11.481,10.918,5.814,12.114,11.971,-4.571,6.688,9.034,17.119,0.554,9.079
Mon Dec 02 20:54:45 2024,685,-41.672,41.672,36.569,36.569,-0.849,11.477,10.958,5.824,12.034,12.049,-4.510,6.663,9.116,17.214,0.515,9.182
Mon Dec 02 20:54:45 2024,690,-41.607,41.607,36.044,36.044,-0.795,11.398,10.999,5.707,11.965,12.052,-4.487,6.657,9.153,17.151,0.553,9.233
Mon Dec 02 20:54:45 2024,695,-41.562,41.562,35.505,35.505,-0.738,11.320,11.040,5.592,11.888,12.055,-4.461,6.650,9.193,17.092,0.589,9.286
Mon Dec 02 20:54:45 2024,700,-41.532,41.532,35.006,35.006,-0.684,11.247,11.078,5.486,11.808,12.058,-4.438,6.643,9.230,17.036,0.624,9.335
Mon Dec 02 20:54:45 2024,705,-41.391,41.391,34.271,34.271,-0.568,11.232,11.244,5.515,11.703,12.248,-4.284,6.673,9.446,17.072,0.605,9.550
Mon Dec 02 20:54:45 2024,710,-41.288,41.288,33.662,33.662,-0.474,11.222,11.347,5.510,11.629,12.352,-4.173,6.714,9.573,17.084,0.602,9.677
Mon Dec 02 20:54:45 2024,715,-41.142,41.142,33.416,33.416,-0.390,11.346,11.311,5.536,11.700,12.290,-4.096,6.876,9.498,17.114,0.594,9.582
Mon Dec 02 20:54:45 2024,720,-40.999,40.999,33.192,33.192,-0.315,11.471,11.268,5.563,11.776,12.222,-4.023,7.040,9.413,17.144,0.586,9.478
Mon Dec 02 20:54:45 2024,725,-40.867,40.867,32.978,32.978,-0.254,11.591,11.226,5.590,11.847,12.155,-3.952,7.198,9.332,17.172,0.579,9.379
Mon Dec 02 20:54:45 2024,730,-40.774,40.774,32.499,32.499,-0.251,11.677,11.330,5.504,11.800,12.195,-4.041,7.059,9.368,17.092,0.630,9.409
Mon Dec 02 20:54:45 2024,735,-40.692,40.692,32.116,32.116,-0.244,11.755,11.402,5.443,11.774,12.215,-4.098,6.976,9.384,17.037,0.667,9.419
Mon Dec 02 20:54:45 2024,740,-40.712,40.712,31.860,31.860,-0.212,11.822,11.446,5.522,11.744,12.244,-4.010,7.024,9.376,17.025,0.568,9.297
Mon Dec 02 20:54:45 2024,745,-40.725,40.725,31.651,31.651,-0.068,11.875,11.482,5.582,11.720,12.268,-3.942,7.059,9.371,17.014,0.491,9.204
Mon Dec 02 20:54:45 2024,750,-40.738,40.738,31.455,31.455,0.205,11.925,11.515,5.637,11.697,12.289,-3.879,7.090,9.365,17.003,0.420,9.116
Mon Dec 02 20:54:45 2024,755,-40.882,40.882,31.416,31.416,-0.197,12.019,11.364,5.549,11.900,12.196,-4.004,7.080,9.238,16.933,0.434,8.937
Mon Dec 02 20:54:45 2024,760,-40.956,40.956,31.345,31.345,-0.203,12.078,11.299,5.522,11.992,12.156,-4.049,7.083,9.174,16.894,0.421,8.825
Mon Dec 02 20:54:45 2024,765,-40.856,40.856,31.342,31.342,-0.223,12.058,11.426,5.425,11.898,12.214,-4.040,6.948,9.254,16.916,0.454,9.022
Mon Dec 02 20:54:45 2024,770,-40.784,40.784,31.332,31.332,-0.246,12.046,11.521,5.346,11.828,12.257,-4.037,6.840,9.311,16.928,0.478,9.167
Mon Dec 02 20:54:45 2024,775,-40.734,40.734,31.318,31.318,-0.245,12.049,11.582,5.311,11.767,12.268,-4.033,6.782,9.325,16.922,0.482,9.207
Mon Dec 02 20:54:45 2024,780,-40.706,40.706,31.293,31.293,-0.199,12.080,11.601,5.350,11.705,12.221,-4.025,6.801,9.255,16.873,0.451,9.054
Mon Dec 02 20:54:45 2024,785,-40.673,40.673,31.274,31.274,0.189,12.100,11.632,5.363,11.647,12.196,-4.019,6.794,9.217,16.841,0.433,8.974
Mon Dec 02 20:54:45 2024,790,-40.648,40.648,31.215,31.215,-0.187,12.145,11.578,5.298,11.808,12.214,-3.908,7.003,9.311,16.871,0.486,9.099
Mon Dec 02 20:54:45 2024,795,-40.629,40.629,31.177,31.177,-0.187,12.176,11.550,5.261,11.894,12.221,-3.841,7.127,9.361,16.884,0.514,9.161
Mon Dec 02 20:54:45 2024,800,-40.440,40.440,31.470,31.470,-0.192,12.243,11.646,5.250,11.972,12.263,-3.875,7.290,9.454,16.837,0.614,9.248
Mon Dec 02 20:54:45 2024,805,-40.257,40.257,31.779,31.779,-0.210,12.301,11.751,5.250,12.021,12.303,-3.932,7.412,9.531,16.785,0.705,9.316
Mon Dec 02 20:54:45 2024,810,-40.085,40.085,32.069,32.069,-0.237,12.354,11.850,5.250,12.067,12.340,-3.985,7.525,9.603,16.736,0.791,9.381
Mon Dec 02 20:54:45 2024,815,-39.693,39.693,32.163,32.163,-0.278,12.264,11.970,5.223,12.104,12.413,-4.061,7.471,9.644,16.676,0.786,9.481
Mon Dec 02 20:54:45 2024,820,-39.410,39.410,32.284,32.284,-0.314,12.218,12.067,5.206,12.136,12.467,-4.120,7.462,9.686,16.628,0.802,9.558
Mon Dec 02 20:54:45 2024,825,-39.020,39.020,32.684,32.684,-0.393,12.246,12.200,5.267,12.255,12.635,-4.139,7.494,9.780,16.746,0.727,9.646
Mon Dec 02 20:54:45 2024,830,-38.614,38.614,33.121,33.121,-0.483,12.283,12.338,5.338,12.381,12.819,-4.153,7.533,9.880,16.883,0.641,9.735
Mon Dec 02 20:54:45 2024,835,-38.241,38.241,33.395,33.395,-0.558,12.314,12.483,5.414,12.487,12.986,-4.197,7.537,9.973,16.983,0.603,9.831
Mon Dec 02 20:54:45 2024,840,-37.757,37.757,33.431,33.431,-0.625,12.352,12.714,5.538,12.610,13.191,-4.330,7.462,10.091,17.042,0.661,9.987
Mon Dec 02 20:54:45 2024,845,-37.264,37.264,33.516,33.516,-0.699,12.391,12.946,5.660,12.723,13.402,-4.456,7.396,10.212,17.113,0.703,10.145
Mon Dec 02 20:54:45 2024,850,-36.473,36.473,33.716,33.716,-0.721,12.615,12.890,5.809,12.867,13.298,-4.473,7.611,10.089,17.038,0.832,9.958
Mon Dec 02 20:54:45 2024,855,-35.570,35.570,33.968,33.968,-0.720,12.919,12.708,5.970,13.004,13.058,-4.442,7.949,9.859,16.901,0.999,9.622
Mon Dec 02 20:54:45 2024,860,-34.653,34.653,34.167,34.167,-0.676,13.301,12.705,6.093,13.109,12.895,-4.315,8.298,9.663,16.845,1.010,9.293
Mon Dec 02 20:54:45 2024,865,-33.866,33.866,34.294,34.294,-0.578,13.725,12.844,6.154,13.186,12.790,-4.085,8.639,9.493,16.860,0.863,8.968
Mon Dec 02 20:54:45 2024,870,-33.137,33.137,34.433,34.433,-0.483,14.132,12.966,6.223,13.245,12.682,-3.867,8.970,9.323,16.865,0.734,8.649
Mon Dec 02 20:54:45 2024,875,-31.046,31.046,34.102,34.102,-0.265,13.612,13.028,6.063,12.904,12.673,-4.255,7.906,9.285,16.469,0.731,8.924
Mon Dec 02 20:54:45 2024,880,-29.420,29.420,33.851,33.851,-0.010,13.206,13.085,5.938,12.530,12.656,-4.556,7.067,9.247,16.152,0.694,9.128
Mon Dec 02 20:54:45 2024,885,-27.668,27.668,32.832,32.832,0.002,12.898,13.165,5.777,12.354,12.635,-4.821,6.477,9.118,15.950,0.694,9.262
Mon Dec 02 20:54:45 2024,890,-25.918,25.918,31.087,31.087,-0.199,12.741,13.261,5.589,12.482,12.613,-5.013,6.232,8.900,15.897,0.758,9.302
Mon Dec 02 20:54:45 2024,895,-24.090,24.090,29.463,29.463,-0.282,12.532,13.363,5.385,12.551,12.589,-5.242,5.888,8.680,15.807,0.814,9.366
Mon Dec 02 20:54:45 2024,900,-21.916,21.916,25.902,25.902,-0.266,13.063,13.416,5.253,13.201,12.219,-5.126,6.701,8.583,15.922,0.871,9.361
Mon Dec 02 20:54:45 2024,905,-20.315,20.315,23.375,23.375,-0.268,13.415,13.465,5.139,13.644,11.955,-5.070,7.235,8.491,15.995,0.913,9.366
Mon Dec 02 20:54:45 2024,910,-19.021,19.021,20.421,20.421,-0.204,14.014,13.476,5.162,13.868,11.828,-4.988,7.592,8.393,15.879,1.024,9.224
Mon Dec 02 20:54:45 2024,915,-18.300,18.300,17.885,17.885,-0.110,14.654,13.452,5.291,13.861,11.847,-4.905,7.710,8.318,15.641,1.164,8.999
Mon Dec 02 20:54:45 2024,920,-17.615,17.615,15.592,15.592,0.076,15.236,13.435,5.394,13.879,11.838,-4.828,7.859,8.242,15.440,1.288,8.804
Mon Dec 02 20:54:45 2024,925,-16.913,16.913,12.299,12.299,0.256,15.555,13.357,5.589,13.581,11.982,-4.761,7.844,8.306,15.353,1.163,8.435
Mon Dec 02 20:54:45 2024,930,-16.338,16.338,9.504,9.504,0.449,15.865,13.292,5.758,13.338,12.098,-4.698,7.847,8.350,15.257,1.071,8.116
Mon Dec 02 20:54:45 2024,935,-15.970,15.970,7.775,7.775,0.441,15.987,13.047,5.761,13.265,12.027,-4.748,7.751,8.242,15.038,1.134,7.820
Mon Dec 02 20:54:45 2024,940,-15.654,15.654,6.139,6.139,0.316,16.040,12.636,5.673,13.266,11.832,-4.876,7.571,8.018,14.688,1.300,7.458
Mon Dec 02 20:54:45 2024,945,-15.425,15.425,4.596,4.596,0.229,16.109,12.288,5.614,13.244,11.680,-4.977,7.423,7.836,14.388,1.425,7.132
Mon Dec 02 20:54:45 2024,950,-15.471,15.471,3.766,3.766,0.272,16.575,12.212,5.628,13.319,11.728,-4.848,7.786,7.872,14.482,1.366,6.907
Mon Dec 02 20:54:45 2024,955,-15.505,15.505,-2.704,2.704,0.290,16.984,12.059,5.626,13.374,11.730,-4.765,8.052,7.854,14.483,1.348,6.635
Mon Dec 02 20:54:45 2024,960,-15.529,0.005,-2.016,2.016,0.252,17.266,11.976,5.614,13.438,11.714,-4.732,8.219,7.818,14.433,1.386,6.452
Mon Dec 02 20:54:45 2024,965,-15.553,-15.553,-1.356,1.356,0.162,17.555,11.916,5.592,13.531,11.678,-4.722,8.373,7.758,14.329,1.478,6.270
Mon Dec 02 20:54:45 2024,970,-15.614,-15.614,-0.831,0.831,0.101,17.811,11.853,5.576,13.601,11.653,-4.705,8.517,7.713,14.256,1.540,6.108
Mon Dec 02 20:54:45 2024,975,-15.387,-15.387,-0.607,0.607,0.159,17.927,11.748,5.553,13.520,11.688,-4.691,8.418,7.722,14.275,1.552,6.197
Mon Dec 02 20:54:45 2024,980,-15.316,-15.316,-0.755,-0.755,0.177,18.031,11.683,5.539,13.490,11.702,-4.680,8.395,7.718,14.271,1.570,6.214
Mon Dec 02 20:54:45 2024,985,-15.231,-15.231,-1.135,-1.135,0.174,18.369,11.566,5.581,13.568,11.681,-4.644,8.530,7.674,14.331,1.636,6.149
Mon Dec 02 20:54:45 2024,990,-15.143,-15.143,-1.618,-1.618,0.142,18.939,11.402,5.688,13.749,11.620,-4.581,8.841,7.584,14.461,1.747,5.994
Mon Dec 02 20:54:45 2024,995,-15.113,-15.113,-1.949,-1.949,0.131,19.257,11.304,5.741,13.819,11.589,-4.546,9.004,7.536,14.530,1.805,5.915
Mon Dec 02 20:54:46 2024,0,-14.982,-14.982,-2.324,-2.324,-0.128,19.171,11.241,5.743,13.833,11.642,-4.537,9.000,7.613,14.594,1.777,5.953
Mon Dec 02 20:54:46 2024,5,-14.951,-14.951,-2.635,-2.635,-0.289,19.156,11.181,5.757,13.855,11.666,-4.524,9.036,7.648,14.649,1.774,5.958
Mon Dec 02 20:54:46 2024,10,-14.920,-14.920,-2.914,-2.914,-0.460,19.121,11.113,5.749,13.898,11.661,-4.479,9.152,7.641,14.734,1.777,5.961
Mon Dec 02 20:54:46 2024,15,-14.935,-14.935,-3.128,-3.128,-0.589,19.072,11.062,5.744,13.928,11.659,-4.447,9.235,7.638,14.797,1.779,5.964
Mon Dec 02 20:54:46 2024,20,-15.017,-15.017,-3.303,-3.303,-0.711,19.037,11.034,5.740,13.957,11.647,-4.414,9.310,7.632,14.849,1.789,5.958
Mon Dec 02 20:54:46 2024,25,-15.232,-15.232,-3.242,-3.242,-0.764,19.123,11.106,5.746,13.975,11.602,-4.391,9.322,7.620,14.837,1.830,5.918
Mon Dec 02 20:54:46 2024,30,-15.446,-15.446,-3.242,-3.242,-0.829,19.133,11.155,5.748,13.993,11.565,-4.365,9.348,7.610,14.840,1.862,5.888
Mon Dec 02 20:54:46 2024,35,-15.657,-15.657,-3.324,-3.324,-0.920,19.055,11.272,5.613,14.109,11.566,-4.407,9.394,7.616,14.740,1.943,5.884
Mon Dec 02 20:54:46 2024,40,-15.858,-15.858,-3.394,-3.394,-0.996,21.011,11.368,5.505,14.201,11.565,-4.439,9.432,7.620,14.659,2.010,5.879
Mon Dec 02 20:54:46 2024,45,-16.042,-16.042,-3.468,-3.468,-1.081,19.573,11.376,5.454,14.237,11.623,-4.436,9.433,7.704,14.628,2.021,5.913
Mon Dec 02 20:54:46 2024,50,-16.238,-16.238,-3.556,-3.556,-1.185,18.692,11.318,5.439,14.237,11.733,-4.406,9.408,7.862,14.629,1.992,5.980
Mon Dec 02 20:54:46 2024,55,-16.409,-16.409,-3.628,-3.628,-1.269,18.526,11.277,5.422,14.240,11.819,-4.384,9.389,7.984,14.626,1.973,6.033
Mon Dec 02 20:54:46 2024,60,-16.598,-16.598,-3.516,-3.516,-1.243,18.627,11.391,5.460,14.274,11.881,-4.306,9.614,8.038,14.677,2.052,6.114
Mon Dec 02 20:54:46 2024,65,-16.767,-16.767,-3.436,-3.436,-1.231,18.681,11.475,5.488,14.296,11.938,-4.245,9.787,8.093,14.716,2.112,6.183
Mon Dec 02 20:54:46 2024,70,-16.977,-16.977,-3.542,-3.542,-1.234,18.704,11.462,5.474,14.332,11.965,-4.194,9.912,8.168,14.730,2.186,6.286
Mon Dec 02 20:54:46 2024,75,-17.240,-17.240,-3.871,-3.871,-1.253,18.694,11.326,5.412,14.390,11.956,-4.154,9.982,8.270,14.716,2.283,6.432
Mon Dec 02 20:54:46 2024,80,-17.453,-17.453,-4.095,-4.095,-1.265,18.692,11.242,5.371,14.433,11.956,-4.119,10.052,8.349,14.710,2.357,6.545
Mon Dec 02 20:54:46 2024,85,-17.666,-17.666,-4.094,-4.094,-1.359,18.586,11.342,5.392,14.434,12.040,-4.056,10.186,8.440,14.739,2.290,6.544
Mon Dec 02 20:54:46 2024,90,-17.842,-17.842,-4.124,-4.124,-1.424,18.515,11.397,5.400,14.441,12.097,-4.010,10.286,8.512,14.757,2.254,6.558
Mon Dec 02 20:54:46 2024,95,-18.059,-18.059,-4.315,-4.315,-1.421,18.527,11.362,5.421,14.435,12.118,-3.989,10.360,8.546,14.764,2.285,6.568
Mon Dec 02 20:54:46 2024,100,-18.250,-18.250,-4.454,-4.454,-1.404,19.320,11.327,5.438,14.429,12.125,-3.967,10.417,8.572,14.778,2.309,6.593
Mon Dec 02 20:54:46 2024,105,-18.442,-18.442,-4.556,-4.556,-1.387,20.624,11.299,5.452,14.425,12.132,-3.936,10.477,8.605,14.798,2.321,6.630
Mon Dec 02 20:54:46 2024,110,-18.647,-18.647,-4.618,-4.618,-1.370,21.395,11.282,5.464,14.421,12.139,-3.895,10.541,8.645,14.830,2.320,6.685
Mon Dec 02 20:54:46 2024,115,-18.859,-18.859,-4.618,-4.618,-1.354,21.371,11.280,5.473,14.419,12.144,-3.840,10.610,8.695,14.874,2.299,6.762
Mon Dec 02 20:54:46 2024,120,-19.075,-19.075,-4.651,-4.651,-1.364,21.382,11.169,5.481,14.414,12.108,-3.864,10.599,8.707,14.798,2.352,6.744
Mon Dec 02 20:54:46 2024,125,-19.274,-19.274,-4.689,-4.689,-1.378,21.400,11.047,5.488,14.409,12.065,-3.903,10.574,8.711,14.705,2.416,6.710
Mon Dec 02 20:54:46 2024,130,-19.504,-19.504,-4.713,-4.713,-1.444,21.474,10.913,5.494,14.410,12.045,-3.915,10.588,8.728,14.671,2.442,6.692
Mon Dec 02 20:54:46 2024,135,-19.783,-19.783,-4.710,-4.710,-1.606,18.347,10.759,5.498,14.424,12.066,-3.877,10.677,8.774,14.744,2.398,6.705
Mon Dec 02 20:54:46 2024,140,-20.043,-20.043,-4.710,-4.710,-1.747,18.190,10.616,5.502,14.434,12.080,-3.848,10.752,8.812,14.801,2.365,6.714
Mon Dec 02 20:54:46 2024,145,-20.123,-20.123,-4.804,-4.804,-1.800,18.130,10.533,5.518,14.420,12.113,-3.847,10.721,8.870,14.800,2.411,6.805
Mon Dec 02 20:54:46 2024,150,-20.205,-20.205,-4.910,-4.910,-1.855,18.069,10.445,5.536,14.404,12.150,-3.848,10.683,8.934,14.798,2.464,6.909
Mon Dec 02 20:54:46 2024,155,-20.260,-20.260,-5.021,-5.021,-1.903,18.012,10.321,5.550,14.390,12.134,-3.837,10.675,8.945,14.767,2.490,6.891
Mon Dec 02 20:54:46 2024,160,-20.290,-20.290,-5.133,-5.133,-1.944,17.960,10.170,5.560,14.379,12.071,-3.815,10.696,8.907,14.711,2.492,6.760
Mon Dec 02 20:54:46 2024,165,-20.322,-20.322,-5.245,-5.245,-1.985,17.908,10.020,5.571,14.366,12.010,-3.795,10.715,8.872,14.656,2.494,6.636
Mon Dec 02 20:54:46 2024,170,-20.479,-20.479,-5.219,-5.219,-2.055,17.816,10.022,5.516,14.426,12.081,-3.835,10.700,8.957,14.753,2.469,6.753
Mon Dec 02 20:54:46 2024,175,-20.618,-20.618,-5.197,-5.197,-2.117,17.734,10.024,5.467,14.478,12.143,-3.870,10.686,9.032,14.839,2.446,6.857
Mon Dec 02 20:54:46 2024,180,-20.727,-20.727,-5.179,-5.179,-2.166,17.670,10.026,5.429,14.520,12.193,-3.897,10.675,9.091,14.906,2.427,6.939
Mon Dec 02 20:54:46 2024,185,-20.610,-20.610,-5.269,-5.269,-2.080,17.710,9.875,5.547,14.398,12.216,-3.857,10.537,9.067,14.717,2.440,6.826
Mon Dec 02 20:54:46 2024,190,-20.586,-20.586,-5.305,-5.305,-2.054,17.709,9.806,5.592,14.353,12.241,-3.846,10.470,9.071,14.647,2.440,6.796
Mon Dec 02 20:54:46 2024,195,-20.618,-20.618,-5.337,-5.337,-2.065,17.762,9.847,5.615,14.346,12.210,-3.787,10.624,9.071,14.730,2.431,6.787
Mon Dec 02 20:54:46 2024,200,-20.644,-20.644,-5.368,-5.368,-2.072,17.800,9.875,5.637,14.334,12.186,-3.736,10.750,9.072,14.795,2.423,6.778
Mon Dec 02 20:54:46 2024,205,-20.690,-20.690,-5.351,-5.351,-2.144,17.717,9.810,5.603,14.367,12.169,-3.743,10.738,9.067,14.781,2.436,6.788
Mon Dec 02 20:54:46 2024,210,-20.747,-20.747,-5.304,-5.304,-2.255,17.561,9.686,5.532,14.426,12.158,-3.787,10.638,9.059,14.713,2.460,6.813
Mon Dec 02 20:54:46 2024,215,-20.773,-20.773,-5.287,-5.287,-2.320,17.463,9.593,5.499,14.452,12.146,-3.817,10.566,9.047,14.654,2.479,6.798
Mon Dec 02 20:54:46 2024,220,-20.714,-20.714,-5.343,-5.343,-2.271,17.496,9.541,5.553,14.395,12.135,-3.830,10.531,9.023,14.580,2.485,6.668
Mon Dec 02 20:54:46 2024,225,-20.647,-20.647,-5.408,-5.408,-2.214,17.535,9.484,5.617,14.329,12.123,-3.843,10.491,8.995,14.496,2.493,6.522
Mon Dec 02 20:54:46 2024,230,-20.675,-20.675,-5.377,-5.377,-2.197,17.584,9.474,5.614,14.339,12.151,-3.807,10.630,9.059,14.569,2.503,6.594
Mon Dec 02 20:54:46 2024,235,-20.717,-20.717,-5.334,-5.334,-2.188,17.628,9.472,5.601,14.361,12.184,-3.767,10.784,9.131,14.660,2.512,6.696
Mon Dec 02 20:54:46 2024,240,-20.758,-20.758,-5.292,-5.292,-2.180,17.668,9.470,5.588,14.381,12.215,-3.728,10.936,9.202,14.748,2.519,6.795
Mon Dec 02 20:54:46 2024,245,-20.598,-20.598,-5.363,-5.363,-2.235,17.603,9.379,5.606,14.354,12.159,-3.739,10.781,9.144,14.763,2.448,6.714
Mon Dec 02 20:54:46 2024,250,-20.498,-20.498,-5.403,-5.403,-2.270,17.566,9.319,5.615,14.339,12.126,-3.740,10.702,9.117,14.789,2.402,6.677
Mon Dec 02 20:54:46 2024,255,-20.425,-20.425,-5.433,-5.433,-2.301,17.529,9.286,5.617,14.340,12.143,-3.762,10.661,9.091,14.720,2.430,6.618
Mon Dec 02 20:54:46 2024,260,-20.356,-20.356,-5.462,-5.462,-2.331,17.492,9.256,5.618,14.343,12.166,-3.786,10.625,9.064,14.640,2.466,6.556
Mon Dec 02 20:54:46 2024,265,-20.330,-20.330,-5.482,-5.482,-2.264,17.578,9.302,5.618,14.341,12.168,-3.796,10.626,9.060,14.611,2.500,6.575
Mon Dec 02 20:54:46 2024,270,-20.364,-20.364,-5.487,-5.487,-2.070,17.825,9.446,5.614,14.331,12.142,-3.786,10.678,9.084,14.655,2.530,6.700
Mon Dec 02 20:54:46 2024,275,-20.400,-20.400,-5.493,-5.493,-1.863,18.082,9.599,5.611,14.318,12.114,-3.776,10.732,9.109,14.700,2.561,6.834
Mon Dec 02 20:54:46 2024,280,-20.510,-20.510,-5.366,-5.366,-1.550,21.556,9.910,5.568,14.334,12.058,-3.834,10.672,9.050,14.572,2.615,6.870
Mon Dec 02 20:54:46 2024,285,-20.622,-20.622,-5.238,-5.238,-1.233,21.266,10.230,5.525,14.345,12.000,-3.893,10.612,8.989,14.442,2.669,6.908
Mon Dec 02 20:54:46 2024,290,-20.718,-20.718,-5.127,-5.127,-0.958,21.082,10.508,5.488,14.352,11.952,-3.944,10.560,8.937,14.329,2.715,6.940
Mon Dec 02 20:54:46 2024,295,-20.733,-20.733,-4.933,-4.933,-0.219,21.370,11.385,5.556,14.272,11.949,-3.967,10.665,8.929,14.397,2.617,7.006
Mon Dec 02 20:54:46 2024,300,-20.772,-20.772,-4.764,-4.764,0.383,22.079,12.103,5.592,14.217,11.934,-3.998,10.724,8.909,14.411,2.561,7.061
Mon Dec 02 20:54:46 2024,305,-20.819,-20.819,-4.670,-4.670,1.253,23.044,13.272,5.646,14.102,11.985,-4.105,10.636,8.843,14.239,2.477,7.074
Mon Dec 02 20:54:46 2024,310,-20.860,-20.860,-4.590,-4.590,2.022,23.971,14.323,5.693,13.996,12.031,-4.200,10.557,8.786,14.083,2.396,7.083
Mon Dec 02 20:54:46 2024,315,-20.903,-20.903,-4.508,-4.508,2.820,24.966,15.427,5.740,13.881,12.079,-4.298,10.474,8.728,13.923,2.306,7.093
Mon Dec 02 20:54:46 2024,320,-20.925,-20.925,-4.464,-4.464,3.239,25.497,16.011,5.766,13.820,12.105,-4.349,10.431,8.698,13.839,2.255,7.098
Mon Dec 02 20:54:46 2024,325,-20.935,-20.935,-4.446,-4.446,3.426,25.735,16.272,5.777,13.791,12.116,-4.371,10.412,8.684,13.801,2.232,7.101
Mon Dec 02 20:54:46 2024,330,-21.013,-21.013,-4.102,-4.102,4.608,28.750,21.376,5.872,13.700,12.120,-4.680,10.114,8.780,13.695,2.118,7.425
Mon Dec 02 20:54:46 2024,335,-21.073,-21.073,-3.867,-3.867,5.572,30.929,25.004,5.944,13.612,12.137,-4.898,9.906,8.826,13.585,2.018,7.630
Mon Dec 02 20:54:46 2024,340,-21.142,-21.142,-3.796,-3.796,6.257,33.488,28.564,6.092,13.454,12.048,-5.010,9.713,8.750,13.430,2.023,7.634
Mon Dec 02 20:54:46 2024,345,-21.218,-21.218,-3.772,-3.772,6.871,36.463,32.589,6.282,13.262,11.910,-5.096,9.504,8.632,13.254,2.070,7.576
Mon Dec 02 20:54:46 2024,350,-21.292,-21.292,-3.760,-3.760,7.445,39.424,36.713,6.470,13.073,11.771,-5.173,9.302,8.513,13.083,2.119,7.512
Mon Dec 02 20:54:46 2024,355,-21.031,-21.031,-3.717,-3.717,7.392,43.897,43.119,6.590,13.063,11.610,-5.098,9.345,8.620,12.916,2.430,7.467
Mon Dec 02 20:54:46 2024,360,-20.801,-20.801,-3.676,-3.676,7.425,48.554,50.087,6.722,13.018,11.445,-5.040,9.359,8.704,12.742,2.719,7.418
Mon Dec 02 20:54:46 2024,365,-20.679,-20.679,-3.935,-3.935,8.357,52.848,55.839,6.732,13.043,11.497,-5.125,9.281,8.652,12.501,3.049,7.375
Mon Dec 02 20:54:46 2024,370,-20.647,-20.647,-4.567,-4.567,10.435,57.684,61.647,6.619,13.157,11.788,-5.383,9.090,8.445,12.134,3.501,7.328
Mon Dec 02 20:54:46 2024,375,-20.645,-20.645,-4.987,-4.987,11.961,61.598,67.097,6.556,13.204,12.112,-5.549,8.902,8.413,11.847,3.814,7.379
Mon Dec 02 20:54:46 2024,380,-20.812,-20.812,-5.077,-5.077,12.075,61.707,69.901,6.532,13.096,12.834,-5.574,8.610,8.844,11.741,3.713,7.755
Mon Dec 02 20:54:46 2024,385,-20.956,-20.956,-5.189,-5.189,12.306,62.139,72.774,6.510,12.986,13.465,-5.607,8.349,9.201,11.630,3.650,8.074
Mon Dec 02 20:54:46 2024,390,-20.920,-20.920,-5.164,-5.164,12.578,62.404,74.897,6.593,12.821,14.000,-5.675,8.018,9.378,11.454,3.548,8.233
Mon Dec 02 20:54:46 2024,395,-20.841,-20.841,-5.106,-5.106,12.849,62.614,76.730,6.698,12.652,14.487,-5.751,7.683,9.503,11.267,3.436,8.344
Mon Dec 02 20:54:46 2024,400,-20.782,-20.782,-5.064,-5.064,13.054,62.775,78.111,6.775,12.524,14.856,-5.808,7.430,9.597,11.125,3.348,8.428
Mon Dec 02 20:54:46 2024,405,-20.817,-20.817,-4.920,-4.920,12.849,63.777,80.047,6.813,12.591,15.129,-5.739,7.639,9.786,11.069,3.507,8.585
Mon Dec 02 20:54:46 2024,410,-20.829,-20.829,-4.822,-4.822,12.756,64.458,81.515,6.851,12.608,15.371,-5.704,7.729,9.925,11.008,3.594,8.702
Mon Dec 02 20:54:46 2024,415,-20.799,-20.799,-4.854,-4.854,12.587,65.304,83.163,6.935,12.605,15.551,-5.483,8.044,10.146,10.984,3.690,8.802
Mon Dec 02 20:54:46 2024,420,-20.727,-20.727,-5.011,-5.011,12.347,66.303,84.961,7.063,12.577,15.669,-5.084,8.573,10.448,10.995,3.792,8.885
Mon Dec 02 20:54:46 2024,425,-20.681,-20.681,-5.102,-5.102,12.178,67.098,86.386,7.154,12.553,15.790,-4.810,8.945,10.678,10.993,3.875,8.960
Mon Dec 02 20:54:46 2024,430,-20.563,-20.563,-5.497,-5.497,11.741,67.881,87.494,7.110,12.710,15.886,-4.789,9.153,10.726,10.954,4.144,9.037
Mon Dec 02 20:54:46 2024,435,-20.476,-20.476,-5.772,-5.772,11.437,68.610,88.553,7.105,12.783,15.983,-4.703,9.386,10.821,10.929,4.336,9.107
Mon Dec 02 20:54:46 2024,440,-20.440,-20.440,-5.749,-5.749,11.206,69.320,89.277,7.158,12.775,16.024,-4.549,9.507,10.841,10.898,4.397,9.144
Mon Dec 02 20:54:46 2024,445,-20.422,-20.422,-5.601,-5.601,10.989,70.111,89.937,7.240,12.727,16.048,-4.349,9.593,10.832,10.861,4.412,9.174
Mon Dec 02 20:54:46 2024,450,-20.369,-20.369,-5.560,-5.560,10.819,70.852,90.526,7.275,12.712,16.075,-4.190,9.787,10.859,10.816,4.493,9.201
Mon Dec 02 20:54:46 2024,455,-20.228,-20.228,-5.617,-5.617,10.650,71.910,91.215,7.248,12.752,16.103,-4.001,10.299,10.952,10.723,4.719,9.227
Mon Dec 02 20:54:46 2024,460,-20.122,-20.122,-5.650,-5.650,10.550,72.772,91.756,7.235,12.764,16.129,-3.847,10.685,11.022,10.652,4.889,9.250
Mon Dec 02 20:54:46 2024,465,-20.041,-20.041,-5.579,-5.579,10.789,73.774,92.096,7.385,12.595,16.205,-3.770,10.841,10.916,10.594,5.088,9.213
Mon Dec 02 20:54:46 2024,470,-19.957,-19.957,-5.509,-5.509,11.045,74.819,92.443,7.533,12.409,16.285,-3.686,11.015,10.814,10.532,5.295,9.177
Mon Dec 02 20:54:46 2024,475,-19.894,-19.894,-5.458,-5.458,11.251,75.607,92.695,7.644,12.258,16.346,-3.624,11.147,10.737,10.484,5.451,9.151
Mon Dec 02 20:54:46 2024,480,-19.828,-19.828,-5.325,-5.325,11.298,76.297,92.899,7.773,12.051,16.517,-3.396,11.770,10.963,10.554,5.417,9.261
Mon Dec 02 20:54:46 2024,485,-19.763,-19.763,-5.221,-5.221,11.433,77.047,93.117,7.896,11.841,16.654,-3.229,12.220,11.080,10.579,5.454,9.322
Mon Dec 02 20:54:46 2024,490,-19.702,-19.702,-5.160,-5.160,11.670,77.749,92.985,7.976,28.371,16.761,-3.177,12.425,10.988,10.474,5.607,9.168
Mon Dec 02 20:54:46 2024,495,-19.650,-19.650,-5.102,-5.102,11.871,78.358,92.908,8.048,28.572,16.859,-3.119,12.628,10.934,10.399,5.724,9.061
Mon Dec 02 20:54:46 2024,500,-19.607,-19.607,-4.989,-4.989,12.107,78.991,92.952,8.081,28.742,16.990,-3.043,12.915,10.928,10.342,5.835,8.997
Mon Dec 02 20:54:46 2024,505,-19.578,-19.578,-4.736,-4.736,12.441,79.758,93.277,8.034,28.852,17.203,-2.911,13.422,11.027,10.319,5.943,9.022
Mon Dec 02 20:54:46 2024,510,-19.546,-19.546,-4.601,-4.601,12.680,80.522,93.260,8.036,29.056,17.418,-2.794,13.825,11.045,10.298,6.061,8.979
Mon Dec 02 20:54:46 2024,515,-19.520,-19.520,-4.542,-4.542,12.829,81.214,93.049,8.059,29.281,17.625,-2.688,14.149,11.022,10.290,6.170,8.910
Mon Dec 02 20:54:46 2024,520,-19.496,-19.496,-4.498,-4.498,12.986,81.887,92.798,8.085,29.520,17.831,-2.586,14.455,10.992,10.285,6.276,8.836
Mon Dec 02 20:54:46 2024,525,-19.506,-19.506,-4.159,-4.159,13.428,82.880,92.764,8.074,29.792,18.084,-2.511,14.701,10.996,10.228,6.431,8.796
Mon Dec 02 20:54:46 2024,530,-19.525,-19.525,-3.804,-3.804,13.886,83.790,92.786,8.051,30.040,18.310,-2.458,14.890,11.009,10.165,6.571,8.773
Mon Dec 02 20:54:46 2024,535,-19.542,-19.542,-3.473,-3.473,14.337,84.660,92.795,8.028,30.288,18.529,-2.408,15.069,11.022,10.104,6.706,8.751
Mon Dec 02 20:54:46 2024,540,-19.489,-19.489,-3.434,-3.434,15.078,86.091,93.235,8.059,30.901,19.295,-2.235,15.446,11.263,10.199,6.803,8.861
Mon Dec 02 20:54:46 2024,545,-19.460,-19.460,-3.378,-3.378,15.586,87.011,93.462,8.074,31.304,19.769,-2.131,15.682,11.406,10.247,6.871,8.924
Mon Dec 02 20:54:46 2024,550,-19.386,-19.386,-3.349,-3.349,16.293,88.107,93.730,7.967,31.816,20.486,-2.062,15.916,11.587,10.266,7.029,9.023
Mon Dec 02 20:54:46 2024,555,-19.310,-19.310,-3.336,-3.336,16.958,89.069,93.947,7.838,32.299,21.167,-2.018,16.106,11.749,10.272,7.186,9.117
Mon Dec 02 20:54:46 2024,560,-19.250,-19.250,-3.325,-3.325,17.509,89.840,94.106,7.732,32.706,21.720,-1.983,16.257,11.880,10.277,7.309,9.193
Mon Dec 02 20:54:46 2024,565,-19.196,-19.196,-3.295,-3.295,18.584,91.444,94.464,7.690,33.271,22.559,-2.025,16.319,12.170,10.082,7.440,9.260
