Timestamp,Millis,thumb_tm_aa,thumb_tm_flex,thumb_mcp_aa,thumb_mcp_flex,index_mcp_aa,index_mcp_flex,index_pip,middle_mcp_aa,middle_mcp_flex,middle_pip,ring_mcp_aa,ring_mcp_flex,ring_pip,little_mcp_aa,little_mcp_flex,little_pip
Mon Dec 02 20:44:41 2024,5,-25.178,-25.178,0.739,0.739,0.614,20.650,8.837,5.144,25.313,13.112,-4.795,11.647,7.950,10.501,8.105,4.516
Mon Dec 02 20:44:41 2024,10,-25.178,-25.178,0.740,0.740,0.616,20.654,8.839,5.143,25.312,13.111,-4.796,11.649,7.949,10.501,8.105,4.516
Mon Dec 02 20:44:41 2024,15,-25.178,-25.178,0.740,0.740,0.618,20.658,8.840,5.143,25.310,13.109,-4.796,11.651,7.949,10.502,8.106,4.516
Mon Dec 02 20:44:41 2024,20,-25.178,-25.178,0.741,0.741,0.620,20.661,8.841,5.142,25.309,13.108,-4.796,11.653,7.949,10.502,8.106,4.516
Mon Dec 02 20:44:41 2024,25,-25.177,-25.177,0.742,0.742,0.622,20.665,8.843,5.141,25.308,13.106,-4.797,11.655,7.948,10.502,8.106,4.516
Mon Dec 02 20:44:41 2024,30,-25.177,-25.177,0.743,0.743,0.624,20.669,8.844,5.140,25.306,13.105,-4.797,11.657,7.948,10.503,8.106,4.516
Mon Dec 02 20:44:41 2024,35,-25.177,-25.177,0.743,0.743,0.626,20.672,8.845,5.139,25.305,13.103,-4.797,11.659,7.948,10.503,8.107,4.517
Mon Dec 02 20:44:41 2024,40,-25.177,-25.177,0.744,0.744,0.628,20.676,8.847,5.138,25.304,13.102,-4.797,11.661,7.947,10.503,8.107,4.517
Mon Dec 02 20:44:41 2024,45,-25.177,-25.177,0.745,0.745,0.630,20.680,8.848,5.138,25.302,13.100,-4.798,11.663,7.947,10.504,8.107,4.517
Mon Dec 02 20:44:41 2024,50,-25.177,-25.177,0.746,0.746,0.632,20.684,8.849,5.137,25.301,13.098,-4.798,11.665,7.947,10.504,8.107,4.517
Mon Dec 02 20:44:41 2024,55,-25.177,-25.177,0.746,0.746,0.634,20.687,8.851,5.136,25.300,13.097,-4.798,11.667,7.946,10.504,8.107,4.517
Mon Dec 02 20:44:41 2024,60,-25.177,-25.177,0.747,0.747,0.636,20.691,8.852,5.135,25.298,13.095,-4.798,11.669,7.946,10.505,8.108,4.517
Mon Dec 02 20:44:41 2024,65,-25.176,-25.176,0.748,0.748,0.638,20.695,8.853,5.134,25.297,13.094,-4.799,11.671,7.946,10.505,8.108,4.518
Mon Dec 02 20:44:41 2024,70,-25.176,-25.176,0.749,0.749,0.640,20.698,8.855,5.133,25.296,13.092,-4.799,11.674,7.945,10.505,8.108,4.518
Mon Dec 02 20:44:41 2024,75,-25.176,-25.176,0.749,0.749,0.642,20.702,8.856,5.133,25.294,13.091,-4.799,11.676,7.945,10.506,8.108,4.518
Mon Dec 02 20:44:41 2024,80,-25.176,-25.176,0.750,0.750,0.644,20.706,8.857,5.132,25.293,13.089,-4.800,11.678,7.945,10.506,8.109,4.518
Mon Dec 02 20:44:41 2024,85,-25.176,-25.176,0.751,0.751,0.646,20.710,8.859,5.131,25.292,13.088,-4.800,11.680,7.944,10.506,8.109,4.518
Mon Dec 02 20:44:41 2024,90,-25.176,-25.176,0.752,0.752,0.648,20.713,8.860,5.130,25.290,13.086,-4.800,11.682,7.944,10.507,8.109,4.518
Mon Dec 02 20:44:41 2024,95,-25.176,-25.176,0.752,0.752,0.650,20.717,8.861,5.129,25.289,13.085,-4.800,11.684,7.944,10.507,8.109,4.519
Mon Dec 02 20:44:41 2024,100,-25.176,-25.176,0.753,0.753,0.652,20.721,8.863,5.128,25.288,13.083,-4.801,11.686,7.943,10.507,8.110,4.519
Mon Dec 02 20:44:41 2024,105,-25.175,-25.175,0.754,0.754,0.654,20.724,8.864,5.128,25.287,13.082,-4.801,11.688,7.943,10.507,8.110,4.519
Mon Dec 02 20:44:41 2024,110,-25.175,-25.175,0.755,0.755,0.656,20.728,8.865,5.127,25.285,13.080,-4.801,11.690,7.943,10.508,8.110,4.519
Mon Dec 02 20:44:41 2024,115,-25.175,-25.175,0.755,0.755,0.658,20.732,8.867,5.126,25.284,13.079,-4.801,11.692,7.942,10.508,8.110,4.519
Mon Dec 02 20:44:41 2024,120,-25.175,-25.175,0.756,0.756,0.660,20.735,8.868,5.125,25.283,13.077,-4.802,11.694,7.942,10.508,8.110,4.519
Mon Dec 02 20:44:41 2024,125,-25.175,-25.175,0.757,0.757,0.662,20.739,8.869,5.124,25.281,13.076,-4.802,11.696,7.942,10.509,8.111,4.520
Mon Dec 02 20:44:41 2024,130,-25.175,-25.175,0.758,0.758,0.664,20.743,8.871,5.123,25.280,13.074,-4.802,11.698,7.941,10.509,8.111,4.520
Mon Dec 02 20:44:41 2024,135,-25.175,-25.175,0.758,0.758,0.666,20.747,8.872,5.123,25.279,13.073,-4.802,11.700,7.941,10.509,8.111,4.520
Mon Dec 02 20:44:41 2024,140,-25.175,-25.175,0.759,0.759,0.668,20.750,8.873,5.122,25.277,13.071,-4.803,11.702,7.941,10.510,8.111,4.520
Mon Dec 02 20:44:41 2024,145,-25.175,-25.175,0.760,0.760,0.670,20.754,8.875,5.121,25.276,13.070,-4.803,11.704,7.940,10.510,8.112,4.520
Mon Dec 02 20:44:41 2024,150,-25.174,-25.174,0.761,0.761,0.672,20.758,8.876,5.120,25.275,13.068,-4.803,11.706,7.940,10.510,8.112,4.520
Mon Dec 02 20:44:41 2024,155,-25.174,-25.174,0.761,0.761,0.674,20.761,8.877,5.119,25.273,13.067,-4.804,11.708,7.940,10.511,8.112,4.521
Mon Dec 02 20:44:41 2024,160,-25.174,-25.174,0.762,0.762,0.676,20.765,8.879,5.118,25.272,13.065,-4.804,11.710,7.939,10.511,8.112,4.521
Mon Dec 02 20:44:41 2024,165,-25.174,-25.174,0.763,0.763,0.678,20.769,8.880,5.118,25.271,13.064,-4.804,11.712,7.939,10.511,8.113,4.521
Mon Dec 02 20:44:41 2024,170,-25.174,-25.174,0.764,0.764,0.680,20.773,8.881,5.117,25.269,13.062,-4.804,11.715,7.939,10.512,8.113,4.521
Mon Dec 02 20:44:41 2024,175,-25.174,-25.174,0.764,0.764,0.682,20.776,8.883,5.116,25.268,13.061,-4.805,11.717,7.938,10.512,8.113,4.521
Mon Dec 02 20:44:41 2024,180,-25.174,-25.174,0.765,0.765,0.684,20.780,8.884,5.115,25.267,13.059,-4.805,11.719,7.938,10.512,8.113,4.521
Mon Dec 02 20:44:41 2024,185,-25.174,-25.174,0.766,0.766,0.686,20.784,8.885,5.114,25.265,13.058,-4.805,11.721,7.937,10.513,8.113,4.522
Mon Dec 02 20:44:41 2024,190,-25.173,-25.173,0.767,0.767,0.688,20.787,8.887,5.113,25.264,13.056,-4.805,11.723,7.937,10.513,8.114,4.522
Mon Dec 02 20:44:41 2024,195,-25.173,-25.173,0.767,0.767,0.690,20.791,8.888,5.113,25.263,13.055,-4.806,11.725,7.937,10.513,8.114,4.522
Mon Dec 02 20:44:41 2024,200,-25.173,-25.173,0.768,0.768,0.692,20.795,8.889,5.112,25.262,13.053,-4.806,11.727,7.936,10.514,8.114,4.522
Mon Dec 02 20:44:41 2024,205,-25.173,-25.173,0.769,0.769,0.694,20.799,8.891,5.111,25.260,13.052,-4.806,11.729,7.936,10.514,8.114,4.522
Mon Dec 02 20:44:41 2024,210,-25.173,-25.173,0.770,0.770,0.696,20.802,8.892,5.110,25.259,13.050,-4.807,11.731,7.936,10.514,8.115,4.522
Mon Dec 02 20:44:41 2024,215,-25.173,-25.173,0.770,0.770,0.698,20.806,8.893,5.109,25.258,13.049,-4.807,11.733,7.935,10.515,8.115,4.523
Mon Dec 02 20:44:41 2024,220,-25.173,-25.173,0.771,0.771,0.700,20.810,8.895,5.108,25.256,13.047,-4.807,11.735,7.935,10.515,8.115,4.523
Mon Dec 02 20:44:41 2024,225,-25.173,-25.173,0.772,0.772,0.702,20.813,8.896,5.108,25.255,13.046,-4.807,11.737,7.935,10.515,8.115,4.523
Mon Dec 02 20:44:41 2024,230,-25.172,-25.172,0.773,0.773,0.704,20.817,8.897,5.107,25.254,13.044,-4.808,11.739,7.934,10.516,8.116,4.523
Mon Dec 02 20:44:41 2024,235,-25.172,-25.172,0.773,0.773,0.706,20.821,8.899,5.106,25.252,13.043,-4.808,11.741,7.934,10.516,8.116,4.523
Mon Dec 02 20:44:41 2024,240,-25.172,-25.172,0.774,0.774,0.708,20.825,8.900,5.105,25.251,13.041,-4.808,11.743,7.934,10.516,8.116,4.523
Mon Dec 02 20:44:41 2024,245,-25.172,-25.172,0.775,0.775,0.710,20.828,8.901,5.104,25.250,13.040,-4.808,11.745,7.933,10.517,8.116,4.524
Mon Dec 02 20:44:41 2024,250,-25.172,-25.172,0.776,0.776,0.712,20.832,8.903,5.103,25.248,13.038,-4.809,11.747,7.933,10.517,8.116,4.524
Mon Dec 02 20:44:41 2024,255,-25.172,-25.172,0.776,0.776,0.714,20.836,8.904,5.103,25.247,13.036,-4.809,11.749,7.933,10.517,8.117,4.524
Mon Dec 02 20:44:41 2024,260,-25.172,-25.172,0.777,0.777,0.716,20.839,8.905,5.102,25.246,13.035,-4.809,11.751,7.932,10.518,8.117,4.524
Mon Dec 02 20:44:41 2024,265,-25.172,-25.172,0.778,0.778,0.718,20.843,8.907,5.101,25.244,13.033,-4.809,11.753,7.932,10.518,8.117,4.524
Mon Dec 02 20:44:41 2024,270,-25.171,-25.171,0.779,0.779,0.720,20.847,8.908,5.100,25.243,13.032,-4.810,11.756,7.932,10.518,8.117,4.524
Mon Dec 02 20:44:41 2024,275,-25.171,-25.171,0.779,0.779,0.722,20.851,8.909,5.099,25.242,13.030,-4.810,11.758,7.931,10.519,8.118,4.525
Mon Dec 02 20:44:41 2024,280,-25.171,-25.171,0.780,0.780,0.724,20.854,8.911,5.098,25.240,13.029,-4.810,11.760,7.931,10.519,8.118,4.525
Mon Dec 02 20:44:41 2024,285,-25.171,-25.171,0.781,0.781,0.726,20.858,8.912,5.098,25.239,13.027,-4.811,11.762,7.931,10.519,8.118,4.525
Mon Dec 02 20:44:41 2024,290,-25.171,-25.171,0.782,0.782,0.728,20.862,8.913,5.097,25.238,13.026,-4.811,11.764,7.930,10.519,8.118,4.525
Mon Dec 02 20:44:41 2024,295,-25.171,-25.171,0.782,0.782,0.730,20.865,8.915,5.096,25.236,13.024,-4.811,11.766,7.930,10.520,8.119,4.525
Mon Dec 02 20:44:41 2024,300,-25.171,-25.171,0.783,0.783,0.732,20.869,8.916,5.095,25.235,13.023,-4.811,11.768,7.930,10.520,8.119,4.525
Mon Dec 02 20:44:41 2024,305,-25.171,-25.171,0.784,0.784,0.734,20.873,8.917,5.094,25.234,13.021,-4.812,11.770,7.929,10.520,8.119,4.526
Mon Dec 02 20:44:41 2024,310,-25.171,-25.171,0.785,0.785,0.736,20.876,8.919,5.093,25.233,13.020,-4.812,11.772,7.929,10.521,8.119,4.526
Mon Dec 02 20:44:41 2024,315,-25.170,-25.170,0.785,0.785,0.738,20.880,8.920,5.093,25.231,13.018,-4.812,11.774,7.929,10.521,8.120,4.526
Mon Dec 02 20:44:41 2024,320,-25.170,-25.170,0.786,0.786,0.740,20.884,8.921,5.092,25.230,13.017,-4.812,11.776,7.928,10.521,8.120,4.526
Mon Dec 02 20:44:41 2024,325,-25.170,-25.170,0.787,0.787,0.742,20.888,8.923,5.091,25.229,13.015,-4.813,11.778,7.928,10.522,8.120,4.526
Mon Dec 02 20:44:41 2024,330,-25.170,-25.170,0.788,0.788,0.744,20.891,8.924,5.090,25.227,13.014,-4.813,11.780,7.928,10.522,8.120,4.526
Mon Dec 02 20:44:41 2024,335,-25.170,-25.170,0.789,0.789,0.746,20.895,8.925,5.089,25.226,13.012,-4.813,11.782,7.927,10.522,8.120,4.527
Mon Dec 02 20:44:41 2024,340,-25.170,-25.170,0.789,0.789,0.748,20.899,8.927,5.088,25.225,13.011,-4.813,11.784,7.927,10.523,8.121,4.527
Mon Dec 02 20:44:41 2024,345,-25.170,-25.170,0.790,0.790,0.750,20.902,8.928,5.088,25.223,13.009,-4.814,11.786,7.927,10.523,8.121,4.527
Mon Dec 02 20:44:41 2024,350,-25.170,-25.170,0.791,0.791,0.752,20.906,8.929,5.087,25.222,13.008,-4.814,11.788,7.926,10.523,8.121,4.527
Mon Dec 02 20:44:41 2024,355,-25.169,-25.169,0.792,0.792,0.754,20.910,8.931,5.086,25.221,13.006,-4.814,11.790,7.926,10.524,8.121,4.527
Mon Dec 02 20:44:41 2024,360,-25.169,-25.169,0.792,0.792,0.756,20.914,8.932,5.085,25.219,13.005,-4.815,11.792,7.925,10.524,8.122,4.527
Mon Dec 02 20:44:41 2024,365,-25.169,-25.169,0.793,0.793,0.758,20.917,8.933,5.084,25.218,13.003,-4.815,11.794,7.925,10.524,8.122,4.528
Mon Dec 02 20:44:41 2024,370,-25.169,-25.169,0.794,0.794,0.760,20.921,8.935,5.083,25.217,13.002,-4.815,11.797,7.925,10.525,8.122,4.528
Mon Dec 02 20:44:41 2024,375,-25.169,-25.169,0.795,0.795,0.762,20.925,8.936,5.083,25.215,13.000,-4.815,11.799,7.924,10.525,8.122,4.528
Mon Dec 02 20:44:41 2024,380,-25.169,-25.169,0.795,0.795,0.764,20.928,8.937,5.082,25.214,12.999,-4.816,11.801,7.924,10.525,8.123,4.528
Mon Dec 02 20:44:41 2024,385,-25.169,-25.169,0.796,0.796,0.766,20.932,8.939,5.081,25.213,12.997,-4.816,11.803,7.924,10.526,8.123,4.528
Mon Dec 02 20:44:41 2024,390,-25.169,-25.169,0.797,0.797,0.768,20.936,8.940,5.080,25.211,12.996,-4.816,11.805,7.923,10.526,8.123,4.528
Mon Dec 02 20:44:41 2024,395,-25.168,-25.168,0.798,0.798,0.770,20.940,8.941,5.079,25.210,12.994,-4.816,11.807,7.923,10.526,8.123,4.529
Mon Dec 02 20:44:41 2024,400,-25.168,-25.168,0.798,0.798,0.772,20.943,8.943,5.078,25.209,12.993,-4.817,11.809,7.923,10.527,8.123,4.529
Mon Dec 02 20:44:41 2024,405,-25.168,-25.168,0.799,0.799,0.774,20.947,8.944,5.078,25.208,12.991,-4.817,11.811,7.922,10.527,8.124,4.529
Mon Dec 02 20:44:41 2024,410,-25.168,-25.168,0.800,0.800,0.776,20.951,8.945,5.077,25.206,12.990,-4.817,11.813,7.922,10.527,8.124,4.529
Mon Dec 02 20:44:41 2024,415,-25.168,-25.168,0.801,0.801,0.778,20.954,8.947,5.076,25.205,12.988,-4.818,11.815,7.922,10.528,8.124,4.529
Mon Dec 02 20:44:41 2024,420,-25.168,-25.168,0.801,0.801,0.780,20.958,8.948,5.075,25.204,12.987,-4.818,11.817,7.921,10.528,8.124,4.529
Mon Dec 02 20:44:41 2024,425,-25.168,-25.168,0.802,0.802,0.782,20.962,8.949,5.074,25.202,12.985,-4.818,11.819,7.921,10.528,8.125,4.530
Mon Dec 02 20:44:41 2024,430,-25.168,-25.168,0.803,0.803,0.784,20.966,8.951,5.073,25.201,12.984,-4.818,11.821,7.921,10.529,8.125,4.530
Mon Dec 02 20:44:41 2024,435,-25.168,-25.168,0.804,0.804,0.786,20.969,8.952,5.073,25.200,12.982,-4.819,11.823,7.920,10.529,8.125,4.530
Mon Dec 02 20:44:41 2024,440,-25.167,-25.167,0.804,0.804,0.788,20.973,8.954,5.072,25.198,12.981,-4.819,11.825,7.920,10.529,8.125,4.530
Mon Dec 02 20:44:41 2024,445,-25.167,-25.167,0.805,0.805,0.790,20.977,8.955,5.071,25.197,12.979,-4.819,11.827,7.920,10.530,8.126,4.530
Mon Dec 02 20:44:41 2024,450,-25.167,-25.167,0.806,0.806,0.792,20.980,8.956,5.070,25.196,12.978,-4.819,11.829,7.919,10.530,8.126,4.530
Mon Dec 02 20:44:41 2024,455,-25.167,-25.167,0.807,0.807,0.794,20.984,8.958,5.069,25.194,12.976,-4.820,11.831,7.919,10.530,8.126,4.531
Mon Dec 02 20:44:41 2024,460,-25.167,-25.167,0.807,0.807,0.796,20.988,8.959,5.068,25.193,12.974,-4.820,11.833,7.919,10.531,8.126,4.531
Mon Dec 02 20:44:41 2024,465,-25.167,-25.167,0.808,0.808,0.798,20.992,8.960,5.068,25.192,12.973,-4.820,11.835,7.918,10.531,8.126,4.531
Mon Dec 02 20:44:41 2024,470,-25.167,-25.167,0.809,0.809,0.800,20.995,8.962,5.067,25.190,12.971,-4.820,11.838,7.918,10.531,8.127,4.531
Mon Dec 02 20:44:41 2024,475,-25.167,-25.167,0.810,0.810,0.802,20.999,8.963,5.066,25.189,12.970,-4.821,11.840,7.918,10.532,8.127,4.531
Mon Dec 02 20:44:41 2024,480,-25.166,-25.166,0.810,0.810,0.804,21.003,8.964,5.065,25.188,12.968,-4.821,11.842,7.917,10.532,8.127,4.531
Mon Dec 02 20:44:41 2024,485,-25.166,-25.166,0.811,0.811,0.806,21.006,8.966,5.064,25.186,12.967,-4.821,11.844,7.917,10.532,8.127,4.532
Mon Dec 02 20:44:41 2024,490,-25.166,-25.166,0.812,0.812,0.808,21.010,8.967,5.063,25.185,12.965,-4.822,11.846,7.917,10.532,8.128,4.532
Mon Dec 02 20:44:41 2024,495,-25.166,-25.166,0.813,0.813,0.810,21.014,8.968,5.063,25.184,12.964,-4.822,11.848,7.916,10.533,8.128,4.532
Mon Dec 02 20:44:41 2024,500,-25.216,-25.216,0.814,0.814,0.714,20.883,8.930,5.029,25.144,12.947,-4.867,11.756,7.895,10.512,8.134,4.565
Mon Dec 02 20:44:41 2024,505,-25.251,-25.251,0.799,0.799,0.656,20.797,8.907,5.018,25.129,12.948,-4.909,11.670,7.884,10.481,8.132,4.579
Mon Dec 02 20:44:41 2024,510,-25.231,-25.231,0.756,0.756,0.697,20.840,8.929,5.048,25.165,12.980,-4.927,11.647,7.903,10.435,8.131,4.548
Mon Dec 02 20:44:41 2024,515,-25.250,-25.250,0.762,0.762,0.719,20.884,8.916,5.092,25.221,13.014,-4.916,11.623,7.876,10.452,8.129,4.531
Mon Dec 02 20:44:41 2024,520,-25.262,-25.262,0.779,0.779,0.734,20.910,8.910,5.118,25.250,13.028,-4.917,11.607,7.861,10.449,8.139,4.527
Mon Dec 02 20:44:41 2024,525,-25.252,-25.252,0.822,0.822,0.730,20.889,8.924,5.096,25.208,12.991,-4.949,11.616,7.882,10.385,8.181,4.555
Mon Dec 02 20:44:41 2024,530,-25.238,-25.238,0.809,0.809,0.719,20.877,8.926,5.083,25.187,12.967,-4.952,11.645,7.888,10.369,8.195,4.563
Mon Dec 02 20:44:41 2024,535,-25.220,-25.220,0.743,0.743,0.703,20.878,8.919,5.081,25.188,12.958,-4.925,11.688,7.879,10.403,8.179,4.550
Mon Dec 02 20:44:41 2024,540,-25.229,-25.229,0.725,0.725,0.709,20.833,8.891,5.093,25.202,12.971,-4.928,11.637,7.882,10.389,8.172,4.569
Mon Dec 02 20:44:41 2024,545,-25.243,-25.243,0.719,0.719,0.719,20.795,8.863,5.105,25.217,12.988,-4.936,11.574,7.886,10.367,8.167,4.591
Mon Dec 02 20:44:41 2024,550,-25.230,-25.230,0.704,0.704,0.673,20.756,8.870,5.098,20.004,12.964,-4.932,11.625,7.896,10.359,8.190,4.624
Mon Dec 02 20:44:41 2024,555,-25.227,-25.227,0.707,0.707,0.643,20.736,8.864,5.092,20.004,12.956,-4.934,11.662,7.902,10.352,8.218,4.641
Mon Dec 02 20:44:41 2024,560,-25.240,-25.240,0.739,0.739,0.628,20.734,8.827,5.092,25.208,12.972,-4.946,11.672,7.908,10.337,8.265,4.644
Mon Dec 02 20:44:41 2024,565,-25.232,-25.232,0.723,0.723,0.614,20.753,8.827,5.067,25.194,12.977,-4.966,11.695,7.918,10.309,8.307,4.646
Mon Dec 02 20:44:41 2024,570,-25.202,-25.202,-0.656,0.656,0.605,20.805,8.873,5.014,25.147,12.968,-4.995,11.732,7.934,10.268,8.341,4.648
Mon Dec 02 20:44:41 2024,575,-25.226,-25.226,-0.695,0.695,0.649,20.833,8.904,5.018,25.141,12.965,-4.965,11.774,7.966,10.296,8.327,4.693
Mon Dec 02 20:44:41 2024,580,-25.252,-25.252,0.736,0.736,0.688,20.854,8.921,5.030,25.146,12.959,-4.932,11.808,7.987,10.336,8.300,4.727
Mon Dec 02 20:44:41 2024,585,-25.260,-25.260,0.711,0.711,0.691,20.873,8.900,5.050,25.168,12.932,-4.915,11.834,7.961,10.401,8.237,4.707
Mon Dec 02 20:44:41 2024,590,-25.260,-25.260,0.709,0.709,0.690,20.908,8.880,5.072,25.201,12.915,-4.911,11.842,7.924,10.417,8.221,4.681
Mon Dec 02 20:44:41 2024,595,-25.255,-25.255,0.739,0.739,0.690,20.951,8.872,5.088,25.236,12.917,-4.925,11.828,7.893,10.371,8.268,4.663
Mon Dec 02 20:44:41 2024,600,-25.240,-25.240,0.710,0.710,0.674,20.906,8.868,5.068,25.206,12.924,-4.928,11.800,7.900,10.366,8.279,4.664
Mon Dec 02 20:44:41 2024,605,-25.224,-25.224,-0.648,0.648,0.652,20.814,8.866,5.026,25.138,12.932,-4.925,11.769,7.933,10.392,8.262,4.678
Mon Dec 02 20:44:41 2024,610,-25.232,-25.232,0.703,0.703,0.664,20.834,8.836,5.038,25.164,12.926,-4.915,11.810,7.928,10.379,8.270,4.681
Mon Dec 02 20:44:41 2024,615,-25.242,-25.242,0.756,0.756,0.672,20.859,8.808,5.046,25.190,12.917,-4.909,11.854,7.917,10.357,8.291,4.681
Mon Dec 02 20:44:41 2024,620,-25.236,-25.236,0.722,0.722,0.650,20.837,8.817,5.015,25.164,12.910,-4.922,11.856,7.903,10.332,8.328,4.674
Mon Dec 02 20:44:41 2024,625,-25.226,-25.226,0.704,0.704,0.643,20.832,8.846,4.986,25.126,12.914,-4.930,11.854,7.903,10.340,8.326,4.665
Mon Dec 02 20:44:41 2024,630,-25.218,-25.218,0.718,0.718,0.663,20.860,8.892,4.978,25.094,12.930,-4.925,11.847,7.924,10.395,8.266,4.659
Mon Dec 02 20:44:41 2024,635,-25.220,-25.220,0.752,0.752,0.681,20.882,8.876,4.985,25.096,12.886,-4.908,11.878,7.903,10.377,8.292,4.661
Mon Dec 02 20:44:41 2024,640,-25.228,-25.228,0.802,0.802,0.701,20.906,8.835,4.999,25.110,12.810,-4.884,11.929,7.861,10.329,8.355,4.665
Mon Dec 02 20:44:41 2024,645,-25.229,-25.229,0.763,0.763,0.707,20.923,8.913,4.965,16.979,12.819,-4.904,11.877,7.868,10.330,8.325,4.636
Mon Dec 02 20:44:41 2024,650,-25.232,-25.232,0.747,0.747,0.711,20.923,8.955,4.950,14.962,12.840,-4.911,11.847,7.883,10.348,8.290,4.621
Mon Dec 02 20:44:41 2024,655,-25.242,-25.242,0.798,0.798,0.716,20.897,8.906,4.983,14.922,12.866,-4.876,11.874,7.910,10.394,8.255,4.640
Mon Dec 02 20:44:41 2024,660,-25.256,-25.256,0.803,0.803,0.704,20.884,8.874,4.993,14.906,12.852,-4.852,11.930,7.925,10.430,8.237,4.648
Mon Dec 02 20:44:41 2024,665,-25.271,-25.271,0.751,0.751,0.676,20.890,8.874,4.973,14.928,12.799,-4.848,11.999,7.922,10.443,8.242,4.642
Mon Dec 02 20:44:41 2024,670,-25.272,-25.272,0.775,0.775,0.677,20.880,8.887,4.971,25.074,12.843,-4.851,11.968,7.942,10.430,8.247,4.666
Mon Dec 02 20:44:41 2024,675,-25.267,-25.267,0.821,0.821,0.697,20.877,8.906,4.975,25.083,12.919,-4.857,11.901,7.962,10.412,8.250,4.694
Mon Dec 02 20:44:41 2024,680,-25.248,-25.248,0.776,0.776,0.752,20.970,8.908,4.981,25.092,12.875,-4.857,11.910,7.895,10.439,8.236,4.634
Mon Dec 02 20:44:41 2024,685,-25.230,-25.230,0.748,0.748,0.778,21.026,8.910,4.978,25.094,12.843,-4.857,11.942,7.860,10.474,8.225,4.609
Mon Dec 02 20:44:41 2024,690,-25.228,-25.228,0.771,0.771,0.732,20.976,8.910,4.960,25.082,12.854,-4.854,11.995,7.913,10.495,8.228,4.665
Mon Dec 02 20:44:41 2024,695,-25.244,-25.244,0.798,0.798,0.679,20.893,8.906,4.924,25.037,12.862,-4.886,11.958,7.944,10.462,8.263,4.699
Mon Dec 02 20:44:41 2024,700,-25.268,-25.268,0.819,0.819,0.642,20.817,8.901,4.887,15.016,12.863,-4.933,11.859,7.943,10.395,8.311,4.700
Mon Dec 02 20:44:41 2024,705,-25.246,-25.246,0.810,0.810,0.685,20.886,8.896,4.894,24.995,12.828,-4.890,11.920,7.917,10.387,8.308,4.659
Mon Dec 02 20:44:41 2024,710,-25.219,-25.219,0.806,0.806,0.734,20.969,8.901,4.913,25.019,12.795,-4.843,11.989,7.887,10.389,8.296,4.611
Mon Dec 02 20:44:41 2024,715,-25.214,-25.214,0.844,0.844,0.742,20.976,8.944,4.940,25.046,12.808,-4.866,11.946,7.864,10.370,8.288,4.571
Mon Dec 02 20:44:41 2024,720,-25.217,-25.217,0.868,0.868,0.747,20.972,8.954,4.960,25.065,12.821,-4.897,11.874,7.845,10.350,8.292,4.554
Mon Dec 02 20:44:41 2024,725,-25.239,-25.239,0.862,0.862,0.750,20.948,8.897,4.968,14.934,12.836,-4.950,11.741,7.838,10.330,8.315,4.585
Mon Dec 02 20:44:41 2024,730,-25.228,-25.228,0.879,0.879,0.754,20.949,8.903,4.962,14.942,12.841,-4.919,11.784,7.857,10.367,8.301,4.609
Mon Dec 02 20:44:41 2024,735,-25.208,-25.208,0.886,0.886,0.759,20.955,8.920,4.953,14.951,12.844,-4.882,11.846,7.873,10.410,8.276,4.622
Mon Dec 02 20:44:41 2024,740,-25.178,-25.178,0.838,0.838,0.771,20.953,8.918,4.945,14.963,12.853,-4.882,11.825,7.864,10.450,8.236,4.623
Mon Dec 02 20:44:41 2024,745,-25.160,-25.160,0.786,0.786,0.770,20.934,8.912,4.938,14.972,12.873,-4.904,11.774,7.854,10.457,8.219,4.618
Mon Dec 02 20:44:41 2024,750,-25.184,-25.184,0.810,0.810,0.723,20.881,8.936,4.930,14.974,12.913,-4.913,11.794,7.886,10.391,8.283,4.622
Mon Dec 02 20:44:41 2024,755,-25.208,-25.208,0.829,0.829,0.694,20.855,8.916,4.909,25.010,12.887,-4.929,11.795,7.877,10.350,8.325,4.622
Mon Dec 02 20:44:41 2024,760,-25.226,-25.226,0.837,0.837,0.692,20.868,8.846,4.880,24.981,12.785,-4.950,11.772,7.822,10.350,8.330,4.613
Mon Dec 02 20:44:41 2024,765,-25.203,-25.203,0.799,0.799,0.676,20.878,8.822,4.899,25.008,12.791,-4.947,11.754,7.786,10.397,8.301,4.587
Mon Dec 02 20:44:41 2024,770,-25.174,-25.174,0.758,0.758,0.657,20.886,8.826,4.930,25.048,12.833,-4.934,11.753,7.774,10.442,8.268,4.567
Mon Dec 02 20:44:41 2024,775,-25.194,-25.194,0.763,0.763,0.644,20.905,8.871,4.934,25.060,12.824,-4.912,11.870,7.827,10.421,8.274,4.596
Mon Dec 02 20:44:41 2024,780,-25.212,-25.212,0.767,0.767,0.640,20.919,8.904,4.942,25.072,12.820,-4.893,11.945,7.864,10.401,8.278,4.606
Mon Dec 02 20:44:41 2024,785,-25.197,-25.197,0.743,0.743,0.666,20.910,8.886,4.982,25.109,12.862,-4.884,11.842,7.824,10.412,8.257,4.522
Mon Dec 02 20:44:41 2024,790,-25.179,-25.179,-0.718,0.718,0.672,20.904,8.875,4.996,25.123,12.895,-4.896,11.768,7.816,10.411,8.256,4.510
Mon Dec 02 20:44:41 2024,795,-25.160,-25.160,-0.698,0.698,0.656,20.903,8.873,4.978,25.108,12.912,-4.929,11.737,7.844,10.397,8.273,4.580
Mon Dec 02 20:44:41 2024,800,-25.169,-25.169,0.743,0.743,0.666,20.937,8.909,4.981,25.112,12.905,-4.914,11.794,7.858,10.429,8.265,4.597
Mon Dec 02 20:44:41 2024,805,-25.184,-25.184,0.792,0.792,0.679,20.964,8.942,4.980,25.110,12.888,-4.898,11.853,7.863,10.455,8.256,4.596
Mon Dec 02 20:44:41 2024,810,-25.198,-25.198,0.794,0.794,0.669,20.927,8.934,4.945,25.065,12.869,-4.919,11.836,7.849,10.421,8.277,4.583
Mon Dec 02 20:44:41 2024,815,-25.200,-25.200,0.778,0.778,0.666,20.894,8.916,4.937,25.053,12.883,-4.940,11.787,7.841,10.388,8.292,4.579
Mon Dec 02 20:44:41 2024,820,-25.178,-25.178,0.760,0.760,0.686,20.905,8.909,5.003,25.129,12.958,-4.936,11.726,7.858,10.397,8.278,4.599
Mon Dec 02 20:44:41 2024,825,-25.183,-25.183,0.772,0.772,0.688,20.930,8.916,5.012,25.142,12.977,-4.925,11.724,7.863,10.432,8.256,4.613
Mon Dec 02 20:44:41 2024,830,-25.210,-25.210,0.808,0.808,0.671,20.964,8.933,4.972,25.098,12.942,-4.909,11.771,7.857,10.481,8.232,4.616
Mon Dec 02 20:44:41 2024,835,-25.190,-25.190,0.747,0.747,0.641,20.938,8.892,4.954,25.090,12.910,-4.919,11.772,7.838,10.456,8.236,4.584
Mon Dec 02 20:44:41 2024,840,-25.167,-25.167,-0.668,0.668,0.606,20.893,8.845,4.941,25.087,12.892,-4.939,11.756,7.824,10.418,8.247,4.554
Mon Dec 02 20:44:41 2024,845,-25.199,-25.199,-0.680,0.680,0.592,20.854,8.888,4.937,25.067,12.960,-4.956,11.720,7.869,10.434,8.246,4.615
Mon Dec 02 20:44:41 2024,850,-25.202,-25.202,-0.657,0.657,0.577,20.806,8.907,4.938,25.062,13.002,-4.962,11.689,7.908,10.436,8.238,4.652
Mon Dec 02 20:44:41 2024,855,-25.162,-25.162,-0.580,0.580,0.557,20.744,8.890,4.948,25.078,13.004,-4.950,11.664,7.941,10.416,8.216,4.654
Mon Dec 02 20:44:41 2024,860,-25.160,-25.160,-0.549,0.549,0.570,20.791,8.910,4.960,25.093,13.024,-4.950,11.635,7.929,10.429,8.193,4.616
Mon Dec 02 20:44:41 2024,865,-25.177,-25.177,-0.545,0.545,0.597,20.884,8.942,4.969,25.105,13.049,-4.957,11.608,7.899,10.453,8.173,4.566
Mon Dec 02 20:44:41 2024,870,-25.183,-25.183,-0.567,0.567,0.603,20.872,8.937,4.985,25.119,13.039,-4.947,11.625,7.904,10.463,8.160,4.573
Mon Dec 02 20:44:41 2024,875,-25.189,-25.189,-0.588,0.588,0.608,20.860,8.933,5.001,25.134,13.029,-4.938,11.641,7.910,10.472,8.147,4.580
Mon Dec 02 20:44:41 2024,880,-25.194,-25.194,-0.610,0.610,0.614,20.849,8.928,5.016,25.148,13.019,-4.928,11.658,7.915,10.482,8.134,4.587
Mon Dec 02 20:44:41 2024,885,-25.200,-25.200,-0.631,0.631,0.619,20.837,8.924,5.032,25.163,13.009,-4.919,11.674,7.921,10.491,8.121,4.594
Mon Dec 02 20:44:41 2024,890,-25.206,-25.206,-0.653,0.653,0.625,20.825,8.919,5.048,25.177,12.999,-4.909,11.691,7.926,10.501,8.108,4.601
Mon Dec 02 20:44:41 2024,895,-25.226,-25.226,-0.670,0.670,0.625,20.863,8.952,5.056,25.197,13.026,-4.908,11.717,7.939,10.521,8.085,4.600
Mon Dec 02 20:44:41 2024,900,-25.224,-25.224,-0.641,0.641,0.593,20.868,8.967,5.059,25.219,13.054,-4.919,11.715,7.945,10.531,8.054,4.588
Mon Dec 02 20:44:41 2024,905,-25.215,-25.215,-0.649,0.649,0.621,20.894,8.959,5.083,25.256,13.099,-4.901,11.734,7.966,10.552,8.048,4.602
Mon Dec 02 20:44:41 2024,910,-25.208,-25.208,-0.665,0.665,0.648,20.909,8.945,5.102,25.276,13.112,-4.893,11.737,7.968,10.552,8.057,4.606
Mon Dec 02 20:44:41 2024,915,-25.201,-25.201,-0.692,0.692,0.659,20.888,8.918,5.106,25.263,13.042,-4.917,11.693,7.918,10.500,8.095,4.579
Mon Dec 02 20:44:41 2024,920,-25.205,-25.205,-0.694,0.694,0.644,20.882,8.916,5.101,25.254,13.000,-4.939,11.678,7.896,10.485,8.122,4.589
Mon Dec 02 20:44:41 2024,925,-25.223,-25.223,-0.664,0.664,0.603,20.899,8.944,5.090,25.256,13.008,-4.954,11.707,7.918,10.524,8.129,4.650
Mon Dec 02 20:44:41 2024,930,-25.209,-25.209,-0.637,0.637,0.613,20.901,8.946,5.060,25.204,12.976,-4.935,11.728,7.932,10.505,8.117,4.632
Mon Dec 02 20:44:41 2024,935,-25.184,-25.184,-0.616,0.616,0.645,20.896,8.937,5.025,25.138,12.934,-4.904,11.741,7.939,10.463,8.097,4.580
Mon Dec 02 20:44:41 2024,940,-25.194,-25.194,-0.656,0.656,0.645,20.912,8.921,5.064,25.207,12.956,-4.906,11.760,7.910,10.515,8.098,4.595
Mon Dec 02 20:44:41 2024,945,-25.182,-25.182,-0.641,0.641,0.651,20.917,8.902,5.086,25.243,12.955,-4.907,11.761,7.882,10.527,8.110,4.599
Mon Dec 02 20:44:41 2024,950,-25.150,-25.150,-0.580,0.580,0.666,20.916,8.877,5.101,25.259,12.935,-4.907,11.748,7.849,10.511,8.134,4.594
Mon Dec 02 20:44:41 2024,955,-25.171,-25.171,-0.586,0.586,0.634,20.901,8.900,5.071,25.222,12.922,-4.923,11.749,7.870,10.501,8.143,4.628
Mon Dec 02 20:44:41 2024,960,-25.200,-25.200,-0.611,0.611,0.597,20.886,8.927,5.038,25.180,12.907,-4.938,11.752,7.892,10.496,8.144,4.662
Mon Dec 02 20:44:41 2024,965,-25.179,-25.179,-0.627,0.627,0.615,20.884,8.906,5.045,25.179,12.875,-4.925,11.743,7.857,10.497,8.131,4.632
Mon Dec 02 20:44:41 2024,970,-25.151,-25.151,-0.626,0.626,0.638,20.885,8.859,5.054,25.182,12.833,-4.907,11.745,7.813,10.498,8.119,4.592
Mon Dec 02 20:44:41 2024,975,-25.153,-25.153,-0.624,0.624,0.629,20.879,8.824,5.036,25.160,12.793,-4.904,11.768,7.806,10.499,8.118,4.588
Mon Dec 02 20:44:41 2024,980,-25.172,-25.172,-0.621,0.621,0.598,20.862,8.823,4.983,25.104,12.772,-4.927,11.793,7.834,10.498,8.145,4.633
Mon Dec 02 20:44:41 2024,985,-25.185,-25.185,-0.621,0.621,0.577,20.838,8.846,4.926,23.792,12.767,-4.956,11.800,7.864,10.498,8.178,4.686
Mon Dec 02 20:44:41 2024,990,-25.194,-25.194,-0.639,0.639,0.571,20.801,8.883,4.914,17.510,12.776,-4.956,11.771,7.875,10.503,8.155,4.679
Mon Dec 02 20:44:41 2024,995,-25.202,-25.202,-0.665,0.665,0.568,20.760,8.923,4.918,15.000,12.786,-4.942,11.729,7.877,10.510,8.108,4.646
Mon Dec 02 20:44:42 2024,0,-25.187,-25.187,0.727,0.727,0.585,20.831,8.881,4.926,14.981,12.729,-4.940,11.750,7.802,10.486,8.136,4.597
Mon Dec 02 20:44:42 2024,5,-25.172,-25.172,0.778,0.778,0.601,20.907,8.834,4.931,25.038,12.673,-4.942,11.779,7.734,10.462,8.174,4.562
Mon Dec 02 20:44:42 2024,10,-25.164,-25.164,-0.679,0.679,0.662,20.929,8.919,4.954,25.061,12.810,-4.938,11.731,7.822,10.489,8.156,4.631
Mon Dec 02 20:44:42 2024,15,-25.166,-25.166,-0.377,0.654,0.682,20.921,8.967,4.940,23.047,12.869,-4.939,11.696,7.861,10.490,8.149,4.656
Mon Dec 02 20:44:42 2024,20,-25.180,-25.180,0.698,0.698,0.659,20.871,8.981,4.891,15.024,12.857,-4.944,11.674,7.859,10.468,8.146,4.639
Mon Dec 02 20:44:42 2024,25,-25.173,-25.173,0.718,0.718,0.676,20.891,8.938,4.895,15.020,12.822,-4.960,11.691,7.830,10.476,8.152,4.632
Mon Dec 02 20:44:42 2024,30,-25.158,-25.158,0.725,0.725,0.710,20.938,8.873,4.924,14.984,12.781,-4.980,11.724,7.790,10.496,8.161,4.630
Mon Dec 02 20:44:42 2024,35,-25.140,-25.140,0.722,0.722,0.664,20.852,8.880,4.856,15.078,12.732,-4.993,11.665,7.792,10.464,8.160,4.622
Mon Dec 02 20:44:42 2024,40,-25.134,-25.134,0.710,0.710,0.623,20.795,8.883,4.805,15.140,12.703,-4.998,11.654,7.786,10.433,8.182,4.618
Mon Dec 02 20:44:42 2024,45,-25.147,-25.147,0.689,0.689,0.605,20.813,8.856,4.801,15.126,12.704,-4.995,11.748,7.754,10.416,8.253,4.624
Mon Dec 02 20:44:42 2024,50,-25.143,-25.143,0.693,0.693,0.622,20.818,8.853,4.817,15.112,12.697,-5.000,11.738,7.736,10.410,8.261,4.622
Mon Dec 02 20:44:42 2024,55,-25.118,-25.118,0.724,0.724,0.672,20.804,8.875,4.846,15.108,12.674,-5.015,11.610,7.730,10.407,8.206,4.608
Mon Dec 02 20:44:42 2024,60,-25.107,-25.107,0.745,0.745,0.683,20.815,8.880,4.835,15.126,12.652,-5.008,11.611,7.728,10.389,8.191,4.581
Mon Dec 02 20:44:42 2024,65,-25.097,-25.097,0.777,0.777,0.683,20.823,8.878,4.816,15.146,12.643,-4.996,11.636,7.732,10.372,8.183,4.551
Mon Dec 02 20:44:42 2024,70,-25.084,-25.084,0.837,0.837,0.678,20.810,8.871,4.804,15.151,12.674,-4.990,11.636,7.751,10.364,8.172,4.528
Mon Dec 02 20:44:42 2024,75,-25.064,-25.064,0.897,0.897,0.661,20.776,8.873,4.791,15.157,12.715,-4.996,11.623,7.769,10.356,8.182,4.525
Mon Dec 02 20:44:42 2024,80,-25.037,-25.037,0.920,0.920,0.626,20.729,8.903,4.765,15.187,12.728,-5.016,11.617,7.765,10.337,8.238,4.553
Mon Dec 02 20:44:42 2024,85,-25.011,-25.011,0.947,0.947,0.592,20.701,8.918,4.748,15.203,12.732,-5.017,11.636,7.769,10.361,8.258,4.578
Mon Dec 02 20:44:42 2024,90,-24.987,-24.987,0.976,0.976,0.564,20.699,8.912,4.744,15.199,12.725,-4.994,11.681,7.783,10.432,8.233,4.592
Mon Dec 02 20:44:42 2024,95,-24.950,-24.950,1.004,1.004,0.570,20.727,8.880,4.738,15.196,12.728,-5.010,11.678,7.776,10.386,8.272,4.582
Mon Dec 02 20:44:42 2024,100,-24.918,-24.918,1.042,1.042,0.578,20.741,8.858,4.733,15.195,12.737,-5.030,11.661,7.767,10.330,8.311,4.568
Mon Dec 02 20:44:42 2024,105,-24.913,-24.913,1.170,1.170,0.545,20.646,8.927,4.739,15.192,12.791,-5.032,11.605,7.762,10.333,8.289,4.561
Mon Dec 02 20:44:42 2024,110,-24.908,-24.908,1.288,1.288,0.522,20.594,8.970,4.732,15.206,12.800,-5.040,11.572,7.756,10.340,8.281,4.564
Mon Dec 02 20:44:42 2024,115,-24.891,-24.891,1.406,1.406,0.525,20.640,8.947,4.684,15.265,12.701,-5.070,11.591,7.741,10.339,8.323,4.587
Mon Dec 02 20:44:42 2024,120,-24.857,-24.857,1.480,1.480,0.532,20.662,8.934,4.680,15.265,12.676,-5.073,11.596,7.735,10.346,8.338,4.603
Mon Dec 02 20:44:42 2024,125,-24.813,-24.813,1.522,1.522,0.544,20.670,8.925,4.704,15.227,12.697,-5.059,11.592,7.734,10.356,8.336,4.614
Mon Dec 02 20:44:42 2024,130,-24.788,-24.788,1.596,1.596,0.534,20.644,8.915,4.705,15.227,12.728,-5.028,11.600,7.766,10.396,8.288,4.618
Mon Dec 02 20:44:42 2024,135,-24.749,-24.749,1.616,1.616,0.526,20.634,8.909,4.697,15.237,12.740,-5.007,11.620,7.788,10.416,8.266,4.616
Mon Dec 02 20:44:42 2024,140,-24.662,-24.662,1.514,1.514,0.528,20.665,8.907,4.671,15.262,12.714,-5.005,11.673,7.785,10.385,8.307,4.600
Mon Dec 02 20:44:42 2024,145,-24.584,-24.584,1.446,1.446,0.534,20.688,8.916,4.667,15.264,12.689,-5.019,11.697,7.766,10.358,8.356,4.607
Mon Dec 02 20:44:42 2024,150,-24.563,-24.563,1.486,1.486,0.540,20.678,8.936,4.705,15.227,12.686,-5.050,11.659,7.733,10.355,8.387,4.654
Mon Dec 02 20:44:42 2024,155,-24.554,-24.554,1.527,1.527,0.559,20.708,8.916,4.715,15.216,12.671,-5.022,11.692,7.725,10.374,8.363,4.649
Mon Dec 02 20:44:42 2024,160,-24.552,-24.552,1.555,1.555,0.577,20.740,8.890,4.713,15.217,12.657,-4.986,11.737,7.728,10.394,8.329,4.630
Mon Dec 02 20:44:42 2024,165,-24.522,-24.522,1.580,1.580,0.495,20.615,8.842,4.662,15.260,12.658,-5.020,11.725,7.770,10.394,8.340,4.648
Mon Dec 02 20:44:42 2024,170,-24.494,-24.494,1.592,1.592,0.434,20.516,8.799,4.629,15.290,12.657,-5.068,11.656,7.772,10.370,8.361,4.646
Mon Dec 02 20:44:42 2024,175,-24.478,-24.478,1.582,1.582,0.456,20.525,8.768,4.652,15.281,12.638,-5.131,11.455,7.658,10.297,8.384,4.572
Mon Dec 02 20:44:42 2024,180,-24.473,-24.473,1.574,1.574,0.469,20.535,8.762,4.678,15.254,12.641,-5.145,11.380,7.608,10.287,8.372,4.530
Mon Dec 02 20:44:42 2024,185,-24.486,-24.486,1.565,1.565,0.470,20.551,8.789,4.716,15.198,12.674,-5.093,11.473,7.643,10.363,8.311,4.524
Mon Dec 02 20:44:42 2024,190,-24.494,-24.494,1.575,1.575,0.474,20.566,8.829,4.726,16.789,12.746,-5.063,11.498,7.705,10.397,8.311,4.593
Mon Dec 02 20:44:42 2024,195,-24.502,-24.502,1.591,1.591,0.479,20.583,8.875,4.730,24.829,12.828,-5.037,11.508,7.776,10.422,8.327,4.682
Mon Dec 02 20:44:42 2024,200,-24.502,-24.502,1.636,1.636,0.440,20.533,8.855,4.715,24.814,12.775,-5.059,11.502,7.743,10.409,8.335,4.647
Mon Dec 02 20:44:42 2024,205,-24.500,-24.500,1.673,1.673,0.402,20.489,8.836,4.711,24.816,12.742,-5.068,11.500,7.715,10.408,8.334,4.616
Mon Dec 02 20:44:42 2024,210,-24.494,-24.494,1.668,1.668,0.392,20.486,8.844,4.749,24.871,12.808,-5.028,11.516,7.732,10.454,8.310,4.634
Mon Dec 02 20:44:42 2024,215,-24.485,-24.485,1.680,1.680,0.391,20.483,8.844,4.782,24.913,12.847,-5.010,11.517,7.752,10.487,8.279,4.634
Mon Dec 02 20:44:42 2024,220,-24.475,-24.475,1.703,1.703,0.394,20.479,8.841,4.810,24.945,12.870,-5.007,11.513,7.776,10.511,8.245,4.623
Mon Dec 02 20:44:42 2024,225,-24.488,-24.488,1.716,1.716,0.369,20.470,8.843,4.792,24.943,12.898,-4.995,11.580,7.818,10.481,8.289,4.642
Mon Dec 02 20:44:42 2024,230,-24.503,-24.503,1.724,1.724,0.340,20.464,8.845,4.766,24.934,12.924,-4.982,11.658,7.860,10.441,8.348,4.669
Mon Dec 02 20:44:42 2024,235,-24.500,-24.500,1.714,1.714,0.362,20.458,8.868,4.780,24.931,12.945,-4.988,11.622,7.874,10.409,8.326,4.655
Mon Dec 02 20:44:42 2024,240,-24.496,-24.496,1.714,1.714,0.385,20.476,8.862,4.795,24.935,12.926,-4.990,11.593,7.863,10.396,8.308,4.634
Mon Dec 02 20:44:42 2024,245,-24.495,-24.495,1.730,1.730,0.413,20.526,8.817,4.812,24.945,12.852,-4.989,11.579,7.819,10.404,8.299,4.606
Mon Dec 02 20:44:42 2024,250,-24.505,-24.505,1.749,1.749,0.434,20.569,8.817,4.831,24.958,12.832,-4.960,11.636,7.827,10.430,8.284,4.612
Mon Dec 02 20:44:42 2024,255,-24.525,-24.525,1.768,1.768,0.446,20.599,8.861,4.849,24.972,12.870,-4.908,11.758,7.889,10.472,8.266,4.652
Mon Dec 02 20:44:42 2024,260,-24.522,-24.522,1.763,1.763,0.420,20.610,8.883,4.836,24.968,12.852,-4.895,11.852,7.902,10.448,8.292,4.650
Mon Dec 02 20:44:42 2024,265,-24.515,-24.515,1.754,1.754,0.390,20.620,8.898,4.818,24.962,12.824,-4.891,11.927,7.906,10.415,8.324,4.640
Mon Dec 02 20:44:42 2024,270,-24.524,-24.524,1.744,1.744,0.374,20.600,8.889,4.800,24.944,12.876,-4.892,11.860,7.913,10.431,8.332,4.666
Mon Dec 02 20:44:42 2024,275,-24.527,-24.527,1.730,1.730,0.382,20.600,8.883,4.795,24.937,12.870,-4.891,11.845,7.895,10.434,8.326,4.649
Mon Dec 02 20:44:42 2024,280,-24.525,-24.525,1.710,1.710,0.423,20.623,8.878,4.805,24.943,12.796,-4.885,11.883,7.844,10.424,8.300,4.576
Mon Dec 02 20:44:42 2024,285,-24.522,-24.522,1.691,1.691,0.438,20.648,8.857,4.834,24.982,12.793,-4.850,11.933,7.846,10.436,8.302,4.558
Mon Dec 02 20:44:42 2024,290,-24.518,-24.518,1.670,1.670,0.443,20.677,8.827,4.872,25.041,12.824,-4.797,11.994,7.874,10.462,8.316,4.566
Mon Dec 02 20:44:42 2024,295,-24.568,-24.568,1.716,1.716,0.424,20.682,8.845,4.841,24.992,12.828,-4.835,11.955,7.886,10.466,8.290,4.580
Mon Dec 02 20:44:42 2024,300,-24.613,-24.613,1.752,1.752,0.403,20.675,8.871,4.821,24.959,12.842,-4.866,11.902,7.895,10.458,8.279,4.587
Mon Dec 02 20:44:42 2024,305,-24.632,-24.632,1.753,1.753,0.391,20.651,8.899,4.847,24.986,12.883,-4.854,11.849,7.902,10.434,8.312,4.580
Mon Dec 02 20:44:42 2024,310,-24.661,-24.661,1.797,1.797,0.387,20.675,8.916,4.844,24.995,12.885,-4.839,11.894,7.914,10.413,8.340,4.563
Mon Dec 02 20:44:42 2024,315,-24.695,-24.695,1.876,1.876,0.391,20.744,8.918,4.815,24.987,12.848,-4.821,12.027,7.931,10.397,8.357,4.541
Mon Dec 02 20:44:42 2024,320,-24.714,-24.714,1.878,1.878,0.394,20.772,8.942,4.808,24.976,12.876,-4.853,11.984,7.944,10.430,8.332,4.549
Mon Dec 02 20:44:42 2024,325,-24.723,-24.723,1.851,1.851,0.397,20.776,8.969,4.810,24.967,12.921,-4.895,11.887,7.951,10.473,8.298,4.567
Mon Dec 02 20:44:42 2024,330,-24.734,-24.734,1.878,1.878,0.408,20.761,8.929,4.857,25.028,12.902,-4.854,11.918,7.923,10.477,8.299,4.555
Mon Dec 02 20:44:42 2024,335,-24.734,-24.734,1.889,1.889,0.405,20.753,8.885,4.885,25.072,12.885,-4.836,11.929,7.898,10.471,8.315,4.549
Mon Dec 02 20:44:42 2024,340,-24.716,-24.716,1.869,1.869,0.374,20.758,8.836,4.873,25.077,12.870,-4.859,11.906,7.882,10.446,8.360,4.556
Mon Dec 02 20:44:42 2024,345,-24.732,-24.732,1.887,1.887,0.347,20.745,8.867,4.853,25.055,12.878,-4.863,11.918,7.897,10.437,8.379,4.580
Mon Dec 02 20:44:42 2024,350,-24.767,-24.767,1.924,1.924,0.328,20.721,8.943,4.833,25.021,12.898,-4.856,11.948,7.929,10.439,8.379,4.610
Mon Dec 02 20:44:42 2024,355,-24.743,-24.743,1.872,1.872,0.310,20.680,8.930,4.823,25.013,12.904,-4.876,11.914,7.903,10.403,8.403,4.574
Mon Dec 02 20:44:42 2024,360,-24.704,-24.704,1.802,1.802,0.295,20.641,8.893,4.819,25.014,12.905,-4.902,11.866,7.864,10.362,8.429,4.524
Mon Dec 02 20:44:42 2024,365,-24.680,-24.680,1.818,1.818,0.330,20.652,8.900,4.829,25.025,12.934,-4.906,11.898,7.916,10.337,8.444,4.540
Mon Dec 02 20:44:42 2024,370,-24.666,-24.666,1.817,1.817,0.364,20.686,8.909,4.855,25.053,12.953,-4.895,11.916,7.937,10.344,8.437,4.553
Mon Dec 02 20:44:42 2024,375,-24.660,-24.660,1.783,1.783,0.412,20.781,8.922,4.919,25.123,12.960,-4.851,11.918,7.914,10.413,8.384,4.568
Mon Dec 02 20:44:42 2024,380,-24.675,-24.675,1.802,1.802,0.408,20.791,8.928,4.918,25.124,12.967,-4.855,11.897,7.905,10.422,8.377,4.573
Mon Dec 02 20:44:42 2024,385,-24.707,-24.707,1.860,1.860,0.373,20.760,8.934,4.880,25.086,12.976,-4.886,11.856,7.901,10.404,8.392,4.576
Mon Dec 02 20:44:42 2024,390,-24.737,-24.737,1.854,1.854,0.345,20.730,8.913,4.836,25.036,12.903,-4.896,11.898,7.898,10.409,8.391,4.561
Mon Dec 02 20:44:42 2024,395,-24.769,-24.769,1.837,1.837,0.315,20.698,8.888,4.788,24.980,12.812,-4.903,11.955,7.895,10.418,8.389,4.542
Mon Dec 02 20:44:42 2024,400,-24.786,-24.786,1.890,1.890,0.346,20.749,8.938,4.847,25.072,12.915,-4.880,11.943,7.938,10.413,8.391,4.585
Mon Dec 02 20:44:42 2024,405,-24.803,-24.803,1.915,1.915,0.333,20.743,8.969,4.868,25.107,12.940,-4.871,11.939,7.943,10.408,8.392,4.591
Mon Dec 02 20:44:42 2024,410,-24.814,-24.814,1.903,1.903,0.264,20.660,8.978,4.843,25.071,12.869,-4.883,11.937,7.895,10.404,8.393,4.545
Mon Dec 02 20:44:42 2024,415,-24.796,-24.796,1.864,1.864,0.281,20.668,8.989,4.852,25.074,12.896,-4.873,11.950,7.920,10.407,8.394,4.555
Mon Dec 02 20:44:42 2024,420,-24.759,-24.759,1.801,1.801,0.347,20.725,9.005,4.879,25.096,12.977,-4.851,11.972,7.987,10.414,8.396,4.596
Mon Dec 02 20:44:42 2024,425,-24.755,-24.755,1.794,1.794,0.362,20.790,9.015,4.870,25.102,12.961,-4.836,12.019,7.977,10.431,8.423,4.628
Mon Dec 02 20:44:42 2024,430,-24.759,-24.759,1.801,1.801,0.370,20.822,9.014,4.861,25.095,12.913,-4.831,12.031,7.942,10.443,8.432,4.629
Mon Dec 02 20:44:42 2024,435,-24.769,-24.769,1.824,1.824,0.377,20.752,8.983,4.871,25.067,12.833,-4.853,11.935,7.877,10.432,8.383,4.547
Mon Dec 02 20:44:42 2024,440,-24.769,-24.769,1.842,1.842,0.371,20.718,8.953,4.880,25.070,12.815,-4.860,11.917,7.866,10.435,8.353,4.515
Mon Dec 02 20:44:42 2024,445,-24.758,-24.758,1.846,1.846,0.355,20.739,8.935,4.884,25.104,12.869,-4.844,11.991,7.915,10.453,8.356,4.549
Mon Dec 02 20:44:42 2024,450,-24.734,-24.734,1.825,1.825,0.354,20.751,8.907,4.876,25.100,12.858,-4.841,12.014,7.898,10.433,8.387,4.549
Mon Dec 02 20:44:42 2024,455,-24.708,-24.708,1.792,1.792,0.358,20.755,8.877,4.862,25.081,12.828,-4.845,12.010,7.856,10.394,8.431,4.534
Mon Dec 02 20:44:42 2024,460,-24.720,-24.720,1.781,1.781,0.358,20.721,8.888,4.858,25.076,12.856,-4.887,11.928,7.834,10.361,8.452,4.507
Mon Dec 02 20:44:42 2024,465,-24.734,-24.734,1.798,1.798,0.353,20.694,8.908,4.859,25.077,12.883,-4.901,11.893,7.838,10.344,8.454,4.494
Mon Dec 02 20:44:42 2024,470,-24.746,-24.746,1.878,1.878,0.333,20.691,8.940,4.869,25.084,12.897,-4.841,11.985,7.897,10.364,8.419,4.520
Mon Dec 02 20:44:42 2024,475,-24.761,-24.761,1.876,1.876,0.357,20.735,8.947,4.878,25.089,12.887,-4.812,12.005,7.902,10.372,8.388,4.512
Mon Dec 02 20:44:42 2024,480,-24.778,-24.778,1.816,1.816,0.412,20.810,8.937,4.885,25.093,12.860,-4.807,11.974,7.868,10.370,8.362,4.482
Mon Dec 02 20:44:42 2024,485,-24.766,-24.766,1.819,1.819,0.368,20.767,8.907,4.891,25.109,12.840,-4.807,12.022,7.860,10.374,8.411,4.503
Mon Dec 02 20:44:42 2024,490,-24.748,-24.748,1.844,1.844,0.300,20.692,8.877,4.895,25.126,12.828,-4.810,12.086,7.863,10.378,8.476,4.539
Mon Dec 02 20:44:42 2024,495,-24.739,-24.739,1.767,1.767,0.349,20.710,8.903,4.902,25.130,12.910,-4.832,12.018,7.894,10.354,8.445,4.529
Mon Dec 02 20:44:42 2024,500,-24.738,-24.738,1.723,1.723,0.387,20.729,8.934,4.917,25.145,12.970,-4.838,11.991,7.926,10.350,8.415,4.532
Mon Dec 02 20:44:42 2024,505,-24.756,-24.756,1.755,1.755,0.403,20.751,8.981,4.952,25.186,12.984,-4.804,12.057,7.960,10.392,8.388,4.567
Mon Dec 02 20:44:42 2024,510,-24.757,-24.757,1.773,1.773,0.410,20.769,8.997,4.960,25.188,12.992,-4.815,12.059,7.970,10.388,8.394,4.588
Mon Dec 02 20:44:42 2024,515,-24.749,-24.749,1.772,1.772,0.405,20.776,8.985,4.946,25.164,12.994,-4.853,12.014,7.961,10.357,8.419,4.594
Mon Dec 02 20:44:42 2024,520,-24.748,-24.748,1.719,1.719,0.373,20.744,8.958,4.929,25.147,12.994,-4.861,11.997,7.951,10.363,8.423,4.594
Mon Dec 02 20:44:42 2024,525,-24.749,-24.749,1.665,1.665,0.341,20.709,8.933,4.916,25.136,12.993,-4.862,11.988,7.943,10.376,8.421,4.592
Mon Dec 02 20:44:42 2024,530,-24.703,-24.703,1.625,1.625,0.441,20.824,8.962,4.994,25.214,13.031,-4.817,11.927,7.937,10.348,8.412,4.566
Mon Dec 02 20:44:42 2024,535,-24.696,-24.696,1.626,1.626,0.468,20.848,8.952,5.013,25.235,13.024,-4.811,11.897,7.915,10.339,8.414,4.544
Mon Dec 02 20:44:42 2024,540,-24.732,-24.732,1.683,1.683,0.413,20.769,8.897,4.964,25.193,12.962,-4.852,11.904,7.871,10.350,8.432,4.525
Mon Dec 02 20:44:42 2024,545,-24.739,-24.739,1.696,1.696,0.394,20.760,8.881,4.940,25.172,12.961,-4.885,11.907,7.873,10.342,8.450,4.534
Mon Dec 02 20:44:42 2024,550,-24.725,-24.725,1.676,1.676,0.403,20.801,8.892,4.935,25.167,13.005,-4.913,11.908,7.907,10.321,8.469,4.562
Mon Dec 02 20:44:42 2024,555,-24.682,-24.682,1.679,1.679,0.466,20.846,8.935,4.963,25.177,13.000,-4.892,11.891,7.890,10.314,8.491,4.563
Mon Dec 02 20:44:42 2024,560,-24.642,-24.642,1.674,1.674,0.503,20.861,8.954,4.974,25.175,12.982,-4.873,11.882,7.877,10.304,8.508,4.560
Mon Dec 02 20:44:42 2024,565,-24.620,-24.620,1.638,1.638,0.437,20.783,8.882,4.916,25.122,12.948,-4.882,11.909,7.897,10.281,8.512,4.554
Mon Dec 02 20:44:42 2024,570,-24.592,-24.592,1.584,1.584,0.433,20.780,8.856,4.912,25.124,12.962,-4.870,11.934,7.916,10.292,8.488,4.560
Mon Dec 02 20:44:42 2024,575,-24.567,-24.567,1.529,1.529,0.498,20.858,8.890,4.969,25.183,13.023,-4.839,11.949,7.926,10.333,8.444,4.575
Mon Dec 02 20:44:42 2024,580,-24.559,-24.559,1.549,1.549,0.494,20.854,8.918,4.964,25.180,13.016,-4.843,11.961,7.926,10.349,8.442,4.586
Mon Dec 02 20:44:42 2024,585,-24.559,-24.559,1.596,1.596,0.461,20.818,8.939,4.935,25.153,12.982,-4.859,11.970,7.921,10.352,8.457,4.594
Mon Dec 02 20:44:42 2024,590,-24.515,-24.515,1.613,1.613,0.483,20.834,8.911,4.915,25.130,12.966,-4.878,11.999,7.928,10.307,8.496,4.621
Mon Dec 02 20:44:42 2024,595,-24.461,-24.461,1.594,1.594,0.494,20.850,8.872,4.903,25.117,12.941,-4.893,12.005,7.911,10.280,8.525,4.624
Mon Dec 02 20:44:42 2024,600,-24.398,-24.398,1.511,1.511,0.488,20.866,8.818,4.906,25.124,12.907,-4.896,11.970,7.854,10.291,8.531,4.584
Mon Dec 02 20:44:42 2024,605,-24.360,-24.360,1.484,1.484,0.503,20.893,8.817,4.917,25.137,12.901,-4.891,11.973,7.837,10.299,8.529,4.569
Mon Dec 02 20:44:42 2024,610,-24.358,-24.358,1.523,1.523,0.536,20.926,8.876,4.934,25.152,12.927,-4.879,12.018,7.868,10.302,8.518,4.584
Mon Dec 02 20:44:42 2024,615,-24.339,-24.339,1.445,1.445,0.550,20.914,8.877,4.927,25.127,12.899,-4.856,12.040,7.878,10.317,8.504,4.615
Mon Dec 02 20:44:42 2024,620,-24.321,-24.321,1.372,1.372,0.558,20.898,8.862,4.916,25.099,12.867,-4.844,12.036,7.876,10.326,8.496,4.638
Mon Dec 02 20:44:42 2024,625,-24.305,-24.305,1.424,1.424,0.577,20.903,8.812,4.899,25.065,12.845,-4.918,11.886,7.822,10.293,8.520,4.602
Mon Dec 02 20:44:42 2024,630,-24.309,-24.309,1.474,1.474,0.570,20.893,8.796,4.866,25.022,12.833,-4.960,11.818,7.798,10.258,8.552,4.588
Mon Dec 02 20:44:42 2024,635,-24.355,-24.355,1.526,1.526,0.503,20.838,8.847,4.778,24.928,12.829,-4.943,11.911,7.834,10.206,8.618,4.626
Mon Dec 02 20:44:42 2024,640,-24.372,-24.372,1.494,1.494,0.522,20.858,8.888,4.801,24.957,12.860,-4.908,11.926,7.851,10.211,8.603,4.623
Mon Dec 02 20:44:42 2024,645,-24.367,-24.367,1.396,1.396,0.609,20.937,8.922,4.913,25.084,12.920,-4.857,11.883,7.852,10.261,8.523,4.591
Mon Dec 02 20:44:42 2024,650,-24.333,-24.333,1.430,1.430,0.565,20.895,8.855,4.899,25.083,12.874,-4.884,11.888,7.805,10.207,8.611,4.556
Mon Dec 02 20:44:42 2024,655,-24.302,-24.302,1.464,1.464,0.517,20.846,8.788,4.874,25.071,12.830,-4.912,11.899,7.764,10.153,8.700,4.530
Mon Dec 02 20:44:42 2024,660,-24.296,-24.296,1.414,1.414,0.521,20.818,8.779,4.860,25.062,12.862,-4.902,11.933,7.797,10.160,8.698,4.568
Mon Dec 02 20:44:42 2024,665,-24.298,-24.298,1.392,1.392,0.506,20.784,8.782,4.829,25.018,12.864,-4.898,11.934,7.816,10.160,8.691,4.578
Mon Dec 02 20:44:42 2024,670,-24.309,-24.309,1.402,1.402,0.462,20.735,8.790,4.771,24.924,12.828,-4.904,11.898,7.814,10.148,8.684,4.553
Mon Dec 02 20:44:42 2024,675,-24.327,-24.327,1.435,1.435,0.468,20.735,8.790,4.764,24.917,12.818,-4.905,11.897,7.799,10.152,8.683,4.536
Mon Dec 02 20:44:42 2024,680,-24.347,-24.347,1.477,1.477,0.494,20.755,8.788,4.777,24.945,12.818,-4.903,11.911,7.778,10.163,8.686,4.521
Mon Dec 02 20:44:42 2024,685,-24.344,-24.344,1.468,1.468,0.510,20.762,8.752,4.795,24.955,12.840,-4.907,11.846,7.764,10.138,8.691,4.481
Mon Dec 02 20:44:42 2024,690,-24.326,-24.326,1.440,1.440,0.533,20.802,8.741,4.827,24.986,12.866,-4.903,11.815,7.761,10.125,8.700,4.468
Mon Dec 02 20:44:42 2024,695,-24.288,-24.288,1.400,1.400,0.572,20.918,8.801,4.885,25.068,12.885,-4.878,11.904,7.780,10.158,8.715,4.527
Mon Dec 02 20:44:42 2024,700,-24.277,-24.277,1.415,1.415,0.568,20.935,8.796,4.884,25.074,12.869,-4.874,11.941,7.789,10.164,8.729,4.557
Mon Dec 02 20:44:42 2024,705,-24.297,-24.297,1.472,1.472,0.527,20.858,8.736,4.831,25.012,12.829,-4.890,11.914,7.786,10.144,8.735,4.548
Mon Dec 02 20:44:42 2024,710,-24.328,-24.328,1.493,1.493,0.512,20.868,8.772,4.812,24.995,12.836,-4.856,11.986,7.823,10.166,8.721,4.554
Mon Dec 02 20:44:42 2024,715,-24.360,-24.360,1.489,1.489,0.515,20.931,8.859,4.816,25.009,12.871,-4.796,12.105,7.879,10.208,8.698,4.568
Mon Dec 02 20:44:42 2024,720,-24.324,-24.324,1.458,1.458,0.512,20.900,8.871,4.820,25.008,12.882,-4.872,12.007,7.867,10.155,8.729,4.574
Mon Dec 02 20:44:42 2024,725,-24.296,-24.296,1.436,1.436,0.506,20.870,8.857,4.824,25.016,12.900,-4.925,11.941,7.862,10.121,8.753,4.582
Mon Dec 02 20:44:42 2024,730,-24.301,-24.301,1.445,1.445,0.494,20.854,8.782,4.828,25.051,12.943,-4.886,11.997,7.883,10.155,8.749,4.595
Mon Dec 02 20:44:42 2024,735,-24.297,-24.297,1.430,1.430,0.480,20.849,8.732,4.814,25.032,12.930,-4.901,11.986,7.878,10.129,8.774,4.594
Mon Dec 02 20:44:42 2024,740,-24.289,-24.289,1.402,1.402,0.469,20.854,8.715,4.792,24.975,12.878,-4.950,11.926,7.857,10.067,8.814,4.581
Mon Dec 02 20:44:42 2024,745,-24.333,-24.333,1.454,1.454,0.474,20.849,8.757,4.805,24.984,12.882,-4.940,11.883,7.835,10.074,8.792,4.567
Mon Dec 02 20:44:42 2024,750,-24.376,-24.376,1.504,1.504,0.479,20.848,8.800,4.824,25.006,12.896,-4.922,11.858,7.817,10.095,8.764,4.554
Mon Dec 02 20:44:42 2024,755,-24.359,-24.359,1.452,1.452,0.474,20.877,8.795,4.845,25.051,12.906,-4.917,11.932,7.810,10.121,8.762,4.537
Mon Dec 02 20:44:42 2024,760,-24.360,-24.360,1.431,1.431,0.447,20.895,8.781,4.847,25.076,12.906,-4.914,12.009,7.820,10.153,8.750,4.536
Mon Dec 02 20:44:42 2024,765,-24.396,-24.396,1.478,1.478,0.394,20.888,8.764,4.820,25.064,12.893,-4.910,12.063,7.852,10.190,8.717,4.555
Mon Dec 02 20:44:42 2024,770,-24.392,-24.392,1.506,1.506,0.387,20.860,8.763,4.825,25.067,12.905,-4.899,12.079,7.886,10.196,8.706,4.566
Mon Dec 02 20:44:42 2024,775,-24.360,-24.360,1.522,1.522,0.407,20.821,8.772,4.850,25.080,12.934,-4.884,12.069,7.921,10.180,8.708,4.571
Mon Dec 02 20:44:42 2024,780,-24.379,-24.379,1.564,1.564,0.430,20.862,8.798,4.846,25.077,12.929,-4.914,12.003,7.892,10.151,8.698,4.556
Mon Dec 02 20:44:42 2024,785,-24.394,-24.394,1.588,1.588,0.446,20.899,8.818,4.841,25.070,12.920,-4.945,11.940,7.861,10.134,8.683,4.541
Mon Dec 02 20:44:42 2024,790,-24.347,-24.347,1.489,1.489,0.429,20.826,8.789,4.854,25.060,12.929,-4.943,11.919,7.879,10.185,8.647,4.550
Mon Dec 02 20:44:42 2024,795,-24.340,-24.340,1.462,1.462,0.419,20.806,8.783,4.862,25.070,12.938,-4.944,11.918,7.878,10.203,8.636,4.543
Mon Dec 02 20:44:42 2024,800,-24.384,-24.384,1.517,1.517,0.418,20.847,8.802,4.865,25.104,12.947,-4.948,11.941,7.853,10.184,8.651,4.513
Mon Dec 02 20:44:42 2024,805,-24.396,-24.396,1.523,1.523,0.414,20.863,8.809,4.864,25.109,12.952,-4.952,11.954,7.863,10.180,8.654,4.520
Mon Dec 02 20:44:42 2024,810,-24.399,-24.399,1.515,1.515,0.411,20.870,8.813,4.862,25.105,12.956,-4.956,11.963,7.883,10.179,8.653,4.539
Mon Dec 02 20:44:42 2024,815,-24.402,-24.402,1.506,1.506,0.408,20.878,8.817,4.860,25.102,12.959,-4.960,11.973,7.903,10.178,8.652,4.557
Mon Dec 02 20:44:42 2024,820,-24.405,-24.405,1.498,1.498,0.404,20.885,8.821,4.858,25.098,12.963,-4.963,11.982,7.923,10.178,8.651,4.575
Mon Dec 02 20:44:42 2024,825,-24.408,-24.408,1.490,1.490,0.401,20.892,8.825,4.856,25.094,12.966,-4.967,11.992,7.943,10.177,8.650,4.593
Mon Dec 02 20:44:42 2024,830,-24.411,-24.411,1.481,1.481,0.397,20.900,8.829,4.854,25.091,12.970,-4.971,12.001,7.963,10.177,8.650,4.611
Mon Dec 02 20:44:42 2024,835,-24.414,-24.414,1.473,1.473,0.394,20.907,8.833,4.852,25.087,12.974,-4.974,12.011,7.983,10.176,8.649,4.629
Mon Dec 02 20:44:42 2024,840,-24.416,-24.416,1.464,1.464,0.391,20.915,8.837,4.850,25.083,12.977,-4.978,12.020,8.003,10.176,8.648,4.647
Mon Dec 02 20:44:42 2024,845,-24.419,-24.419,1.456,1.456,0.387,20.922,8.841,4.848,25.080,12.981,-4.982,12.030,8.022,10.175,8.647,4.666
Mon Dec 02 20:44:42 2024,850,-24.422,-24.422,1.447,1.447,0.384,20.929,8.845,4.846,25.076,12.985,-4.986,12.039,8.042,10.174,8.646,4.684
Mon Dec 02 20:44:42 2024,855,-24.425,-24.425,1.439,1.439,0.381,20.937,8.849,4.844,25.072,12.988,-4.990,12.049,8.062,10.174,8.645,4.702
Mon Dec 02 20:44:42 2024,860,-24.428,-24.428,1.430,1.430,0.377,20.944,8.853,4.842,25.068,12.992,-4.993,12.058,8.082,10.173,8.644,4.720
Mon Dec 02 20:44:42 2024,865,-24.431,-24.431,1.422,1.422,0.374,20.951,8.857,4.840,25.065,12.995,-4.997,12.068,8.102,10.173,8.643,4.738
Mon Dec 02 20:44:42 2024,870,-24.434,-24.434,1.414,1.414,0.370,20.959,8.861,4.838,25.061,12.999,-5.001,12.077,8.122,10.172,8.642,4.756
Mon Dec 02 20:44:42 2024,875,-24.437,-24.437,1.405,1.405,0.367,20.966,8.865,4.836,25.057,13.003,-5.004,12.087,8.142,10.172,8.641,4.774
Mon Dec 02 20:44:42 2024,880,-24.439,-24.439,1.397,1.397,0.364,20.974,8.869,4.834,25.054,13.006,-5.008,12.096,8.162,10.171,8.640,4.792
Mon Dec 02 20:44:42 2024,885,-24.425,-24.425,1.351,1.351,0.404,20.992,8.861,4.848,25.051,12.985,-4.994,12.070,8.134,10.178,8.613,4.746
Mon Dec 02 20:44:42 2024,890,-24.418,-24.418,1.310,1.310,0.449,21.015,8.853,4.857,25.038,12.938,-4.984,12.034,8.081,10.178,8.584,4.675
Mon Dec 02 20:44:42 2024,895,-24.430,-24.430,1.297,1.297,0.473,21.037,8.853,4.851,25.010,12.874,-4.995,12.005,8.020,10.164,8.568,4.605
Mon Dec 02 20:44:42 2024,900,-24.443,-24.443,1.310,1.310,0.481,21.023,8.871,4.839,24.984,12.850,-5.003,11.975,7.991,10.159,8.558,4.590
Mon Dec 02 20:44:42 2024,905,-24.459,-24.459,1.348,1.348,0.473,20.993,8.897,4.821,24.963,12.858,-5.015,11.951,7.989,10.163,8.561,4.630
Mon Dec 02 20:44:42 2024,910,-24.477,-24.477,1.367,1.367,0.467,21.032,8.877,4.810,24.963,12.830,-5.040,11.958,7.961,10.168,8.588,4.663
Mon Dec 02 20:44:42 2024,915,-24.495,-24.495,1.377,1.377,0.458,21.100,8.841,4.800,24.970,12.794,-5.070,11.998,7.938,10.178,8.623,4.710
Mon Dec 02 20:44:42 2024,920,-24.485,-24.485,1.371,1.371,0.441,21.062,8.862,4.795,24.959,12.844,-5.056,12.082,8.029,10.194,8.606,4.776
Mon Dec 02 20:44:42 2024,925,-24.489,-24.489,1.377,1.377,0.422,21.027,8.876,4.796,24.958,12.885,-5.055,12.123,8.091,10.204,8.582,4.822
Mon Dec 02 20:44:42 2024,930,-24.526,-24.526,1.412,1.412,0.394,20.996,8.873,4.812,24.980,12.901,-5.084,12.058,8.083,10.204,8.537,4.822
Mon Dec 02 20:44:42 2024,935,-24.543,-24.543,1.476,1.476,0.379,20.942,8.866,4.832,24.994,12.882,-5.097,12.043,8.116,10.178,8.553,4.885
Mon Dec 02 20:44:42 2024,940,-24.552,-24.552,1.536,1.536,0.371,20.892,8.860,4.849,25.004,12.858,-5.104,12.044,8.155,10.150,8.584,4.954
Mon Dec 02 20:44:42 2024,945,-24.545,-24.545,1.471,1.471,0.396,20.917,8.819,4.850,25.000,12.822,-5.085,12.005,8.095,10.141,8.552,4.861
Mon Dec 02 20:44:42 2024,950,-24.537,-24.537,1.421,1.421,0.419,20.932,8.796,4.857,25.001,12.797,-5.076,11.967,8.046,10.136,8.522,4.789
Mon Dec 02 20:44:42 2024,955,-24.523,-24.523,1.416,1.416,0.456,20.902,8.818,4.897,25.027,12.788,-5.107,11.895,8.018,10.137,8.486,4.770
Mon Dec 02 20:44:42 2024,960,-24.535,-24.535,1.444,1.444,0.481,20.909,8.842,4.904,25.022,12.768,-5.110,11.878,8.017,10.147,8.466,4.787
Mon Dec 02 20:44:42 2024,965,-24.578,-24.578,1.507,1.507,0.486,20.957,8.863,4.869,24.980,12.739,-5.079,11.931,8.048,10.169,8.468,4.845
Mon Dec 02 20:44:42 2024,970,-24.569,-24.569,1.488,1.488,0.486,20.918,8.850,4.854,24.961,12.713,-5.095,11.922,8.016,10.207,8.443,4.828
Mon Dec 02 20:44:42 2024,975,-24.547,-24.547,1.447,1.447,0.484,20.859,8.828,4.847,24.949,12.690,-5.123,11.898,7.969,10.247,8.413,4.791
Mon Dec 02 20:44:42 2024,980,-24.576,-24.576,1.396,1.396,0.450,20.802,8.854,4.820,24.915,12.710,-5.140,11.916,8.035,10.258,8.407,4.866
Mon Dec 02 20:44:42 2024,985,-24.593,-24.593,1.381,1.381,0.436,20.775,8.867,4.803,15.106,12.711,-5.146,11.930,8.059,10.258,8.408,4.898
Mon Dec 02 20:44:42 2024,990,-24.599,-24.599,1.456,1.456,0.464,20.814,8.859,4.799,15.113,12.664,-5.127,11.950,8.002,10.225,8.429,4.850
Mon Dec 02 20:44:42 2024,995,-24.599,-24.599,1.493,1.493,0.469,20.845,8.852,4.778,15.134,12.625,-5.119,12.007,7.994,10.213,8.480,4.871
Mon Dec 02 20:44:43 2024,0,-24.593,-24.593,1.494,1.494,0.455,20.871,8.845,4.742,15.168,12.593,-5.124,12.099,8.032,10.219,8.557,4.958
Mon Dec 02 20:44:43 2024,5,-24.605,-24.605,1.530,1.530,0.428,20.869,8.847,4.741,24.837,12.566,-5.103,12.142,8.014,10.266,8.535,4.959
Mon Dec 02 20:44:43 2024,10,-24.617,-24.617,1.564,1.564,0.403,20.862,8.849,4.747,24.849,12.546,-5.083,12.167,7.990,10.310,8.500,4.944
Mon Dec 02 20:44:43 2024,15,-24.624,-24.624,1.551,1.551,0.439,20.856,8.892,4.778,15.133,12.589,-5.088,12.126,8.004,10.306,8.481,4.966
Mon Dec 02 20:44:43 2024,20,-24.625,-24.625,1.536,1.536,0.460,20.843,8.905,4.780,15.142,12.600,-5.119,12.067,7.997,10.290,8.488,4.987
Mon Dec 02 20:44:43 2024,25,-24.619,-24.619,1.519,1.519,0.459,20.822,8.879,4.747,15.183,12.566,-5.179,11.993,7.962,10.264,8.526,5.001
Mon Dec 02 20:44:43 2024,30,-24.604,-24.604,1.473,1.473,0.469,20.836,8.884,4.753,15.181,12.562,-5.165,11.992,7.965,10.277,8.507,4.988
Mon Dec 02 20:44:43 2024,35,-24.588,-24.588,1.416,1.416,0.485,20.875,8.915,4.789,15.143,12.585,-5.095,12.053,7.998,10.320,8.447,4.956
Mon Dec 02 20:44:43 2024,40,-24.599,-24.599,1.447,1.447,0.525,20.882,8.898,4.843,15.084,12.602,-5.071,12.003,7.977,10.357,8.372,4.923
Mon Dec 02 20:44:43 2024,45,-24.608,-24.608,1.466,1.466,0.552,20.886,8.884,4.879,15.046,12.614,-5.059,11.962,7.962,10.383,8.317,4.897
Mon Dec 02 20:44:43 2024,50,-24.594,-24.594,1.400,1.400,0.521,20.883,8.897,4.849,15.078,12.612,-5.065,11.992,7.991,10.377,8.314,4.882
Mon Dec 02 20:44:43 2024,55,-24.591,-24.591,1.360,1.360,0.524,20.925,8.917,4.841,15.083,12.633,-5.046,12.042,8.023,10.403,8.313,4.887
Mon Dec 02 20:44:43 2024,60,-24.604,-24.604,1.364,1.364,0.567,21.004,8.938,4.864,15.049,12.677,-5.003,12.098,8.047,10.461,8.312,4.914
Mon Dec 02 20:44:43 2024,65,-24.594,-24.594,1.402,1.402,0.562,20.968,8.936,4.885,15.026,12.689,-4.984,12.108,8.076,10.445,8.314,4.928
Mon Dec 02 20:44:43 2024,70,-24.578,-24.578,1.453,1.453,0.538,20.888,8.926,4.906,15.006,12.690,-4.972,12.104,8.108,10.400,8.318,4.937
Mon Dec 02 20:44:43 2024,75,-24.549,-24.549,1.454,1.454,0.541,20.876,8.910,4.912,15.003,12.688,-4.972,12.031,8.073,10.404,8.276,4.874
Mon Dec 02 20:44:43 2024,80,-24.516,-24.516,1.433,1.433,0.546,20.875,8.897,4.914,15.005,12.691,-4.979,11.959,8.037,10.414,8.241,4.820
Mon Dec 02 20:44:43 2024,85,-24.487,-24.487,1.333,1.333,0.541,20.884,8.912,4.899,15.012,12.726,-5.011,11.965,8.048,10.420,8.288,4.886
Mon Dec 02 20:44:43 2024,90,-24.489,-24.489,1.326,1.326,0.539,20.898,8.932,4.881,15.030,12.732,-5.020,11.948,8.047,10.412,8.304,4.893
Mon Dec 02 20:44:43 2024,95,-24.514,-24.514,1.390,1.390,0.539,20.915,8.954,4.860,15.057,12.716,-5.010,11.910,8.035,10.392,8.295,4.853
Mon Dec 02 20:44:43 2024,100,-24.488,-24.488,1.401,1.401,0.536,20.858,8.890,4.890,15.022,12.728,-5.016,11.871,8.020,10.392,8.309,4.847
Mon Dec 02 20:44:43 2024,105,-24.450,-24.450,1.390,1.390,0.533,20.789,8.808,4.932,14.973,12.748,-5.027,11.839,8.007,10.399,8.328,4.854
Mon Dec 02 20:44:43 2024,110,-24.467,-24.467,1.396,1.396,0.546,20.846,8.822,4.937,25.036,12.716,-4.972,11.865,7.982,10.386,8.352,4.823
Mon Dec 02 20:44:43 2024,115,-24.472,-24.472,1.402,1.402,0.540,20.871,8.836,4.930,25.032,12.696,-4.953,11.863,7.956,10.362,8.384,4.796
Mon Dec 02 20:44:43 2024,120,-24.445,-24.445,1.398,1.398,0.486,20.802,8.838,4.895,25.002,12.715,-5.027,11.792,7.932,10.317,8.430,4.786
Mon Dec 02 20:44:43 2024,125,-24.432,-24.432,1.376,1.376,0.491,20.808,8.844,4.898,25.007,12.742,-5.043,11.758,7.926,10.294,8.425,4.756
Mon Dec 02 20:44:43 2024,130,-24.431,-24.431,1.338,1.338,0.542,20.880,8.850,4.934,25.043,12.774,-5.007,11.758,7.934,10.292,8.379,4.708
Mon Dec 02 20:44:43 2024,135,-24.420,-24.420,1.339,1.339,0.530,20.910,8.824,4.918,25.048,12.762,-5.016,11.780,7.910,10.317,8.410,4.713
Mon Dec 02 20:44:43 2024,140,-24.414,-24.414,1.349,1.349,0.508,20.908,8.800,4.900,25.049,12.751,-5.028,11.786,7.888,10.338,8.441,4.730
Mon Dec 02 20:44:43 2024,145,-24.440,-24.440,1.355,1.355,0.522,20.835,8.814,4.932,25.061,12.789,-5.002,11.714,7.899,10.330,8.401,4.728
Mon Dec 02 20:44:43 2024,150,-24.443,-24.443,1.375,1.375,0.523,20.816,8.806,4.942,25.069,12.803,-4.983,11.706,7.903,10.317,8.399,4.715
Mon Dec 02 20:44:43 2024,155,-24.407,-24.407,1.420,1.420,0.503,20.888,8.761,4.915,25.067,12.773,-4.977,11.810,7.892,10.297,8.464,4.684
Mon Dec 02 20:44:43 2024,160,-24.378,-24.378,1.456,1.456,0.487,20.951,8.725,4.893,25.068,12.749,-4.973,11.894,7.884,10.280,8.516,4.659
Mon Dec 02 20:44:43 2024,165,-24.390,-24.390,1.442,1.442,0.476,20.822,8.820,4.872,24.994,12.774,-5.061,11.669,7.896,10.232,8.525,4.703
Mon Dec 02 20:44:43 2024,170,-24.378,-24.378,1.414,1.414,0.440,20.758,8.786,4.864,25.009,12.811,-5.033,11.693,7.893,10.269,8.511,4.704
Mon Dec 02 20:44:43 2024,175,-24.365,-24.365,1.378,1.378,0.410,20.721,8.755,4.861,25.034,12.851,-5.004,11.739,7.894,10.305,8.505,4.708
Mon Dec 02 20:44:43 2024,180,-24.353,-24.353,1.310,1.310,0.406,20.800,8.802,4.867,25.048,12.897,-5.031,11.770,7.925,10.290,8.572,4.745
Mon Dec 02 20:44:43 2024,185,-24.359,-24.359,1.313,1.313,0.403,20.829,8.816,4.867,25.053,12.905,-5.030,11.797,7.936,10.287,8.592,4.743
Mon Dec 02 20:44:43 2024,190,-24.384,-24.384,1.402,1.402,0.397,20.797,8.791,4.859,25.047,12.869,-4.996,11.816,7.924,10.300,8.555,4.698
Mon Dec 02 20:44:43 2024,195,-24.403,-24.403,1.470,1.470,0.394,20.772,8.773,4.852,25.042,12.842,-4.970,11.832,7.914,10.309,8.527,4.663
Mon Dec 02 20:44:43 2024,200,-24.387,-24.387,1.434,1.434,0.375,20.794,8.772,4.873,25.072,12.895,-5.019,11.785,7.918,10.317,8.541,4.672
Mon Dec 02 20:44:43 2024,205,-24.392,-24.392,1.463,1.463,0.378,20.750,8.830,4.871,25.067,12.924,-4.975,11.854,7.952,10.318,8.568,4.727
Mon Dec 02 20:44:43 2024,210,-24.392,-24.392,1.486,1.486,0.386,20.722,8.873,4.870,25.059,12.938,-4.944,11.898,7.974,10.311,8.590,4.767
Mon Dec 02 20:44:43 2024,215,-24.374,-24.374,1.488,1.488,0.409,20.754,8.843,4.871,25.045,12.890,-4.973,11.822,7.938,10.280,8.588,4.730
Mon Dec 02 20:44:43 2024,220,-24.377,-24.377,1.498,1.498,0.392,20.736,8.793,4.860,25.035,12.880,-5.014,11.720,7.903,10.239,8.617,4.710
Mon Dec 02 20:44:43 2024,225,-24.399,-24.399,1.512,1.512,0.340,20.676,8.742,4.840,25.033,12.910,-5.050,11.632,7.882,10.204,8.666,4.714
Mon Dec 02 20:44:43 2024,230,-24.384,-24.384,1.470,1.470,0.387,20.755,8.772,4.852,25.028,12.911,-5.061,11.632,7.895,10.204,8.653,4.688
Mon Dec 02 20:44:43 2024,235,-24.365,-24.365,1.423,1.423,0.447,20.851,8.813,4.869,25.024,12.905,-5.064,11.650,7.912,10.211,8.629,4.660
Mon Dec 02 20:44:43 2024,240,-24.362,-24.362,1.345,1.345,0.441,20.860,8.849,4.874,25.043,12.962,-5.072,11.613,7.910,10.237,8.605,4.665
Mon Dec 02 20:44:43 2024,245,-24.364,-24.364,1.328,1.328,0.448,20.868,8.870,4.893,25.070,13.000,-5.071,11.575,7.904,10.238,8.588,4.663
Mon Dec 02 20:44:43 2024,250,-24.369,-24.369,1.450,1.450,0.495,20.888,8.854,4.935,25.101,12.973,-5.052,11.556,7.896,10.180,8.590,4.641
Mon Dec 02 20:44:43 2024,255,-24.371,-24.371,1.475,1.475,0.503,20.873,8.825,4.933,25.088,12.936,-5.052,11.526,7.879,10.148,8.601,4.625
Mon Dec 02 20:44:43 2024,260,-24.370,-24.370,1.437,1.437,0.485,20.835,8.789,4.903,25.046,12.896,-5.066,11.490,7.858,10.135,8.618,4.615
Mon Dec 02 20:44:43 2024,265,-24.387,-24.387,1.432,1.432,0.504,20.852,8.830,4.903,25.029,12.885,-5.070,11.454,7.852,10.124,8.593,4.591
Mon Dec 02 20:44:43 2024,270,-24.402,-24.402,1.439,1.439,0.526,20.876,8.878,4.914,25.028,12.885,-5.069,11.427,7.850,10.121,8.562,4.568
Mon Dec 02 20:44:43 2024,275,-24.377,-24.377,1.457,1.457,0.482,20.800,8.804,4.934,25.079,12.896,-5.055,11.436,7.824,10.170,8.565,4.572
Mon Dec 02 20:44:43 2024,280,-24.383,-24.383,1.493,1.493,0.447,20.764,8.768,4.935,25.104,12.901,-5.049,11.455,7.807,10.186,8.581,4.568
Mon Dec 02 20:44:43 2024,285,-24.447,-24.447,1.571,1.571,0.427,20.797,8.805,4.903,25.082,12.898,-5.059,11.495,7.804,10.148,8.619,4.547
Mon Dec 02 20:44:43 2024,290,-24.509,-24.509,1.647,1.647,0.407,20.834,8.840,4.871,25.062,12.896,-5.069,11.533,7.800,10.111,8.656,4.527
Mon Dec 02 20:44:43 2024,295,-24.472,-24.472,1.567,1.567,0.421,20.775,8.831,4.894,25.079,12.989,-5.057,11.480,7.890,10.082,8.657,4.562
Mon Dec 02 20:44:43 2024,300,-24.467,-24.467,1.551,1.551,0.431,20.806,8.845,4.918,25.110,13.000,-5.004,11.565,7.906,10.150,8.624,4.551
Mon Dec 02 20:44:43 2024,305,-24.460,-24.460,1.535,1.535,0.442,20.848,8.860,4.945,25.147,13.005,-4.941,11.672,7.917,10.236,8.581,4.535
Mon Dec 02 20:44:43 2024,310,-24.503,-24.503,1.649,1.649,0.395,20.835,8.894,4.877,25.066,12.925,-5.018,11.620,7.868,10.153,8.666,4.546
Mon Dec 02 20:44:43 2024,315,-24.524,-24.524,1.714,1.714,0.378,20.854,8.927,4.849,25.034,12.881,-5.039,11.630,7.847,10.137,8.688,4.541
Mon Dec 02 20:44:43 2024,320,-24.526,-24.526,1.736,1.736,0.393,20.912,8.968,4.861,25.054,12.871,-5.000,11.715,7.854,10.194,8.642,4.515
Mon Dec 02 20:44:43 2024,325,-24.537,-24.537,1.790,1.790,0.394,20.912,9.023,4.870,25.055,12.893,-4.990,11.711,7.898,10.189,8.643,4.546
Mon Dec 02 20:44:43 2024,330,-24.550,-24.550,1.846,1.846,0.390,20.896,9.075,4.877,25.050,12.923,-4.991,11.679,7.948,10.166,8.658,4.592
Mon Dec 02 20:44:43 2024,335,-24.533,-24.533,1.800,1.800,0.431,20.902,9.013,4.924,25.102,12.866,-4.957,11.658,7.897,10.170,8.622,4.505
Mon Dec 02 20:44:43 2024,340,-24.532,-24.532,1.775,1.775,0.455,20.910,8.965,4.954,25.141,12.821,-4.931,11.656,7.854,10.181,8.592,4.439
Mon Dec 02 20:44:43 2024,345,-24.607,-24.607,1.885,1.885,0.389,20.916,9.028,4.898,25.109,12.863,-4.945,11.733,7.893,10.208,8.610,4.512
Mon Dec 02 20:44:43 2024,350,-24.679,-24.679,1.966,1.966,0.373,20.932,9.113,4.889,25.111,12.888,-4.920,11.808,7.922,10.247,8.587,4.549
Mon Dec 02 20:44:43 2024,355,-24.714,-24.714,1.977,1.977,0.419,20.948,9.184,4.937,25.150,12.884,-4.863,11.845,7.928,10.283,8.529,4.527
Mon Dec 02 20:44:43 2024,360,-24.731,-24.731,2.001,2.001,0.414,20.958,9.201,4.937,25.156,12.850,-4.872,11.856,7.910,10.240,8.569,4.507
Mon Dec 02 20:44:43 2024,365,-24.741,-24.741,2.027,2.027,0.398,20.965,9.202,4.922,25.146,12.813,-4.892,11.862,7.893,10.192,8.619,4.492
Mon Dec 02 20:44:43 2024,370,-24.768,-24.768,2.073,2.073,0.396,20.978,9.228,4.904,25.114,12.768,-4.868,11.901,7.906,10.198,8.586,4.484
Mon Dec 02 20:44:43 2024,375,-24.797,-24.797,2.120,2.120,0.396,20.992,9.257,4.885,25.080,12.723,-4.840,11.944,7.921,10.209,8.546,4.477
Mon Dec 02 20:44:43 2024,380,-24.876,-24.876,2.151,2.151,0.314,20.894,9.317,4.842,25.037,12.716,-4.922,11.886,7.926,10.134,8.619,4.488
Mon Dec 02 20:44:43 2024,385,-24.934,-24.934,2.178,2.178,0.259,20.830,9.363,4.810,25.003,12.704,-4.973,11.851,7.933,10.083,8.664,4.494
Mon Dec 02 20:44:43 2024,390,-24.924,-24.924,2.264,2.264,0.323,20.856,9.316,4.878,25.076,12.746,-4.911,11.901,7.992,10.208,8.615,4.623
Mon Dec 02 20:44:43 2024,395,-24.934,-24.934,2.309,2.309,0.341,20.847,9.301,4.907,25.106,12.764,-4.893,11.915,8.020,10.257,8.603,4.688
Mon Dec 02 20:44:43 2024,400,-24.941,-24.941,2.189,2.189,0.336,20.757,9.274,4.913,25.104,12.724,-4.908,11.861,7.947,10.181,8.646,4.601
Mon Dec 02 20:44:43 2024,405,-24.951,-24.951,2.184,2.184,0.327,20.773,9.364,4.910,25.118,12.773,-4.878,11.873,7.950,10.235,8.613,4.623
Mon Dec 02 20:44:43 2024,410,-24.967,-24.967,2.182,2.182,0.324,20.774,9.406,4.910,25.132,12.793,-4.866,11.878,7.942,10.265,8.593,4.624
Mon Dec 02 20:44:43 2024,415,-25.010,-25.010,2.210,2.210,0.328,20.763,9.385,4.917,25.159,12.777,-4.878,11.887,7.920,10.287,8.579,4.600
Mon Dec 02 20:44:43 2024,420,-25.022,-25.022,2.246,2.246,0.374,20.819,9.407,4.927,25.155,12.776,-4.864,11.879,7.920,10.298,8.553,4.582
Mon Dec 02 20:44:43 2024,425,-25.018,-25.018,2.289,2.289,0.450,20.923,9.455,4.940,25.133,12.785,-4.831,11.858,7.931,10.303,8.518,4.566
Mon Dec 02 20:44:43 2024,430,-25.040,-25.040,2.287,2.287,0.431,20.952,9.494,4.918,25.127,12.784,-4.823,11.945,7.960,10.297,8.566,4.624
Mon Dec 02 20:44:43 2024,435,-25.061,-25.061,2.279,2.279,0.404,20.970,9.526,4.896,25.123,12.782,-4.818,12.030,7.987,10.291,8.615,4.682
Mon Dec 02 20:44:43 2024,440,-25.121,-25.121,2.341,2.341,0.370,20.926,9.526,4.889,25.115,12.804,-4.813,12.020,8.003,10.282,8.593,4.652
Mon Dec 02 20:44:43 2024,445,-25.164,-25.164,2.387,2.387,0.348,20.889,9.521,4.881,25.104,12.814,-4.821,12.009,8.027,10.254,8.602,4.661
Mon Dec 02 20:44:43 2024,450,-25.168,-25.168,2.399,2.399,0.351,20.870,9.505,4.880,25.094,12.805,-4.842,11.989,8.052,10.211,8.641,4.710
Mon Dec 02 20:44:43 2024,455,-25.205,-25.205,2.448,2.448,0.390,20.862,9.534,4.914,25.116,12.839,-4.826,11.969,8.067,10.215,8.625,4.715
Mon Dec 02 20:44:43 2024,460,-25.263,-25.263,2.518,2.518,0.452,20.865,9.595,4.974,25.159,12.903,-4.786,11.951,8.074,10.252,8.570,4.687
Mon Dec 02 20:44:43 2024,465,-25.319,-25.319,2.545,2.545,0.448,20.896,9.581,4.986,25.180,12.838,-4.766,12.072,8.071,10.268,8.578,4.669
Mon Dec 02 20:44:43 2024,470,-25.368,-25.368,2.566,2.566,0.444,20.923,9.567,4.996,25.198,12.781,-4.749,12.178,8.069,10.280,8.586,4.653
Mon Dec 02 20:44:43 2024,475,-25.491,-25.491,2.663,2.663,0.471,20.909,9.590,4.960,25.151,12.841,-4.782,12.055,8.066,10.252,8.622,4.698
Mon Dec 02 20:44:43 2024,480,-25.580,-25.580,2.724,2.724,0.470,20.904,9.616,4.990,25.192,12.885,-4.783,12.027,8.083,10.269,8.627,4.724
Mon Dec 02 20:44:43 2024,485,-25.616,-25.616,2.740,2.740,0.450,20.903,9.639,5.058,25.284,12.911,-4.763,12.066,8.110,10.312,8.607,4.732
Mon Dec 02 20:44:43 2024,490,-25.667,-25.667,2.819,2.819,0.452,20.928,9.686,5.078,25.318,12.963,-4.738,12.136,8.148,10.347,8.600,4.757
Mon Dec 02 20:44:43 2024,495,-25.715,-25.715,2.915,2.915,0.466,20.961,9.736,5.064,25.311,13.019,-4.715,12.207,8.182,10.370,8.602,4.785
Mon Dec 02 20:44:43 2024,500,-25.746,-25.746,2.905,2.905,0.432,20.922,9.734,5.070,25.309,13.018,-4.741,12.117,8.172,10.324,8.612,4.762
Mon Dec 02 20:44:43 2024,505,-25.774,-25.774,2.894,2.894,0.409,20.896,9.731,5.076,25.307,13.017,-4.760,12.055,8.165,10.294,8.620,4.753
Mon Dec 02 20:44:43 2024,510,-25.796,-25.796,2.868,2.868,0.421,20.903,9.723,5.083,25.309,13.016,-4.764,12.055,8.163,10.308,8.621,4.792
Mon Dec 02 20:44:43 2024,515,-25.822,-25.822,2.868,2.868,0.412,20.878,9.690,5.072,25.300,12.986,-4.757,12.061,8.126,10.294,8.616,4.748
Mon Dec 02 20:44:43 2024,520,-25.850,-25.850,2.895,2.895,0.384,20.822,9.633,5.044,25.282,12.930,-4.740,12.072,8.057,10.254,8.604,4.625
Mon Dec 02 20:44:43 2024,525,-25.839,-25.839,2.863,2.863,0.406,20.841,9.658,5.057,25.284,12.978,-4.744,12.075,8.088,10.279,8.621,4.648
Mon Dec 02 20:44:43 2024,530,-25.833,-25.833,2.843,2.843,0.438,20.877,9.681,5.077,25.294,13.024,-4.740,12.086,8.121,10.311,8.629,4.675
Mon Dec 02 20:44:43 2024,535,-25.862,-25.862,2.895,2.895,0.474,20.931,9.652,5.097,25.326,13.006,-4.696,12.128,8.106,10.336,8.591,4.642
Mon Dec 02 20:44:43 2024,540,-25.897,-25.897,2.957,2.957,0.517,20.995,9.619,5.120,25.362,12.985,-4.643,12.178,8.088,10.364,8.547,4.602
Mon Dec 02 20:44:43 2024,545,-25.878,-25.878,2.977,2.977,0.444,20.971,9.609,5.088,25.343,12.977,-4.698,12.196,8.086,10.319,8.594,4.608
Mon Dec 02 20:44:43 2024,550,-25.885,-25.885,2.992,2.992,0.429,20.922,9.592,5.059,25.308,12.987,-4.697,12.172,8.096,10.306,8.612,4.625
Mon Dec 02 20:44:43 2024,555,-25.899,-25.899,3.000,3.000,0.431,20.856,9.573,5.028,25.263,13.005,-4.681,12.129,8.113,10.300,8.624,4.650
Mon Dec 02 20:44:43 2024,560,-25.956,-25.956,3.055,3.055,0.413,20.859,9.582,5.037,25.280,13.009,-4.701,12.138,8.094,10.295,8.616,4.622
Mon Dec 02 20:44:43 2024,565,-26.012,-26.012,3.110,3.110,0.395,20.880,9.595,5.054,25.309,13.009,-4.726,12.159,8.071,10.291,8.603,4.587
Mon Dec 02 20:44:43 2024,570,-26.000,-26.000,3.091,3.091,0.422,20.952,9.611,5.055,25.309,12.960,-4.694,12.197,8.071,10.304,8.615,4.606
Mon Dec 02 20:44:43 2024,575,-25.992,-25.992,3.076,3.076,0.445,21.017,9.626,5.055,25.309,12.916,-4.666,12.232,8.070,10.316,8.626,4.622
Mon Dec 02 20:44:43 2024,580,-26.082,-26.082,3.210,3.210,0.422,20.816,9.668,5.074,25.292,13.013,-4.708,12.135,8.093,10.290,8.602,4.607
Mon Dec 02 20:44:43 2024,585,-26.124,-26.124,3.218,3.218,0.403,20.788,9.652,5.048,25.275,13.016,-4.710,12.150,8.101,10.269,8.620,4.598
Mon Dec 02 20:44:43 2024,590,-26.152,-26.152,3.194,3.194,0.383,20.800,9.619,5.011,25.258,12.997,-4.702,12.190,8.106,10.249,8.648,4.589
Mon Dec 02 20:44:43 2024,595,-26.186,-26.186,3.246,3.246,0.396,20.866,9.592,5.055,25.321,13.006,-4.658,12.240,8.118,10.265,8.631,4.569
Mon Dec 02 20:44:43 2024,600,-26.209,-26.209,3.289,3.289,0.410,20.918,9.575,5.094,25.373,13.015,-4.625,12.274,8.127,10.280,8.615,4.554
Mon Dec 02 20:44:43 2024,605,-26.324,-26.324,3.444,3.444,0.437,20.921,9.661,5.113,25.380,13.028,-4.580,12.321,8.137,10.288,8.597,4.556
Mon Dec 02 20:44:43 2024,610,-26.388,-26.388,3.533,3.533,0.433,20.931,9.683,5.110,25.378,13.022,-4.568,12.368,8.146,10.303,8.595,4.590
Mon Dec 02 20:44:43 2024,615,-26.402,-26.402,3.556,3.556,0.401,20.946,9.647,5.086,25.361,12.997,-4.588,12.409,8.152,10.323,8.611,4.655
Mon Dec 02 20:44:43 2024,620,-26.413,-26.413,3.574,3.574,0.374,20.959,9.617,5.065,25.348,12.977,-4.605,12.443,8.157,10.339,8.623,4.708
Mon Dec 02 20:44:43 2024,625,-26.533,-26.533,3.681,3.681,0.422,20.806,9.640,5.159,25.436,13.013,-4.590,12.315,8.103,10.282,8.628,4.617
Mon Dec 02 20:44:43 2024,630,-26.524,-26.524,3.668,3.668,0.433,20.857,9.663,5.185,25.477,13.035,-4.573,12.337,8.124,10.306,8.614,4.643
Mon Dec 02 20:44:43 2024,635,-26.518,-26.518,3.652,3.652,0.440,20.900,9.682,5.204,25.514,13.060,-4.557,12.357,8.148,10.330,8.595,4.663
Mon Dec 02 20:44:43 2024,640,-26.542,-26.542,3.633,3.633,0.424,20.869,9.671,5.191,25.513,13.101,-4.554,12.350,8.170,10.352,8.563,4.639
Mon Dec 02 20:44:43 2024,645,-26.559,-26.559,3.651,3.651,0.403,20.846,9.654,5.176,25.503,13.112,-4.553,12.340,8.167,10.368,8.555,4.626
Mon Dec 02 20:44:43 2024,650,-26.573,-26.573,3.690,3.690,0.377,20.825,9.633,5.159,25.488,13.106,-4.555,12.325,8.149,10.381,8.562,4.620
Mon Dec 02 20:44:43 2024,655,-26.583,-26.583,3.652,3.652,0.344,20.824,9.646,5.126,25.458,13.119,-4.566,12.368,8.175,10.374,8.570,4.652
Mon Dec 02 20:44:43 2024,660,-26.590,-26.590,3.600,3.600,0.316,20.829,9.665,5.094,25.430,13.135,-4.578,12.419,8.209,10.364,8.577,4.691
Mon Dec 02 20:44:43 2024,665,-26.587,-26.587,3.614,3.614,0.318,20.836,9.638,5.136,25.498,13.156,-4.598,12.373,8.169,10.388,8.567,4.642
Mon Dec 02 20:44:43 2024,670,-26.590,-26.590,3.637,3.637,0.348,20.862,9.642,5.178,25.546,13.166,-4.607,12.325,8.140,10.394,8.557,4.613
Mon Dec 02 20:44:43 2024,675,-26.602,-26.602,3.670,3.670,0.418,20.916,9.692,5.220,25.565,13.162,-4.602,12.276,8.128,10.372,8.547,4.615
Mon Dec 02 20:44:43 2024,680,-26.605,-26.605,3.678,3.678,0.442,20.952,9.693,5.245,25.600,13.156,-4.583,12.308,8.137,10.381,8.550,4.644
Mon Dec 02 20:44:43 2024,685,-26.603,-26.603,3.667,3.667,0.429,20.975,9.656,5.260,25.650,13.150,-4.555,12.404,8.164,10.412,8.562,4.694
Mon Dec 02 20:44:43 2024,690,-26.610,-26.610,3.643,3.643,0.461,21.014,9.702,5.267,25.655,13.181,-4.583,12.371,8.158,10.395,8.551,4.663
Mon Dec 02 20:44:43 2024,695,-26.617,-26.617,3.622,3.622,0.495,21.047,9.752,5.272,25.652,13.211,-4.615,12.323,8.148,10.373,8.538,4.625
Mon Dec 02 20:44:43 2024,700,-26.605,-26.605,3.619,3.619,0.452,20.928,9.689,5.222,25.559,13.150,-4.619,12.247,8.086,10.367,8.525,4.605
Mon Dec 02 20:44:43 2024,705,-26.613,-26.613,3.627,3.627,0.432,20.894,9.666,5.195,25.520,13.131,-4.619,12.232,8.080,10.367,8.529,4.612
Mon Dec 02 20:44:43 2024,710,-26.645,-26.645,3.650,3.650,0.429,20.945,9.679,5.186,25.527,13.152,-4.614,12.278,8.133,10.376,8.552,4.653
Mon Dec 02 20:44:43 2024,715,-26.627,-26.627,3.601,3.601,0.417,20.953,9.659,5.192,25.539,13.170,-4.614,12.265,8.121,10.375,8.559,4.633
Mon Dec 02 20:44:43 2024,720,-26.590,-26.590,3.534,3.534,0.406,20.935,9.629,5.205,25.551,13.180,-4.616,12.228,8.080,10.371,8.556,4.591
Mon Dec 02 20:44:43 2024,725,-26.622,-26.622,3.567,3.567,0.395,20.976,9.647,5.197,25.571,13.183,-4.622,12.284,8.111,10.385,8.575,4.633
Mon Dec 02 20:44:43 2024,730,-26.645,-26.645,3.586,3.586,0.389,21.001,9.659,5.188,25.572,13.175,-4.623,12.327,8.131,10.397,8.581,4.656
Mon Dec 02 20:44:43 2024,735,-26.639,-26.639,3.560,3.560,0.391,20.981,9.651,5.182,25.534,13.146,-4.617,12.328,8.112,10.402,8.558,4.625
Mon Dec 02 20:44:43 2024,740,-26.652,-26.652,3.560,3.560,0.397,20.984,9.640,5.185,25.529,13.116,-4.608,12.345,8.081,10.402,8.554,4.595
Mon Dec 02 20:44:43 2024,745,-26.698,-26.698,3.615,3.615,0.410,21.031,9.628,5.206,25.592,13.097,-4.598,12.389,8.036,10.393,8.590,4.578
Mon Dec 02 20:44:43 2024,750,-26.729,-26.729,3.653,3.653,0.419,21.063,9.619,5.219,25.637,13.083,-4.591,12.419,8.006,10.387,8.614,4.566
Mon Dec 02 20:44:43 2024,755,-26.740,-26.740,3.570,3.570,0.404,20.930,9.658,5.190,25.523,13.101,-4.682,12.191,8.050,10.278,8.617,4.548
Mon Dec 02 20:44:43 2024,760,-26.707,-26.707,3.587,3.587,0.408,20.948,9.682,5.228,25.565,13.113,-4.667,12.197,8.048,10.283,8.610,4.539
Mon Dec 02 20:44:43 2024,765,-26.679,-26.679,3.590,3.590,0.424,20.982,9.694,5.260,25.606,13.128,-4.643,12.231,8.054,10.304,8.603,4.549
Mon Dec 02 20:44:43 2024,770,-26.668,-26.668,3.542,3.542,0.474,21.054,9.675,5.264,25.625,13.155,-4.606,12.319,8.084,10.358,8.598,4.611
Mon Dec 02 20:44:43 2024,775,-26.683,-26.683,3.555,3.555,0.487,21.046,9.673,5.255,25.599,13.145,-4.582,12.319,8.082,10.384,8.562,4.585
Mon Dec 02 20:44:43 2024,780,-26.718,-26.718,3.617,3.617,0.472,20.977,9.682,5.234,25.538,13.108,-4.563,12.253,8.056,10.394,8.498,4.492
Mon Dec 02 20:44:43 2024,785,-26.748,-26.748,3.591,3.591,0.466,21.011,9.668,5.217,25.540,13.081,-4.555,12.281,8.033,10.349,8.537,4.468
Mon Dec 02 20:44:43 2024,790,-26.762,-26.762,3.563,3.563,0.468,21.060,9.651,5.215,25.563,13.062,-4.552,12.321,8.014,10.308,8.590,4.472
Mon Dec 02 20:44:43 2024,795,-26.728,-26.728,3.663,3.663,0.485,21.063,9.638,5.268,25.610,13.028,-4.557,12.322,7.973,10.302,8.611,4.484
Mon Dec 02 20:44:43 2024,800,-26.702,-26.702,3.721,3.721,0.487,21.061,9.635,5.301,25.639,13.009,-4.558,12.325,7.952,10.299,8.623,4.486
Mon Dec 02 20:44:43 2024,805,-26.698,-26.698,3.670,3.670,0.453,21.058,9.654,5.284,25.627,13.023,-4.547,12.343,7.979,10.300,8.624,4.464
Mon Dec 02 20:44:43 2024,810,-26.695,-26.695,3.628,3.628,0.424,21.056,9.670,5.270,25.617,13.035,-4.538,12.358,8.003,10.300,8.624,4.445
Mon Dec 02 20:44:43 2024,815,-26.690,-26.690,3.665,3.665,0.386,21.041,9.668,5.120,25.464,13.035,-4.634,12.328,8.029,10.232,8.714,4.554
Mon Dec 02 20:44:43 2024,820,-26.711,-26.711,3.669,3.669,0.408,21.059,9.663,5.163,25.505,13.008,-4.608,12.317,8.001,10.257,8.664,4.492
Mon Dec 02 20:44:43 2024,825,-26.738,-26.738,3.670,3.670,0.443,21.085,9.656,5.237,25.580,12.971,-4.563,12.306,7.959,10.298,8.589,4.400
Mon Dec 02 20:44:43 2024,830,-26.716,-26.716,3.654,3.654,0.464,21.124,9.648,5.252,25.586,12.986,-4.525,12.351,7.988,10.326,8.582,4.434
Mon Dec 02 20:44:43 2024,835,-26.706,-26.706,3.640,3.640,0.478,21.154,9.663,5.264,25.594,13.002,-4.516,12.363,8.006,10.338,8.584,4.467
Mon Dec 02 20:44:43 2024,840,-26.720,-26.720,3.623,3.623,0.485,21.173,9.730,5.282,25.607,13.021,-4.557,12.311,8.004,10.321,8.600,4.507
Mon Dec 02 20:44:43 2024,845,-26.738,-26.738,3.625,3.625,0.483,21.187,9.728,5.264,25.588,13.010,-4.567,12.307,7.999,10.294,8.622,4.508
Mon Dec 02 20:44:43 2024,850,-26.773,-26.773,3.659,3.659,0.463,21.201,9.608,5.179,25.507,12.942,-4.531,12.383,7.985,10.234,8.664,4.443
Mon Dec 02 20:44:43 2024,855,-26.764,-26.764,3.618,3.618,0.470,21.168,9.671,5.239,25.553,12.983,-4.517,12.377,8.017,10.275,8.604,4.451
Mon Dec 02 20:44:43 2024,860,-26.750,-26.750,3.603,3.603,0.483,21.149,9.725,5.294,25.597,13.015,-4.506,12.374,8.038,10.314,8.556,4.463
Mon Dec 02 20:44:43 2024,865,-26.734,-26.734,3.681,3.681,0.502,21.188,9.693,5.279,25.592,12.988,-4.509,12.396,8.006,10.306,8.586,4.470
Mon Dec 02 20:44:43 2024,870,-26.726,-26.726,3.700,3.700,0.498,21.189,9.663,5.249,25.562,12.956,-4.525,12.403,7.988,10.269,8.626,4.449
Mon Dec 02 20:44:43 2024,875,-26.729,-26.729,3.656,3.656,0.476,21.156,9.647,5.219,25.523,12.935,-4.545,12.392,7.993,10.225,8.658,4.412
Mon Dec 02 20:44:43 2024,880,-26.717,-26.717,3.600,3.600,0.437,21.095,9.639,5.204,25.507,12.945,-4.577,12.336,8.002,10.200,8.679,4.416
Mon Dec 02 20:44:43 2024,885,-26.695,-26.695,3.561,3.561,0.403,21.039,9.640,5.210,25.522,12.979,-4.603,12.264,8.012,10.205,8.678,4.457
Mon Dec 02 20:44:43 2024,890,-26.694,-26.694,3.596,3.596,0.417,21.110,9.661,5.228,25.544,12.967,-4.577,12.320,8.015,10.229,8.671,4.486
Mon Dec 02 20:44:43 2024,895,-26.688,-26.688,3.609,3.609,0.424,21.178,9.668,5.236,25.562,12.956,-4.544,12.402,8.023,10.264,8.660,4.506
Mon Dec 02 20:44:43 2024,900,-26.668,-26.668,3.561,3.561,0.406,21.210,9.638,5.221,25.568,12.955,-4.506,12.520,8.049,10.315,8.642,4.513
Mon Dec 02 20:44:43 2024,905,-26.652,-26.652,3.520,3.520,0.390,21.232,9.613,5.207,25.571,12.955,-4.478,12.608,8.068,10.355,8.628,4.517
Mon Dec 02 20:44:43 2024,910,-26.624,-26.624,3.559,3.559,0.437,21.166,9.732,5.293,25.632,13.077,-4.539,12.379,8.044,10.249,8.645,4.448
Mon Dec 02 20:44:43 2024,915,-26.607,-26.607,3.569,3.569,0.456,21.140,9.784,5.332,25.662,13.136,-4.562,12.287,8.036,10.207,8.649,4.415
Mon Dec 02 20:44:43 2024,920,-26.700,-26.700,3.676,3.676,0.377,21.158,9.664,5.199,25.550,13.021,-4.608,12.398,8.033,10.216,8.727,4.492
Mon Dec 02 20:44:43 2024,925,-26.693,-26.693,3.680,3.680,0.398,21.180,9.668,5.185,25.526,13.009,-4.593,12.405,8.039,10.245,8.699,4.482
Mon Dec 02 20:44:43 2024,930,-26.659,-26.659,3.651,3.651,0.449,21.212,9.701,5.198,25.519,13.014,-4.553,12.397,8.049,10.290,8.637,4.451
Mon Dec 02 20:44:43 2024,935,-26.611,-26.611,3.588,3.588,0.382,21.151,9.603,5.216,25.581,13.005,-4.590,12.365,8.009,10.249,8.695,4.479
Mon Dec 02 20:44:43 2024,940,-26.598,-26.598,3.547,3.547,0.372,21.138,9.592,5.206,25.572,13.000,-4.598,12.367,8.010,10.241,8.702,4.486
Mon Dec 02 20:44:43 2024,945,-26.624,-26.624,3.520,3.520,0.414,21.166,9.676,5.159,25.481,13.000,-4.581,12.409,8.060,10.260,8.662,4.476
Mon Dec 02 20:44:43 2024,950,-26.638,-26.638,3.556,3.556,0.432,21.205,9.700,5.186,25.515,13.030,-4.561,12.413,8.061,10.264,8.676,4.479
Mon Dec 02 20:44:43 2024,955,-26.648,-26.648,3.608,3.608,0.446,21.248,9.713,5.227,25.576,13.066,-4.539,12.408,8.052,10.264,8.700,4.484
Mon Dec 02 20:44:43 2024,960,-26.633,-26.633,3.611,3.611,0.412,21.209,9.711,5.252,25.610,13.076,-4.576,12.384,8.051,10.236,8.702,4.492
Mon Dec 02 20:44:43 2024,965,-26.623,-26.623,3.613,3.613,0.388,21.182,9.709,5.270,25.636,13.084,-4.602,12.367,8.049,10.217,8.704,4.498
Mon Dec 02 20:44:43 2024,970,-26.626,-26.626,3.572,3.572,0.418,21.330,9.698,5.231,25.614,13.057,-4.540,12.480,8.068,10.265,8.736,4.539
Mon Dec 02 20:44:43 2024,975,-26.623,-26.623,3.564,3.564,0.420,21.354,9.688,5.218,25.610,13.060,-4.546,12.480,8.067,10.239,8.782,4.546
Mon Dec 02 20:44:43 2024,980,-26.618,-26.618,3.575,3.575,0.409,21.301,9.680,5.218,25.610,13.082,-4.591,12.408,8.050,10.161,8.844,4.528
Mon Dec 02 20:44:43 2024,985,-26.607,-26.607,3.592,3.592,0.422,21.370,9.678,5.220,25.620,13.092,-4.552,12.482,8.086,10.139,8.867,4.517
Mon Dec 02 20:44:43 2024,990,-26.598,-26.598,3.608,3.608,0.438,21.444,9.678,5.223,25.629,13.098,-4.510,12.564,8.122,10.127,8.880,4.508
Mon Dec 02 20:44:43 2024,995,-26.585,-26.585,3.618,3.618,0.439,21.426,9.688,5.179,25.577,13.081,-4.534,12.538,8.132,10.082,8.955,4.599
Mon Dec 02 20:44:44 2024,0,-26.574,-26.574,3.628,3.628,0.440,21.419,9.697,5.147,25.538,13.068,-4.548,12.527,8.142,10.045,9.014,4.669
Mon Dec 02 20:44:44 2024,5,-26.621,-26.621,3.700,3.700,0.422,21.472,9.716,5.160,25.550,13.105,-4.561,12.542,8.164,10.058,8.959,4.625
Mon Dec 02 20:44:44 2024,10,-26.608,-26.608,3.723,3.723,0.425,21.480,9.713,5.178,25.586,13.121,-4.542,12.597,8.181,10.087,8.945,4.650
Mon Dec 02 20:44:44 2024,15,-26.580,-26.580,3.737,3.737,0.434,21.479,9.705,5.203,25.637,13.135,-4.512,12.671,8.198,10.127,8.934,4.691
Mon Dec 02 20:44:44 2024,20,-26.538,-26.538,3.671,3.671,0.401,21.524,9.704,5.180,25.632,13.134,-4.518,12.737,8.237,10.122,8.971,4.716
Mon Dec 02 20:44:44 2024,25,-26.507,-26.507,3.618,3.618,0.375,21.560,9.705,5.160,25.624,13.131,-4.524,12.785,8.267,10.114,9.001,4.734
Mon Dec 02 20:44:44 2024,30,-26.566,-26.566,3.657,3.657,0.417,21.582,9.709,5.217,25.696,13.168,-4.520,12.740,8.212,10.140,8.965,4.684
Mon Dec 02 20:44:44 2024,35,-26.602,-26.602,3.679,3.679,0.442,21.599,9.712,5.253,25.741,13.192,-4.518,12.715,8.179,10.157,8.944,4.653
Mon Dec 02 20:44:44 2024,40,-26.503,-26.503,3.629,3.629,0.463,21.617,9.773,5.204,25.642,13.150,-4.526,12.726,8.191,10.110,8.955,4.647
Mon Dec 02 20:44:44 2024,45,-26.476,-26.476,3.603,3.603,0.416,21.525,9.707,5.163,25.600,13.126,-4.538,12.702,8.187,10.064,8.991,4.641
Mon Dec 02 20:44:44 2024,50,-26.460,-26.460,3.580,3.580,0.360,21.421,9.626,5.125,25.566,13.106,-4.550,12.676,8.183,10.018,9.030,4.637
Mon Dec 02 20:44:44 2024,55,-26.501,-26.501,3.638,3.638,0.382,21.502,9.710,5.155,25.605,13.153,-4.552,12.717,8.217,10.050,8.993,4.653
Mon Dec 02 20:44:44 2024,60,-26.540,-26.540,3.696,3.696,0.405,21.588,9.797,5.186,25.647,13.200,-4.554,12.759,8.251,10.084,8.956,4.666
Mon Dec 02 20:44:44 2024,65,-26.512,-26.512,3.628,3.628,0.383,21.571,9.657,5.200,25.660,13.090,-4.534,12.724,8.149,9.973,9.052,4.609
Mon Dec 02 20:44:44 2024,70,-26.501,-26.501,3.622,3.622,0.389,21.567,9.651,5.202,25.652,13.083,-4.512,12.737,8.149,9.957,9.063,4.609
Mon Dec 02 20:44:44 2024,75,-26.491,-26.491,3.641,3.641,0.410,21.558,9.708,5.194,25.626,13.127,-4.480,12.776,8.204,9.988,9.034,4.640
Mon Dec 02 20:44:44 2024,80,-26.505,-26.505,3.646,3.646,0.376,21.541,9.702,5.162,25.590,13.122,-4.521,12.754,8.194,9.966,9.055,4.651
Mon Dec 02 20:44:44 2024,85,-26.526,-26.526,3.649,3.649,0.326,21.522,9.683,5.120,25.549,13.107,-4.581,12.715,8.171,9.929,9.089,4.659
Mon Dec 02 20:44:44 2024,90,-26.521,-26.521,3.665,3.665,0.354,21.536,9.629,5.130,25.556,13.025,-4.522,12.772,8.148,9.938,9.078,4.612
Mon Dec 02 20:44:44 2024,95,-26.517,-26.517,3.681,3.681,0.376,21.548,9.581,5.136,25.560,12.952,-4.473,12.821,8.127,9.944,9.071,4.571
Mon Dec 02 20:44:44 2024,100,-26.552,-26.552,3.675,3.675,0.396,21.542,9.648,5.116,25.514,13.032,-4.526,12.709,8.146,9.916,9.084,4.625
Mon Dec 02 20:44:44 2024,105,-26.577,-26.577,3.707,3.707,0.396,21.529,9.649,5.120,25.516,13.038,-4.543,12.677,8.142,9.922,9.082,4.639
Mon Dec 02 20:44:44 2024,110,-26.610,-26.610,3.783,3.783,0.378,21.498,9.608,5.143,25.555,13.005,-4.548,12.682,8.123,9.953,9.065,4.638
Mon Dec 02 20:44:44 2024,115,-26.551,-26.551,3.786,3.786,0.374,21.436,9.633,5.195,25.594,13.028,-4.536,12.674,8.126,9.930,9.076,4.637
Mon Dec 02 20:44:44 2024,120,-26.489,-26.489,3.780,3.780,0.372,21.377,9.663,5.242,25.626,13.053,-4.522,12.667,8.131,9.904,9.089,4.636
Mon Dec 02 20:44:44 2024,125,-26.608,-26.608,3.801,3.801,0.446,21.425,9.635,5.180,25.542,13.066,-4.536,12.605,8.128,9.912,9.073,4.576
Mon Dec 02 20:44:44 2024,130,-26.666,-26.666,3.800,3.800,0.474,21.448,9.626,5.144,25.495,13.076,-4.540,12.577,8.133,9.911,9.065,4.552
Mon Dec 02 20:44:44 2024,135,-26.642,-26.642,3.738,3.738,0.404,21.454,9.648,5.124,25.497,13.076,-4.525,12.619,8.162,9.900,9.070,4.606
Mon Dec 02 20:44:44 2024,140,-26.641,-26.641,3.722,3.722,0.384,21.444,9.648,5.126,25.505,13.068,-4.522,12.626,8.171,9.890,9.081,4.640
Mon Dec 02 20:44:44 2024,145,-26.651,-26.651,3.754,3.754,0.407,21.404,9.625,5.164,25.535,13.047,-4.528,12.603,8.161,9.877,9.109,4.675
Mon Dec 02 20:44:44 2024,150,-26.677,-26.677,3.742,3.742,0.398,21.390,9.616,5.132,25.507,13.049,-4.533,12.607,8.147,9.850,9.099,4.601
Mon Dec 02 20:44:44 2024,155,-26.686,-26.686,3.737,3.737,0.374,21.354,9.615,5.106,25.482,13.048,-4.536,12.620,8.139,9.832,9.091,4.543
Mon Dec 02 20:44:44 2024,160,-26.670,-26.670,3.744,3.744,0.337,21.292,9.625,5.100,25.471,13.038,-4.534,12.641,8.143,9.831,9.090,4.534
Mon Dec 02 20:44:44 2024,165,-26.673,-26.673,3.742,3.742,0.328,21.264,9.634,5.093,25.453,13.054,-4.547,12.621,8.156,9.815,9.107,4.553
Mon Dec 02 20:44:44 2024,170,-26.712,-26.712,3.724,3.724,0.365,21.294,9.641,5.082,25.425,13.105,-4.579,12.541,8.178,9.776,9.145,4.605
Mon Dec 02 20:44:44 2024,175,-26.710,-26.710,3.725,3.725,0.374,21.340,9.618,5.091,25.438,13.067,-4.557,12.578,8.158,9.795,9.156,4.597
Mon Dec 02 20:44:44 2024,180,-26.689,-26.689,3.736,3.736,0.372,21.398,9.581,5.109,25.473,12.985,-4.508,12.674,8.115,9.841,9.152,4.562
Mon Dec 02 20:44:44 2024,185,-26.716,-26.716,3.737,3.737,0.351,21.346,9.647,5.089,25.455,13.049,-4.508,12.711,8.183,9.866,9.131,4.597
Mon Dec 02 20:44:44 2024,190,-26.739,-26.739,3.732,3.732,0.356,21.338,9.688,5.080,25.448,13.084,-4.504,12.736,8.216,9.882,9.110,4.604
Mon Dec 02 20:44:44 2024,195,-26.746,-26.746,3.712,3.712,0.426,21.446,9.663,5.102,25.474,13.033,-4.477,12.745,8.158,9.886,9.094,4.534
Mon Dec 02 20:44:44 2024,200,-26.729,-26.729,3.737,3.737,0.420,21.414,9.675,5.119,25.469,12.998,-4.510,12.679,8.120,9.833,9.131,4.541
Mon Dec 02 20:44:44 2024,205,-26.697,-26.697,3.789,3.789,0.362,21.286,9.714,5.132,25.444,12.976,-4.582,12.565,8.098,9.747,9.203,4.600
Mon Dec 02 20:44:44 2024,210,-26.689,-26.689,3.826,3.826,0.351,21.258,9.691,5.102,25.435,13.010,-4.584,12.586,8.131,9.741,9.222,4.608
Mon Dec 02 20:44:44 2024,215,-26.690,-26.690,3.852,3.852,0.354,21.262,9.655,5.065,25.434,13.055,-4.567,12.640,8.175,9.760,9.222,4.600
Mon Dec 02 20:44:44 2024,220,-26.700,-26.700,4.030,4.030,0.362,21.370,9.697,5.105,25.500,13.052,-4.520,12.712,8.202,9.819,9.189,4.649
Mon Dec 02 20:44:44 2024,225,-26.690,-26.690,4.194,4.194,0.368,21.439,9.713,5.128,25.553,13.048,-4.487,12.774,8.212,9.847,9.176,4.664
Mon Dec 02 20:44:44 2024,230,-26.652,-26.652,4.336,4.336,0.370,21.454,9.690,5.126,25.584,13.042,-4.476,12.824,8.200,9.833,9.189,4.632
Mon Dec 02 20:44:44 2024,235,-26.638,-26.638,4.576,4.576,0.352,21.464,9.688,5.122,25.607,13.033,-4.463,12.874,8.186,9.820,9.222,4.623
Mon Dec 02 20:44:44 2024,240,-26.640,-26.640,4.820,4.820,0.327,21.471,9.696,5.116,25.620,13.025,-4.452,12.915,8.176,9.811,9.258,4.628
Mon Dec 02 20:44:44 2024,245,-26.654,-26.654,5.113,5.113,0.295,21.470,9.680,5.116,25.623,12.962,-4.457,12.896,8.130,9.764,9.290,4.619
Mon Dec 02 20:44:44 2024,250,-26.667,-26.667,5.380,5.380,0.266,21.468,9.663,5.116,25.624,12.897,-4.464,12.869,8.083,9.718,9.317,4.608
Mon Dec 02 20:44:44 2024,255,-26.676,-26.676,5.642,5.642,0.317,21.524,9.672,5.172,25.708,12.924,-4.494,12.858,8.087,9.710,9.320,4.664
Mon Dec 02 20:44:44 2024,260,-26.717,-26.717,5.974,5.974,0.352,21.560,9.694,5.215,25.766,12.920,-4.487,12.835,8.068,9.706,9.309,4.670
Mon Dec 02 20:44:44 2024,265,-26.782,-26.782,6.265,6.265,0.358,21.559,9.728,5.230,25.770,12.885,-4.438,12.806,8.033,9.708,9.283,4.616
Mon Dec 02 20:44:44 2024,270,-26.810,-26.810,6.460,6.460,0.331,21.526,9.742,5.225,25.784,12.882,-4.437,12.820,8.024,9.721,9.286,4.616
Mon Dec 02 20:44:44 2024,275,-26.827,-26.827,6.632,6.632,0.291,21.483,9.752,5.213,25.802,12.888,-4.452,12.851,8.025,9.738,9.299,4.634
Mon Dec 02 20:44:44 2024,280,-26.868,-26.868,6.849,6.849,0.312,21.549,9.768,5.182,25.761,12.853,-4.461,12.871,8.023,9.725,9.308,4.644
Mon Dec 02 20:44:44 2024,285,-26.906,-26.906,7.050,7.050,0.328,21.612,9.784,5.166,25.742,12.822,-4.460,12.898,8.015,9.729,9.306,4.647
Mon Dec 02 20:44:44 2024,290,-26.924,-26.924,7.202,7.202,0.309,21.632,9.798,5.209,25.825,12.820,-4.426,12.958,7.987,9.813,9.257,4.624
Mon Dec 02 20:44:44 2024,295,-26.940,-26.940,7.345,7.345,0.303,21.666,9.820,5.228,25.865,12.820,-4.404,13.014,7.977,9.844,9.246,4.610
Mon Dec 02 20:44:44 2024,300,-26.954,-26.954,7.499,7.499,0.323,21.734,9.860,5.201,25.825,12.824,-4.401,13.066,8.003,9.775,9.307,4.616
Mon Dec 02 20:44:44 2024,305,-26.974,-26.974,7.651,7.651,0.286,21.708,9.853,5.211,25.845,12.805,-4.408,13.062,7.978,9.755,9.325,4.617
Mon Dec 02 20:44:44 2024,310,-26.993,-26.993,7.789,7.789,0.234,21.654,9.832,5.230,25.881,12.779,-4.420,13.040,7.940,9.749,9.330,4.617
Mon Dec 02 20:44:44 2024,315,-26.987,-26.987,7.848,7.848,0.299,21.720,9.850,5.234,25.872,12.766,-4.406,13.066,7.954,9.768,9.322,4.614
Mon Dec 02 20:44:44 2024,320,-26.980,-26.980,7.910,7.910,0.347,21.776,9.860,5.236,25.869,12.758,-4.393,13.097,7.964,9.782,9.319,4.605
Mon Dec 02 20:44:44 2024,325,-26.969,-26.969,7.961,7.961,0.312,21.776,9.832,5.224,25.881,12.768,-4.383,13.143,7.957,9.776,9.340,4.573
Mon Dec 02 20:44:44 2024,330,-26.963,-26.963,8.030,8.030,0.274,21.776,9.805,5.199,25.877,12.774,-4.383,13.190,7.955,9.774,9.368,4.588
Mon Dec 02 20:44:44 2024,335,-26.963,-26.963,8.132,8.132,0.255,21.794,9.786,5.156,25.847,12.768,-4.396,13.241,7.966,9.783,9.400,4.671
Mon Dec 02 20:44:44 2024,340,-26.967,-26.967,8.126,8.126,0.304,21.788,9.809,5.182,25.842,12.770,-4.379,13.192,7.962,9.790,9.360,4.663
Mon Dec 02 20:44:44 2024,345,-26.970,-26.970,8.106,8.106,0.358,21.781,9.834,5.216,25.840,12.772,-4.361,13.132,7.957,9.797,9.314,4.644
Mon Dec 02 20:44:44 2024,350,-27.006,-27.006,8.102,8.102,0.337,21.850,9.874,5.234,25.892,12.785,-4.367,13.181,7.947,9.775,9.346,4.601
Mon Dec 02 20:44:44 2024,355,-27.036,-27.036,8.098,8.098,0.321,21.905,9.906,5.250,25.935,12.795,-4.370,13.218,7.939,9.758,9.370,4.566
Mon Dec 02 20:44:44 2024,360,-27.057,-27.057,8.226,8.226,0.321,21.844,9.863,5.168,25.808,12.726,-4.392,13.167,7.914,9.794,9.353,4.606
Mon Dec 02 20:44:44 2024,365,-27.080,-27.080,8.265,8.265,0.319,21.831,9.850,5.148,25.786,12.742,-4.391,13.161,7.930,9.827,9.334,4.639
Mon Dec 02 20:44:44 2024,370,-27.105,-27.105,8.239,8.239,0.317,21.844,9.852,5.175,25.841,12.829,-4.370,13.187,7.987,9.867,9.307,4.677
Mon Dec 02 20:44:44 2024,375,-27.105,-27.105,8.270,8.270,0.324,21.823,9.869,5.192,25.835,12.765,-4.376,13.148,7.915,9.798,9.350,4.606
Mon Dec 02 20:44:44 2024,380,-27.101,-27.101,8.306,8.306,0.331,21.800,9.887,5.206,25.820,12.682,-4.386,13.104,7.829,9.717,9.400,4.524
Mon Dec 02 20:44:44 2024,385,-27.126,-27.126,8.388,8.388,0.343,21.763,9.845,5.221,25.862,12.708,-4.366,13.122,7.876,9.790,9.363,4.613
Mon Dec 02 20:44:44 2024,390,-27.127,-27.127,8.449,8.449,0.343,21.754,9.839,5.230,25.880,12.727,-4.361,13.121,7.888,9.813,9.354,4.629
Mon Dec 02 20:44:44 2024,395,-27.108,-27.108,8.477,8.477,0.331,21.774,9.866,5.229,25.872,12.739,-4.370,13.106,7.868,9.791,9.369,4.581
Mon Dec 02 20:44:44 2024,400,-27.102,-27.102,8.680,8.680,0.332,21.808,9.896,5.185,25.816,12.710,-4.394,13.144,7.870,9.786,9.400,4.614
Mon Dec 02 20:44:44 2024,405,-27.104,-27.104,8.883,8.883,0.339,21.838,9.915,5.140,25.761,12.673,-4.417,13.190,7.880,9.790,9.426,4.669
Mon Dec 02 20:44:44 2024,410,-27.117,-27.117,9.412,9.412,0.342,21.844,9.966,5.178,25.776,12.635,-4.376,13.191,7.847,9.805,9.363,4.629
Mon Dec 02 20:44:44 2024,415,-27.128,-27.128,9.909,9.909,0.356,21.864,10.008,5.210,25.788,12.602,-4.341,13.188,7.813,9.811,9.314,4.594
Mon Dec 02 20:44:44 2024,420,-27.137,-27.137,10.495,10.495,0.404,21.946,10.043,5.210,25.783,12.565,-4.324,13.192,7.772,9.797,9.305,4.590
Mon Dec 02 20:44:44 2024,425,-27.143,-27.143,10.924,10.924,0.439,22.006,10.070,5.210,25.779,12.537,-4.313,13.195,7.742,9.786,9.298,4.586
Mon Dec 02 20:44:44 2024,430,-27.207,-27.207,11.696,11.696,0.382,21.829,10.127,5.131,25.648,12.498,-4.338,13.146,7.749,9.757,9.270,4.572
Mon Dec 02 20:44:44 2024,435,-27.282,-27.282,12.331,12.331,0.362,21.783,10.192,5.092,25.596,12.481,-4.321,13.183,7.763,9.747,9.264,4.584
Mon Dec 02 20:44:44 2024,440,-27.382,-27.382,12.928,12.928,0.351,21.797,10.270,5.069,25.583,12.480,-4.275,13.284,7.791,9.749,9.273,4.616
Mon Dec 02 20:44:44 2024,445,-27.481,-27.481,13.499,13.499,0.418,21.814,10.328,5.072,25.545,12.451,-4.286,13.208,7.736,9.704,9.241,4.552
Mon Dec 02 20:44:44 2024,450,-27.583,-27.583,13.958,13.958,0.441,21.777,10.355,5.066,25.515,12.431,-4.309,13.148,7.706,9.668,9.241,4.544
Mon Dec 02 20:44:44 2024,455,-27.737,-27.737,14.499,14.499,0.407,21.647,10.357,5.042,25.480,12.415,-4.358,13.096,7.705,9.631,9.290,4.615
Mon Dec 02 20:44:44 2024,460,-27.879,-27.879,15.021,15.021,0.435,21.649,10.433,5.042,25.465,12.429,-4.353,13.108,7.730,9.664,9.243,4.654
Mon Dec 02 20:44:44 2024,465,-27.993,-27.993,15.474,15.474,0.510,21.756,10.558,5.062,25.468,12.464,-4.308,13.162,7.766,9.744,9.128,4.656
Mon Dec 02 20:44:44 2024,470,-28.104,-28.104,15.952,15.952,0.496,21.717,10.609,5.042,25.446,12.464,-4.337,13.110,7.772,9.736,9.117,4.700
Mon Dec 02 20:44:44 2024,475,-28.184,-28.184,16.301,16.301,0.471,21.662,10.632,5.022,25.426,12.459,-4.370,13.052,7.770,9.716,9.128,4.737
Mon Dec 02 20:44:44 2024,480,-28.278,-28.278,16.769,16.769,0.488,21.700,10.641,5.003,25.404,12.420,-4.361,13.073,7.768,9.662,9.167,4.744
Mon Dec 02 20:44:44 2024,485,-28.357,-28.357,17.207,17.207,0.492,21.694,10.650,4.978,25.372,12.382,-4.363,13.074,7.757,9.618,9.191,4.749
Mon Dec 02 20:44:44 2024,490,-28.452,-28.452,17.908,17.908,0.450,21.523,10.665,4.905,25.282,12.315,-4.414,13.003,7.707,9.576,9.183,4.762
Mon Dec 02 20:44:44 2024,495,-28.551,-28.551,18.798,18.798,0.455,21.418,10.702,4.853,25.223,12.289,-4.439,12.941,7.712,9.574,9.125,4.798
Mon Dec 02 20:44:44 2024,500,-28.642,-28.642,19.710,19.710,0.483,21.355,10.747,4.816,25.183,12.287,-4.450,12.886,7.743,9.596,9.043,4.841
Mon Dec 02 20:44:44 2024,505,-28.732,-28.732,20.983,20.983,0.548,21.278,10.859,4.794,25.114,12.248,-4.445,12.804,7.735,9.571,8.958,4.899
Mon Dec 02 20:44:44 2024,510,-28.795,-28.795,22.209,22.209,0.612,21.218,10.993,4.769,25.047,12.240,-4.438,12.736,7.748,9.553,8.871,4.957
Mon Dec 02 20:44:44 2024,515,-28.850,-28.850,23.603,23.603,0.686,21.160,11.164,4.736,24.971,12.259,-4.431,12.672,7.782,9.544,8.765,5.026
Mon Dec 02 20:44:44 2024,520,-28.876,-28.876,25.066,25.066,0.785,21.117,11.354,4.744,24.931,12.294,-4.403,12.573,7.814,9.570,8.610,5.100
Mon Dec 02 20:44:44 2024,525,-28.894,-28.894,26.568,26.568,0.908,21.103,11.540,4.794,24.931,12.316,-4.358,12.433,7.823,9.616,8.419,5.172
Mon Dec 02 20:44:44 2024,530,-28.850,-28.850,27.924,27.924,1.019,21.133,11.751,4.844,24.954,12.401,-4.258,12.419,7.886,9.727,8.219,5.241
Mon Dec 02 20:44:44 2024,535,-28.775,-28.775,29.343,29.343,1.132,21.194,11.990,4.900,19.995,12.523,-4.123,12.466,7.982,9.879,8.000,5.315
Mon Dec 02 20:44:44 2024,540,-28.640,-28.640,30.243,30.243,1.088,21.112,12.129,4.917,15.008,12.644,-4.042,12.463,8.059,10.013,7.797,5.334
Mon Dec 02 20:44:44 2024,545,-28.513,-28.513,31.117,31.117,1.030,18.967,12.259,4.932,15.009,12.764,-3.967,12.456,8.134,10.145,7.597,5.348
Mon Dec 02 20:44:44 2024,550,-28.493,-28.493,32.476,32.476,0.816,19.182,12.301,4.940,25.060,12.936,-4.049,12.403,8.222,10.109,7.779,5.489
Mon Dec 02 20:44:44 2024,555,-28.426,-28.426,33.378,33.378,0.580,19.414,12.304,4.867,25.028,13.039,-4.152,12.333,8.305,10.107,7.895,5.592
Mon Dec 02 20:44:44 2024,560,-28.292,-28.292,33.939,33.939,0.228,19.589,12.235,4.664,24.847,13.082,-4.337,12.213,8.404,10.120,8.020,5.693
Mon Dec 02 20:44:44 2024,565,-28.374,-28.374,34.002,34.002,0.077,19.286,12.006,4.538,24.672,13.046,-4.555,11.888,8.394,10.108,8.071,5.787
Mon Dec 02 20:44:44 2024,570,-28.552,-28.552,33.932,33.932,-0.040,18.825,11.693,4.413,15.516,12.982,-4.818,11.445,8.354,10.087,8.109,5.895
Mon Dec 02 20:44:44 2024,575,-29.014,-29.014,33.830,33.830,-0.093,18.340,11.578,4.374,15.601,13.129,-4.908,11.050,8.371,9.992,8.054,5.968
Mon Dec 02 20:44:44 2024,580,-29.735,-29.735,33.216,33.216,-0.161,17.939,11.469,4.406,15.582,13.288,-4.947,10.738,8.375,9.971,7.937,5.972
Mon Dec 02 20:44:44 2024,585,-30.570,-30.570,31.679,31.679,-0.228,17.961,11.417,4.583,15.360,13.363,-4.858,10.798,8.341,10.139,7.760,5.811
Mon Dec 02 20:44:44 2024,590,-31.272,31.272,30.162,30.162,-0.300,17.966,11.411,4.710,24.811,13.470,-4.812,10.872,8.321,10.221,7.642,5.679
Mon Dec 02 20:44:44 2024,595,-31.893,31.893,28.499,28.499,-0.384,17.954,11.452,4.794,24.927,13.620,-4.806,10.968,8.315,10.221,7.570,5.560
Mon Dec 02 20:44:44 2024,600,-32.274,32.274,27.878,27.878,-0.506,17.944,11.555,4.824,24.990,13.664,-4.845,11.130,8.356,10.235,7.600,5.636
Mon Dec 02 20:44:44 2024,605,-32.542,32.542,27.516,27.516,-0.603,18.030,11.684,4.859,25.073,13.692,-4.853,11.368,8.412,10.281,7.645,5.745
Mon Dec 02 20:44:44 2024,610,-32.582,32.582,26.844,26.844,-0.543,18.667,11.881,5.005,25.376,13.811,-4.634,11.988,8.489,10.488,7.642,5.762
Mon Dec 02 20:44:44 2024,615,-32.711,32.711,26.305,26.305,-0.492,19.263,12.055,5.128,25.687,13.895,-4.413,12.600,8.561,10.723,7.606,5.790
Mon Dec 02 20:44:44 2024,620,-32.922,32.922,26.212,26.212,-0.489,19.484,12.118,5.155,25.837,13.884,-4.292,12.940,8.593,10.902,7.546,5.832
Mon Dec 02 20:44:44 2024,625,-33.054,33.054,26.350,26.350,-0.491,20.509,12.159,5.158,25.947,13.872,-4.216,13.240,8.637,11.074,7.510,5.927
Mon Dec 02 20:44:44 2024,630,-33.106,33.106,26.651,26.651,-0.496,20.592,12.177,5.142,26.010,13.858,-4.184,13.472,8.684,11.220,7.495,6.053
Mon Dec 02 20:44:44 2024,635,-33.158,33.158,27.359,27.359,-0.440,20.546,12.208,5.138,25.928,13.872,-4.179,13.462,8.754,11.245,7.456,6.190
Mon Dec 02 20:44:44 2024,640,-33.218,33.218,28.111,28.111,-0.366,20.476,12.228,5.148,25.850,13.872,-4.172,13.439,8.820,11.272,7.408,6.320
Mon Dec 02 20:44:44 2024,645,-33.311,33.311,28.959,28.959,-0.229,20.378,12.189,5.205,25.842,13.793,-4.136,13.522,8.871,11.395,7.316,6.447
Mon Dec 02 20:44:44 2024,650,-33.476,33.476,29.601,29.601,-0.122,20.340,12.190,5.252,25.830,13.728,-4.088,13.580,8.913,11.488,7.222,6.528
Mon Dec 02 20:44:44 2024,655,-33.885,33.885,30.161,30.161,-0.017,20.375,12.278,5.298,25.787,13.665,-3.990,13.609,8.958,11.560,7.072,6.561
Mon Dec 02 20:44:44 2024,660,-34.160,34.160,30.927,30.927,0.112,20.516,12.345,5.361,25.801,13.608,-3.922,13.632,8.951,11.640,6.919,6.546
Mon Dec 02 20:44:44 2024,665,-34.308,34.308,31.557,31.557,0.220,20.667,12.387,5.414,25.833,13.569,-3.886,13.645,8.923,11.698,6.805,6.514
Mon Dec 02 20:44:44 2024,670,-34.693,34.693,32.206,32.206,0.352,20.740,12.345,5.406,25.758,13.513,-3.918,13.522,8.854,11.616,6.826,6.485
Mon Dec 02 20:44:44 2024,675,-35.102,35.102,32.773,32.773,0.474,20.796,12.286,5.384,25.670,13.459,-3.966,13.378,8.783,11.507,6.879,6.459
Mon Dec 02 20:44:44 2024,680,-35.473,35.473,33.506,33.506,0.497,20.919,12.321,5.401,25.681,13.371,-4.061,13.317,8.657,11.605,6.822,6.351
Mon Dec 02 20:44:44 2024,685,-35.761,35.761,34.021,34.021,0.526,21.003,12.335,5.409,25.678,13.310,-4.125,13.262,8.570,11.653,6.793,6.281
Mon Dec 02 20:44:44 2024,690,-36.051,36.051,35.278,35.278,0.645,21.075,12.330,5.459,25.705,13.229,-4.052,13.242,8.511,11.608,6.812,6.335
Mon Dec 02 20:44:44 2024,695,-36.240,36.240,36.246,36.246,0.630,21.007,12.333,5.421,25.632,13.188,-4.102,13.100,8.512,11.570,6.821,6.356
Mon Dec 02 20:44:44 2024,700,-36.381,36.381,37.060,37.060,0.589,20.912,12.337,5.369,25.548,13.162,-4.168,12.949,8.529,11.532,6.830,6.374
Mon Dec 02 20:44:44 2024,705,-36.524,36.524,37.555,37.555,0.539,20.903,12.287,5.395,25.582,13.089,-4.175,12.926,8.477,11.568,6.800,6.351
Mon Dec 02 20:44:44 2024,710,-36.688,36.688,37.960,37.960,0.490,20.910,12.241,5.415,25.606,13.018,-4.184,12.891,8.434,11.604,6.769,6.330
Mon Dec 02 20:44:44 2024,715,-36.925,36.925,38.014,38.014,0.453,20.974,12.215,5.410,25.594,12.958,-4.201,12.811,8.433,11.643,6.735,6.312
Mon Dec 02 20:44:44 2024,720,-37.121,37.121,38.072,38.072,0.422,21.030,12.191,5.407,25.586,12.907,-4.215,12.745,8.430,11.677,6.706,6.298
Mon Dec 02 20:44:44 2024,725,-37.296,37.296,38.075,38.075,0.428,20.988,12.163,5.532,25.716,12.943,-4.187,12.592,8.312,11.655,6.704,6.197
Mon Dec 02 20:44:44 2024,730,-37.339,37.339,38.124,38.124,0.445,21.033,12.171,5.540,25.701,12.907,-4.226,12.481,8.277,11.661,6.676,6.157
Mon Dec 02 20:44:44 2024,735,-37.353,37.353,38.184,38.184,0.470,21.094,12.188,5.530,25.662,12.858,-4.281,12.364,8.252,11.671,6.641,6.123
Mon Dec 02 20:44:44 2024,740,-37.414,37.414,38.224,38.224,0.425,21.110,12.148,5.536,25.664,12.812,-4.364,12.278,8.247,11.666,6.685,6.151
Mon Dec 02 20:44:44 2024,745,-37.435,37.435,38.266,38.266,0.402,21.128,12.136,5.544,22.834,12.780,-4.414,12.218,8.246,11.670,6.703,6.155
Mon Dec 02 20:44:44 2024,750,-37.357,37.357,38.352,38.352,0.420,21.160,12.188,5.563,14.347,12.751,-4.414,12.185,8.258,11.708,6.668,6.095
Mon Dec 02 20:44:44 2024,755,-37.436,37.436,38.341,38.341,0.455,21.168,12.183,5.578,14.340,12.776,-4.400,12.143,8.302,11.757,6.632,6.121
Mon Dec 02 20:44:44 2024,760,-37.597,37.597,38.282,38.282,0.499,21.166,12.151,5.593,14.326,12.830,-4.377,12.093,8.366,11.814,6.594,6.191
Mon Dec 02 20:44:44 2024,765,-37.566,37.566,38.138,38.138,0.552,21.188,12.149,5.565,14.366,12.824,-4.420,12.038,8.401,11.830,6.547,6.200
Mon Dec 02 20:44:44 2024,770,-37.500,37.500,37.974,37.974,0.609,21.219,12.153,5.529,14.416,12.807,-4.475,11.983,8.431,11.837,6.496,6.197
Mon Dec 02 20:44:44 2024,775,-37.183,37.183,37.650,37.650,0.713,21.179,12.084,5.544,14.404,12.918,-4.450,11.901,8.499,11.946,6.426,6.220
Mon Dec 02 20:44:44 2024,780,-36.902,36.902,37.346,37.346,0.812,21.163,12.022,5.554,14.397,13.018,-4.431,11.823,8.562,12.044,6.360,6.242
Mon Dec 02 20:44:44 2024,785,-36.571,36.571,36.554,36.554,0.825,21.274,12.106,5.424,14.530,13.117,-4.378,11.936,8.787,12.084,6.391,6.387
Mon Dec 02 20:44:44 2024,790,-36.206,36.206,35.773,35.773,0.896,21.386,12.173,5.315,14.649,13.183,-4.326,12.023,8.970,12.158,6.395,6.510
Mon Dec 02 20:44:44 2024,795,-35.810,35.810,34.943,34.943,1.019,21.530,12.260,5.204,14.778,13.185,-4.274,12.128,9.116,12.256,6.394,6.625
Mon Dec 02 20:44:44 2024,800,-35.278,35.278,34.579,34.579,1.153,21.716,12.312,5.146,14.832,13.232,-4.170,12.319,9.225,12.386,6.356,6.675
Mon Dec 02 20:44:44 2024,805,-34.656,34.656,34.174,34.174,1.292,21.912,12.345,5.092,14.880,13.282,-4.069,12.503,9.325,12.500,6.322,6.707
Mon Dec 02 20:44:44 2024,810,-33.810,33.810,33.498,33.498,1.408,22.074,12.287,5.046,14.924,13.314,-4.036,12.556,9.380,12.481,6.347,6.674
Mon Dec 02 20:44:44 2024,815,-33.097,33.097,32.919,32.919,1.455,22.209,12.260,5.005,14.953,13.355,-3.992,12.650,9.439,12.477,6.380,6.668
Mon Dec 02 20:44:44 2024,820,-32.596,32.596,32.519,32.519,1.416,22.307,12.280,4.974,14.960,13.406,-3.934,12.794,9.504,12.496,6.419,6.700
Mon Dec 02 20:44:44 2024,825,-32.283,32.283,32.082,32.082,1.382,22.344,12.262,4.962,14.961,13.414,-3.871,12.849,9.533,12.471,6.460,6.647
Mon Dec 02 20:44:44 2024,830,-32.137,32.137,31.735,31.735,1.355,22.341,12.233,4.962,14.961,13.399,-3.819,12.850,9.539,12.433,6.492,6.567
Mon Dec 02 20:44:44 2024,835,-32.077,32.077,31.375,31.375,1.338,22.477,12.311,4.934,14.978,13.445,-3.747,12.978,9.584,12.337,6.592,6.517
Mon Dec 02 20:44:44 2024,840,-32.043,32.043,31.122,31.122,1.327,22.585,12.375,4.912,25.010,13.482,-3.694,13.078,9.619,12.265,6.667,6.484
Mon Dec 02 20:44:44 2024,845,-31.772,31.772,30.945,30.945,1.231,22.474,12.281,4.902,15.018,13.418,-3.719,12.942,9.538,12.189,6.693,6.435
Mon Dec 02 20:44:44 2024,850,-31.615,31.615,30.724,30.724,1.179,22.451,12.245,4.894,15.032,13.405,-3.728,12.894,9.514,12.157,6.724,6.416
Mon Dec 02 20:44:44 2024,855,-31.575,31.575,30.385,30.385,1.173,22.533,12.271,4.888,15.027,13.460,-3.724,12.943,9.563,12.205,6.755,6.449
Mon Dec 02 20:44:44 2024,860,-31.451,31.451,30.196,30.196,1.134,22.542,12.326,4.844,15.080,13.464,-3.705,12.953,9.593,12.306,6.714,6.521
Mon Dec 02 20:44:44 2024,865,-31.314,31.314,30.074,30.074,1.090,22.529,12.392,4.790,15.147,13.451,-3.681,12.953,9.617,12.419,6.649,6.604
Mon Dec 02 20:44:44 2024,870,-31.308,31.308,29.934,29.934,1.109,22.529,12.316,4.779,15.159,13.478,-3.706,12.893,9.619,12.346,6.703,6.589
Mon Dec 02 20:44:44 2024,875,-31.276,31.276,29.805,29.805,1.126,22.532,12.256,4.764,15.175,13.496,-3.728,12.834,9.622,12.282,6.749,6.583
Mon Dec 02 20:44:44 2024,880,-31.183,31.183,29.775,29.775,1.134,22.551,12.264,4.753,15.190,13.480,-3.731,12.795,9.619,12.256,6.765,6.604
Mon Dec 02 20:44:44 2024,885,-31.138,31.138,29.694,29.694,1.142,22.571,12.290,4.726,15.222,13.493,-3.716,12.790,9.634,12.259,6.767,6.622
Mon Dec 02 20:44:44 2024,890,-31.154,31.154,29.536,29.536,1.147,22.594,12.351,4.672,15.285,13.546,-3.672,12.834,9.674,12.309,6.747,6.638
Mon Dec 02 20:44:44 2024,895,-31.101,31.101,29.550,29.550,1.122,22.573,12.364,4.634,15.320,13.616,-3.670,12.832,9.715,12.266,6.772,6.624
Mon Dec 02 20:44:44 2024,900,-31.042,31.042,29.593,29.593,1.094,22.545,12.368,4.600,15.345,13.685,-3.675,12.823,9.751,12.212,6.801,6.604
Mon Dec 02 20:44:44 2024,905,-31.084,31.084,29.580,29.580,1.101,22.546,12.339,4.581,15.382,13.650,-3.610,12.845,9.772,12.171,6.814,6.618
Mon Dec 02 20:44:44 2024,910,-31.104,31.104,29.636,29.636,1.116,22.544,12.336,4.564,15.410,13.616,-3.568,12.858,9.772,12.120,6.832,6.607
Mon Dec 02 20:44:44 2024,915,-31.092,31.092,29.822,29.822,1.148,22.536,12.377,4.550,15.430,13.572,-3.554,12.856,9.737,12.044,6.864,6.552
Mon Dec 02 20:44:44 2024,920,-31.015,31.015,30.044,30.044,1.161,22.520,12.368,4.564,15.423,13.511,-3.539,12.817,9.694,11.965,6.884,6.488
Mon Dec 02 20:44:44 2024,925,-30.926,30.926,30.226,30.226,1.160,22.503,12.336,4.589,15.403,13.458,-3.530,12.767,9.657,11.905,6.892,6.435
Mon Dec 02 20:44:44 2024,930,-30.900,30.900,30.674,30.674,1.208,22.464,12.396,4.625,15.374,13.473,-3.549,12.588,9.615,11.748,6.924,6.391
Mon Dec 02 20:44:44 2024,935,-30.896,30.896,31.138,31.138,1.246,22.414,12.456,4.646,15.354,13.486,-3.572,12.427,9.578,11.616,6.940,6.361
Mon Dec 02 20:44:44 2024,940,-30.906,30.906,32.019,32.019,1.252,22.267,12.498,4.634,15.360,13.440,-3.612,12.253,9.526,11.505,6.898,6.337
Mon Dec 02 20:44:44 2024,945,-30.962,30.962,32.704,32.704,1.262,22.158,12.516,4.642,15.344,13.398,-3.656,12.125,9.474,11.416,6.872,6.308
Mon Dec 02 20:44:44 2024,950,-31.146,31.146,33.506,33.506,1.293,22.045,12.492,4.705,15.276,13.331,-3.741,11.994,9.381,11.301,6.863,6.244
Mon Dec 02 20:44:44 2024,955,-31.292,31.292,34.193,34.193,1.317,21.975,12.488,4.758,15.217,13.318,-3.813,11.867,9.295,11.172,6.906,6.206
Mon Dec 02 20:44:44 2024,960,-31.428,31.428,34.880,34.880,1.342,21.936,12.503,4.816,15.156,13.362,-3.886,11.724,9.199,11.003,7.020,6.187
Mon Dec 02 20:44:44 2024,965,-31.540,31.540,35.255,35.255,1.457,22.054,12.516,4.976,15.002,13.385,-3.836,11.746,9.118,11.007,7.036,6.139
Mon Dec 02 20:44:44 2024,970,-31.665,31.665,35.615,35.615,1.576,22.181,12.529,5.144,14.841,13.407,-3.777,11.776,9.036,11.021,7.048,6.088
Mon Dec 02 20:44:44 2024,975,-31.599,31.599,35.955,35.955,1.626,22.293,12.540,5.312,14.682,13.497,-3.829,11.678,8.888,10.812,7.245,6.049
Mon Dec 02 20:44:44 2024,980,-31.368,31.368,36.080,36.080,1.690,22.396,12.510,5.440,14.558,13.540,-3.822,11.625,8.768,10.698,7.398,6.020
Mon Dec 02 20:44:44 2024,985,-30.699,30.699,35.854,35.854,1.786,22.515,12.396,5.541,14.457,13.531,-3.728,11.608,8.642,10.662,7.567,5.999
Mon Dec 02 20:44:44 2024,990,-30.198,30.198,35.210,35.210,1.809,22.544,12.376,5.591,14.408,13.581,-3.656,11.753,8.622,10.733,7.601,6.036
Mon Dec 02 20:44:44 2024,995,-29.716,29.716,34.406,34.406,1.818,22.556,12.372,5.633,14.355,13.646,-3.580,11.946,8.624,10.836,7.606,6.087
Mon Dec 02 20:44:45 2024,0,-29.357,29.357,33.306,33.306,1.785,22.558,12.415,5.772,14.149,13.854,-3.681,11.983,8.456,10.858,7.681,6.115
Mon Dec 02 20:44:45 2024,5,-29.034,29.034,32.637,32.637,1.754,22.592,12.479,5.871,26.042,13.934,-3.712,12.109,8.321,10.903,7.726,6.110
Mon Dec 02 20:44:45 2024,10,-28.557,28.557,32.081,32.081,1.710,22.673,12.601,5.980,26.278,13.927,-3.698,12.376,8.144,10.986,7.771,6.069
Mon Dec 02 20:44:45 2024,15,-28.112,28.112,31.680,31.680,1.635,22.621,12.661,5.984,26.340,13.871,-3.764,12.489,7.985,10.905,7.896,6.011
Mon Dec 02 20:44:45 2024,20,-27.772,27.772,31.698,31.698,1.481,22.168,12.522,5.678,25.851,13.704,-4.075,12.106,7.900,10.336,8.247,5.919
Mon Dec 02 20:44:45 2024,25,-27.077,27.077,32.258,32.258,1.344,21.681,12.512,5.359,14.619,13.595,-4.417,11.371,7.892,9.977,8.349,6.033
Mon Dec 02 20:44:45 2024,30,-26.529,26.529,32.807,32.807,1.247,21.361,12.524,5.113,14.879,13.526,-4.681,10.735,7.908,9.746,8.360,6.162
Mon Dec 02 20:44:45 2024,35,-25.707,25.707,33.522,33.522,0.996,18.999,12.542,4.812,15.087,13.524,-4.982,9.978,7.895,9.497,8.433,6.344
Mon Dec 02 20:44:45 2024,40,-25.202,25.202,33.910,33.910,0.922,19.051,12.607,4.610,15.195,13.556,-5.141,9.576,7.908,9.410,8.455,6.448
Mon Dec 02 20:44:45 2024,45,-25.007,25.007,33.911,33.911,1.082,18.906,12.751,4.505,15.296,13.642,-5.134,9.606,7.959,9.534,8.420,6.457
Mon Dec 02 20:44:45 2024,50,-24.697,24.697,33.532,33.532,1.324,21.400,12.863,4.417,15.344,13.660,-5.069,9.722,8.008,9.614,8.398,6.412
Mon Dec 02 20:44:45 2024,55,-24.235,24.235,32.548,32.548,1.666,21.784,12.897,4.380,15.280,13.559,-4.912,9.978,8.046,9.606,8.409,6.275
Mon Dec 02 20:44:45 2024,60,-23.873,23.873,31.847,31.847,1.782,22.083,12.950,4.370,15.305,13.551,-4.874,10.165,8.105,9.603,8.455,6.215
Mon Dec 02 20:44:45 2024,65,-23.510,23.510,31.166,31.166,1.648,22.331,13.011,4.412,15.434,13.633,-4.960,10.332,8.197,9.579,8.566,6.218
Mon Dec 02 20:44:45 2024,70,-23.458,23.458,30.297,30.297,1.446,22.729,13.172,4.381,15.602,13.638,-5.026,10.718,8.224,9.581,8.676,6.054
Mon Dec 02 20:44:45 2024,75,-23.684,23.684,29.308,29.308,1.327,23.150,13.318,4.430,15.557,13.690,-5.002,11.080,8.224,9.569,8.716,5.815
Mon Dec 02 20:44:45 2024,80,-23.997,23.997,28.234,28.234,1.420,23.312,13.325,4.705,15.239,13.914,-4.853,11.174,8.249,9.499,8.647,5.626
Mon Dec 02 20:44:45 2024,85,-24.239,24.239,27.273,27.273,1.618,23.563,13.371,4.857,15.067,13.945,-4.821,11.241,8.169,9.394,8.638,5.455
Mon Dec 02 20:44:45 2024,90,-24.510,24.510,26.124,26.124,1.926,23.924,13.446,4.989,14.933,13.888,-4.838,11.310,8.015,9.242,8.654,5.252
Mon Dec 02 20:44:45 2024,95,-24.499,-24.499,24.556,24.556,1.847,24.270,13.129,4.892,25.026,13.555,-4.873,11.704,7.850,9.239,8.850,5.045
Mon Dec 02 20:44:45 2024,100,-24.490,-24.490,23.340,23.340,1.771,24.550,12.869,4.808,25.000,13.286,-4.901,12.011,7.722,9.242,9.004,4.887
Mon Dec 02 20:44:45 2024,105,-24.396,-24.396,22.034,22.034,1.765,24.489,12.732,4.835,25.024,13.359,-4.877,12.032,7.728,9.115,9.158,4.828
Mon Dec 02 20:44:45 2024,110,-24.326,-24.326,20.518,20.518,1.744,24.532,12.563,4.836,25.038,13.349,-4.858,12.128,7.716,9.049,9.266,4.731
Mon Dec 02 20:44:45 2024,115,-24.283,-24.283,18.747,18.747,1.722,24.661,12.411,4.824,25.041,13.291,-4.834,12.259,7.717,9.082,9.241,4.603
Mon Dec 02 20:44:45 2024,120,-24.312,-24.312,17.334,17.334,1.605,24.654,12.136,4.759,25.018,13.195,-4.826,12.356,7.650,9.071,9.367,4.458
Mon Dec 02 20:44:45 2024,125,-24.354,-24.354,15.922,15.922,1.471,24.634,11.835,4.684,24.994,13.090,-4.821,12.452,7.570,9.054,9.512,4.307
Mon Dec 02 20:44:45 2024,130,-24.309,-24.309,14.668,14.668,1.298,24.662,11.561,4.691,25.061,13.045,-4.705,12.623,7.563,9.195,9.509,4.298
Mon Dec 02 20:44:45 2024,135,-24.281,-24.281,13.667,13.667,1.161,24.687,11.342,4.693,25.114,13.007,-4.618,12.757,7.555,9.301,9.509,4.285
Mon Dec 02 20:44:45 2024,140,-24.120,-24.120,12.334,12.334,1.106,24.560,10.988,4.720,25.131,12.970,-4.583,12.707,7.522,9.345,9.524,4.277
Mon Dec 02 20:44:45 2024,145,-24.062,-24.062,11.370,11.370,1.070,24.524,10.728,4.760,25.192,12.961,-4.532,12.737,7.500,9.362,9.562,4.255
Mon Dec 02 20:44:45 2024,150,-24.050,-24.050,10.424,10.424,1.047,24.528,10.464,4.818,25.292,12.968,-4.464,12.808,7.478,9.354,9.627,4.220
Mon Dec 02 20:44:45 2024,155,-24.050,-24.050,9.641,9.641,1.054,24.511,10.338,4.906,25.374,12.982,-4.419,12.824,7.483,9.356,9.624,4.166
Mon Dec 02 20:44:45 2024,160,-24.053,-24.053,8.717,8.717,1.068,24.487,10.207,5.016,25.470,13.000,-4.369,12.832,7.495,9.360,9.610,4.097
Mon Dec 02 20:44:45 2024,165,-24.023,-24.023,8.076,8.076,0.944,24.307,10.089,5.057,25.529,13.021,-4.362,12.840,7.568,9.340,9.656,4.177
Mon Dec 02 20:44:45 2024,170,-23.937,-23.937,7.175,7.175,0.833,24.134,9.936,5.096,25.584,13.047,-4.362,12.838,7.635,9.352,9.685,4.235
Mon Dec 02 20:44:45 2024,175,-23.740,-23.740,6.198,6.198,0.798,24.041,9.786,5.093,25.585,13.072,-4.390,12.813,7.664,9.438,9.663,4.234
Mon Dec 02 20:44:45 2024,180,-23.576,-23.576,5.291,5.291,0.755,24.007,9.623,5.109,25.636,13.059,-4.396,12.823,7.640,9.476,9.643,4.162
Mon Dec 02 20:44:45 2024,185,-23.460,-23.460,4.611,4.611,0.720,24.020,9.487,5.132,25.705,13.025,-4.390,12.850,7.589,9.482,9.628,4.061
Mon Dec 02 20:44:45 2024,190,-23.348,-23.348,4.098,4.098,0.604,23.876,9.343,5.131,25.718,12.998,-4.376,12.848,7.614,9.551,9.599,4.112
Mon Dec 02 20:44:45 2024,195,-23.249,-23.249,3.659,3.659,0.491,23.728,9.213,5.126,25.722,12.974,-4.361,12.843,7.647,9.621,9.571,4.179
Mon Dec 02 20:44:45 2024,200,-23.238,-23.238,3.338,3.338,0.441,23.701,9.244,5.086,25.690,12.953,-4.399,12.854,7.675,9.606,9.596,4.209
Mon Dec 02 20:44:45 2024,205,-23.216,-23.216,2.967,2.967,0.386,23.648,9.238,5.040,25.647,12.948,-4.423,12.857,7.713,9.625,9.593,4.242
Mon Dec 02 20:44:45 2024,210,-23.180,-23.180,2.537,2.537,0.343,23.560,9.161,4.976,25.575,12.985,-4.420,12.841,7.776,9.716,9.525,4.270
Mon Dec 02 20:44:45 2024,215,-23.172,-23.172,2.300,2.300,0.288,23.458,9.119,4.946,25.544,12.994,-4.412,12.846,7.804,9.761,9.484,4.272
Mon Dec 02 20:44:45 2024,220,-23.190,-23.190,2.150,2.150,0.191,23.284,9.088,4.938,25.538,12.978,-4.395,12.877,7.805,9.783,9.448,4.247
Mon Dec 02 20:44:45 2024,225,-23.252,-23.252,1.928,1.928,0.160,23.268,9.056,4.962,25.584,12.972,-4.374,12.856,7.798,9.817,9.414,4.269
Mon Dec 02 20:44:45 2024,230,-23.309,-23.309,1.734,1.734,0.140,23.273,9.030,4.985,25.632,12.967,-4.357,12.830,7.789,9.846,9.385,4.293
Mon Dec 02 20:44:45 2024,235,-23.286,-23.286,1.508,1.508,-0.005,23.077,8.971,4.952,25.581,12.934,-4.421,12.723,7.763,9.847,9.357,4.282
Mon Dec 02 20:44:45 2024,240,-23.280,-23.280,1.327,1.327,-0.121,22.982,8.951,4.920,25.540,12.906,-4.443,12.694,7.762,9.864,9.334,4.287
Mon Dec 02 20:44:45 2024,245,-23.282,-23.282,-1.177,1.177,-0.191,23.020,9.012,4.854,25.466,12.872,-4.393,12.827,7.822,9.922,9.315,4.320
Mon Dec 02 20:44:45 2024,250,-23.250,-23.250,-0.958,0.958,-0.294,22.948,9.007,4.820,25.434,12.907,-4.440,12.712,7.813,9.932,9.288,4.310
Mon Dec 02 20:44:45 2024,255,-23.209,-23.209,-0.720,0.720,-0.409,22.853,8.987,4.792,25.411,12.960,-4.513,12.534,7.789,9.931,9.258,4.287
Mon Dec 02 20:44:45 2024,260,-23.213,-23.213,-0.605,0.605,-0.473,22.805,8.933,4.753,25.387,12.915,-4.504,12.529,7.760,9.940,9.234,4.273
Mon Dec 02 20:44:45 2024,265,-23.220,-23.220,-0.527,0.527,-0.518,22.772,8.892,4.724,25.368,12.878,-4.494,12.531,7.738,9.948,9.215,4.263
Mon Dec 02 20:44:45 2024,270,-23.191,-23.191,-0.392,0.392,-0.625,22.675,8.881,4.697,25.321,12.886,-4.503,12.495,7.772,9.961,9.207,4.288
Mon Dec 02 20:44:45 2024,275,-23.139,-23.139,-0.357,-0.130,-0.703,22.605,8.836,4.673,25.292,12.873,-4.511,12.476,7.766,9.991,9.174,4.265
Mon Dec 02 20:44:45 2024,280,-23.058,-23.058,-0.561,-0.561,-0.744,22.564,8.766,4.656,25.288,12.846,-4.520,12.475,7.724,10.040,9.118,4.193
Mon Dec 02 20:44:45 2024,285,-23.026,-23.026,-0.781,-0.781,-0.852,22.489,8.720,4.590,25.234,12.882,-4.586,12.388,7.726,10.076,9.088,4.210
Mon Dec 02 20:44:45 2024,290,-23.012,-23.012,-0.955,-0.955,-0.949,22.430,8.687,4.529,25.182,12.920,-4.648,12.304,7.733,10.105,9.068,4.236
Mon Dec 02 20:44:45 2024,295,-23.006,-23.006,-1.209,-1.209,-1.060,22.426,8.673,4.464,25.101,12.885,-4.704,12.279,7.754,10.111,9.051,4.239
Mon Dec 02 20:44:45 2024,300,-22.992,-22.992,-1.504,-1.504,-1.166,22.425,8.659,4.408,25.032,12.849,-4.752,12.250,7.760,10.138,9.017,4.227
Mon Dec 02 20:44:45 2024,305,-22.950,-22.950,-1.801,-1.801,-1.219,22.417,8.652,4.401,25.018,12.821,-4.762,12.224,7.723,10.208,8.951,4.177
Mon Dec 02 20:44:45 2024,310,-22.898,-22.898,-2.065,-2.065,-1.295,22.390,8.614,4.368,24.988,12.798,-4.773,12.246,7.722,10.290,8.876,4.176
Mon Dec 02 20:44:45 2024,315,-22.844,-22.844,-2.293,-2.293,-1.378,22.354,8.563,4.325,24.952,12.780,-4.783,12.294,7.742,10.374,8.802,4.200
Mon Dec 02 20:44:45 2024,320,-22.781,-22.781,-2.580,-2.580,-1.446,22.384,8.523,4.287,24.925,12.806,-4.785,12.289,7.751,10.383,8.787,4.183
Mon Dec 02 20:44:45 2024,325,-22.726,-22.726,-2.838,-2.838,-1.503,22.418,8.490,4.256,24.902,12.835,-4.786,12.276,7.758,10.379,8.783,4.162
Mon Dec 02 20:44:45 2024,330,-22.660,-22.660,-3.134,-3.134,-1.572,22.400,8.437,4.241,24.902,12.806,-4.750,12.367,7.806,10.450,8.744,4.187
Mon Dec 02 20:44:45 2024,335,-22.593,-22.593,-3.433,-3.433,-1.597,22.372,8.410,4.227,24.876,12.797,-4.736,12.379,7.819,10.493,8.704,4.168
Mon Dec 02 20:44:45 2024,340,-22.517,-22.517,-3.736,-3.736,-1.559,22.322,8.417,4.216,24.815,12.810,-4.749,12.296,7.789,10.508,8.658,4.098
Mon Dec 02 20:44:45 2024,345,-22.476,-22.476,-4.026,-4.026,-1.600,22.342,8.415,4.189,24.801,12.807,-4.761,12.319,7.789,10.554,8.625,4.098
Mon Dec 02 20:44:45 2024,350,-22.459,-22.459,-4.278,-4.278,-1.677,22.398,8.409,4.158,24.815,12.796,-4.772,12.394,7.802,10.610,8.602,4.134
Mon Dec 02 20:44:45 2024,355,-22.465,-22.465,-4.423,-4.423,-1.707,22.397,8.430,4.159,24.819,12.824,-4.777,12.344,7.818,10.579,8.610,4.101
Mon Dec 02 20:44:45 2024,360,-22.461,-22.461,-4.561,-4.561,-1.715,22.384,8.442,4.170,24.827,12.846,-4.768,12.320,7.830,10.569,8.599,4.063
Mon Dec 02 20:44:45 2024,365,-22.398,-22.398,-4.803,-4.803,-1.668,22.342,8.416,4.210,24.864,12.845,-4.703,12.440,7.832,10.677,8.502,4.005
Mon Dec 02 20:44:45 2024,370,-22.342,-22.342,-4.947,-4.947,-1.653,22.347,8.404,4.217,24.869,12.840,-4.684,12.501,7.842,10.717,8.473,3.991
Mon Dec 02 20:44:45 2024,375,-22.284,-22.284,-4.984,-4.984,-1.673,22.412,8.405,4.179,24.836,12.830,-4.724,12.493,7.862,10.676,8.526,4.029
Mon Dec 02 20:44:45 2024,380,-22.199,-22.199,-5.133,-5.133,-1.638,22.404,8.420,4.185,24.846,12.837,-4.707,12.521,7.868,10.719,8.495,4.023
Mon Dec 02 20:44:45 2024,385,-22.090,-22.090,-5.364,-5.364,-1.564,22.346,8.444,4.222,24.887,12.856,-4.651,12.573,7.863,10.822,8.403,3.988
Mon Dec 02 20:44:45 2024,390,-21.998,-21.998,-5.431,-5.431,-1.581,22.395,8.426,4.188,24.885,12.906,-4.669,12.601,7.910,10.819,8.435,4.039
Mon Dec 02 20:44:45 2024,395,-21.923,-21.923,-5.474,-5.474,-1.603,22.444,8.407,4.154,24.881,12.950,-4.691,12.622,7.953,10.809,8.472,4.089
Mon Dec 02 20:44:45 2024,400,-21.790,-21.790,-5.573,-5.573,-1.471,22.435,8.459,4.292,24.953,12.992,-4.654,12.580,7.946,10.809,8.441,4.065
Mon Dec 02 20:44:45 2024,405,-21.691,-21.691,-5.627,-5.627,-1.390,22.426,8.471,4.338,24.962,13.011,-4.630,12.570,7.953,10.804,8.433,4.057
Mon Dec 02 20:44:45 2024,410,-21.589,-21.589,-5.642,-5.642,-1.324,22.390,8.427,4.279,24.877,12.999,-4.605,12.600,7.977,10.787,8.451,4.061
Mon Dec 02 20:44:45 2024,415,-21.493,-21.493,-5.632,-5.632,-1.217,22.377,8.451,4.287,24.878,13.029,-4.586,12.624,7.976,10.805,8.439,4.050
Mon Dec 02 20:44:45 2024,420,-21.422,-21.422,-5.618,-5.618,-1.128,22.376,8.483,4.304,24.896,13.060,-4.572,12.641,7.971,10.826,8.424,4.039
Mon Dec 02 20:44:45 2024,425,-21.318,-21.318,-5.769,-5.769,-0.938,22.501,8.571,4.317,24.915,13.175,-4.543,12.713,8.021,10.833,8.446,4.091
