Timestamp,Millis,thumb_tm_aa,thumb_tm_flex,thumb_mcp_aa,thumb_mcp_flex,index_mcp_aa,index_mcp_flex,index_pip,middle_mcp_aa,middle_mcp_flex,middle_pip,ring_mcp_aa,ring_mcp_flex,ring_pip,little_mcp_aa,little_mcp_flex,little_pip
Mon Dec 02 21:01:49 2024,300,-12.269,-12.269,-2.934,-2.934,5.185,43.540,28.917,5.806,14.124,13.196,-1.065,17.490,9.149,7.459,11.484,6.358
Mon Dec 02 21:01:49 2024,305,-12.285,-12.285,-2.908,-2.908,4.822,41.035,25.287,5.551,14.422,13.007,-0.812,17.566,9.041,7.705,11.277,6.368
Mon Dec 02 21:01:49 2024,310,-12.348,-12.348,-2.838,-2.838,4.429,39.026,22.514,5.357,14.629,12.921,-0.529,17.734,8.968,8.012,11.017,6.349
Mon Dec 02 21:01:49 2024,315,-12.406,-12.406,-2.812,-2.812,4.041,36.978,19.761,5.195,14.801,12.864,-0.240,17.794,8.921,8.328,10.739,6.336
Mon Dec 02 21:01:49 2024,320,-12.417,-12.417,-2.894,-2.894,3.819,35.728,18.008,5.190,14.811,12.905,-0.064,17.609,8.963,8.529,10.547,6.341
Mon Dec 02 21:01:49 2024,325,-12.432,-12.432,-2.984,-2.984,3.576,34.457,16.294,5.179,14.822,12.939,0.109,17.412,9.008,8.727,10.360,6.338
Mon Dec 02 21:01:49 2024,330,-12.448,-12.448,-3.112,-3.112,3.204,33.310,15.000,5.126,14.868,12.874,0.172,17.302,9.067,8.822,10.310,6.264
Mon Dec 02 21:01:49 2024,335,-12.465,-12.465,-3.225,-3.225,2.869,32.422,14.074,5.071,14.911,12.795,0.193,17.238,9.118,8.870,10.304,6.183
Mon Dec 02 21:01:49 2024,340,-12.482,-12.482,-3.344,-3.344,2.448,31.364,13.055,5.012,14.954,12.705,0.225,17.165,9.177,8.996,10.241,6.103
Mon Dec 02 21:01:49 2024,345,-12.489,-12.489,-3.411,-3.411,2.120,30.597,12.400,4.978,14.985,12.646,0.259,17.117,9.216,9.161,10.133,6.063
Mon Dec 02 21:01:49 2024,350,-12.496,-12.496,-3.498,-3.498,1.724,29.685,11.622,4.950,15.010,12.564,0.326,17.086,9.262,9.375,9.989,6.007
Mon Dec 02 21:01:49 2024,355,-12.475,-12.475,-3.596,-3.596,1.424,29.000,11.012,4.992,14.977,12.449,0.508,17.183,9.291,9.605,9.834,5.935
Mon Dec 02 21:01:49 2024,360,-12.460,-12.460,-3.689,-3.689,1.156,28.393,10.471,5.035,14.941,12.341,0.685,17.271,9.317,9.817,9.686,5.866
Mon Dec 02 21:01:49 2024,365,-12.456,-12.456,-3.702,-3.702,0.861,27.781,10.013,5.016,14.958,12.250,0.797,17.279,9.338,9.915,9.637,5.816
Mon Dec 02 21:01:49 2024,370,-12.456,-12.456,-3.675,-3.675,0.627,27.324,9.720,4.962,15.004,12.190,0.841,17.242,9.343,9.919,9.661,5.797
Mon Dec 02 21:01:49 2024,375,-12.455,-12.455,-3.658,-3.658,0.392,26.861,9.422,4.907,15.051,12.126,0.889,17.206,9.344,9.928,9.683,5.781
Mon Dec 02 21:01:49 2024,380,-12.435,-12.435,-3.705,-3.705,0.207,26.459,9.151,4.861,15.093,12.054,0.942,17.181,9.316,9.963,9.683,5.794
Mon Dec 02 21:01:49 2024,385,-12.411,-12.411,-3.772,-3.772,-0.008,26.043,8.864,4.812,15.140,11.967,1.003,17.156,9.274,10.008,9.676,5.814
Mon Dec 02 21:01:49 2024,390,-12.413,-12.413,-3.807,-3.807,-0.179,25.768,8.622,4.740,15.194,11.787,1.078,17.161,9.203,10.028,9.681,5.752
Mon Dec 02 21:01:49 2024,395,-12.420,-12.420,-3.828,-3.828,-0.267,25.566,8.428,4.674,15.239,11.618,1.144,17.168,9.138,10.041,9.688,5.684
Mon Dec 02 21:01:49 2024,400,-12.426,-12.426,-3.821,-3.821,-0.314,25.424,8.297,4.658,15.245,11.529,1.198,17.134,9.081,10.073,9.671,5.643
Mon Dec 02 21:01:49 2024,405,-12.431,-12.431,-3.768,-3.768,-0.304,25.327,8.221,4.708,15.199,11.533,1.249,17.029,9.019,10.143,9.615,5.628
Mon Dec 02 21:01:49 2024,410,-12.436,-12.436,-3.728,-3.728,-0.297,25.254,8.164,4.747,15.164,11.536,1.289,16.949,8.973,10.196,9.572,5.616
Mon Dec 02 21:01:49 2024,415,-12.396,-12.396,-3.753,-3.753,-0.491,24.971,8.046,4.676,15.214,11.458,1.253,16.992,8.962,10.092,9.695,5.640
Mon Dec 02 21:01:49 2024,420,-12.364,-12.364,-3.774,-3.774,-0.647,24.758,7.956,4.616,15.252,11.396,1.223,17.030,8.957,10.006,9.794,5.660
Mon Dec 02 21:01:49 2024,425,-12.389,-12.389,-3.769,-3.769,-0.735,24.629,7.898,4.561,15.305,11.333,1.241,17.083,8.925,10.038,9.766,5.631
Mon Dec 02 21:01:49 2024,430,-12.435,-12.435,-3.752,-3.752,-0.773,24.566,7.869,4.522,15.353,11.284,1.276,17.129,8.889,10.118,9.685,5.588
Mon Dec 02 21:01:49 2024,435,-12.488,-12.488,-3.731,-3.731,-0.805,24.516,7.852,4.500,15.382,11.258,1.314,17.163,8.871,10.184,9.614,5.560
Mon Dec 02 21:01:49 2024,440,-12.553,-12.553,-3.702,-3.702,-0.817,24.503,7.872,4.534,15.355,11.300,1.351,17.155,8.914,10.200,9.582,5.582
Mon Dec 02 21:01:49 2024,445,-12.626,-12.626,-3.671,-3.671,-0.829,24.490,7.894,4.572,15.325,11.346,1.391,17.146,8.961,10.218,9.546,5.607
Mon Dec 02 21:01:49 2024,450,-12.595,-12.595,-3.688,-3.688,-0.852,24.232,7.762,4.539,15.356,11.274,1.346,17.167,8.894,10.200,9.558,5.572
Mon Dec 02 21:01:49 2024,455,-12.554,-12.554,-3.710,-3.710,-0.872,23.990,7.635,4.501,15.391,11.198,1.298,17.188,8.821,10.180,9.577,5.536
Mon Dec 02 21:01:49 2024,460,-12.526,-12.526,-3.735,-3.735,-0.856,23.762,7.557,4.533,15.376,11.231,1.272,17.202,8.798,10.185,9.571,5.533
Mon Dec 02 21:01:49 2024,465,-12.528,-12.528,-3.754,-3.754,-0.799,23.642,7.581,4.648,15.293,11.401,1.287,17.204,8.853,10.222,9.532,5.578
Mon Dec 02 21:01:49 2024,470,-12.541,-12.541,-3.758,-3.758,-0.732,23.543,7.611,4.755,15.211,11.545,1.304,17.213,8.897,10.262,9.487,5.610
Mon Dec 02 21:01:49 2024,475,-12.600,-12.600,-3.702,-3.702,-0.622,23.527,7.669,4.832,15.153,11.593,1.326,17.252,8.900,10.317,9.415,5.593
Mon Dec 02 21:01:49 2024,480,-12.656,-12.656,-3.650,-3.650,-0.526,23.524,7.721,4.894,15.101,11.622,1.346,17.286,8.899,10.364,9.352,5.574
Mon Dec 02 21:01:49 2024,485,-12.662,-12.662,-3.638,-3.638,-0.436,23.584,7.754,4.969,15.030,11.662,1.352,17.360,8.875,10.408,9.297,5.536
Mon Dec 02 21:01:49 2024,490,-12.572,-12.572,-3.703,-3.703,-0.375,23.745,7.748,5.052,14.938,11.707,1.331,17.492,8.813,10.442,9.268,5.471
Mon Dec 02 21:01:49 2024,495,-12.514,-12.514,-3.733,-3.733,-0.258,23.869,7.779,5.165,14.799,11.787,1.312,17.561,8.764,10.476,9.226,5.427
Mon Dec 02 21:01:49 2024,500,-12.479,-12.479,-3.724,-3.724,-0.077,23.951,7.858,5.319,14.611,11.919,1.287,17.537,8.727,10.503,9.172,5.414
Mon Dec 02 21:01:49 2024,505,-12.440,-12.440,-3.714,-3.714,0.159,24.059,7.950,5.496,14.383,12.071,1.259,17.508,8.684,10.535,9.108,5.400
Mon Dec 02 21:01:49 2024,510,-12.399,-12.399,-3.736,-3.736,0.237,24.170,8.062,5.654,25.890,12.329,1.241,17.635,8.756,10.589,9.027,5.435
Mon Dec 02 21:01:49 2024,515,-12.355,-12.355,-3.762,-3.762,0.309,24.290,8.185,5.822,26.225,12.616,1.222,17.785,8.846,10.649,8.938,5.478
Mon Dec 02 21:01:49 2024,520,-12.273,-12.273,-3.712,-3.712,0.437,24.420,8.320,6.028,26.658,12.924,1.204,17.960,8.934,10.719,8.831,5.522
Mon Dec 02 21:01:49 2024,525,-12.188,-12.188,-3.604,-3.604,0.567,24.504,8.408,6.185,26.983,13.122,1.195,18.082,8.983,10.767,8.754,5.549
Mon Dec 02 21:01:49 2024,530,-12.104,-12.104,-3.512,-3.512,0.712,24.617,8.535,6.349,27.346,13.360,1.175,18.217,9.052,10.810,8.670,5.566
Mon Dec 02 21:01:49 2024,535,-12.062,-12.062,-3.551,-3.551,0.845,24.789,8.773,6.461,27.636,13.667,1.116,18.348,9.180,10.788,8.604,5.530
Mon Dec 02 21:01:49 2024,540,-12.024,-12.024,-3.601,-3.601,0.980,24.972,9.028,6.572,27.933,13.986,1.052,18.481,9.317,10.760,8.530,5.488
Mon Dec 02 21:01:49 2024,545,-11.977,-11.977,-3.603,-3.603,1.070,24.990,9.168,6.612,28.154,14.314,1.003,18.570,9.465,10.796,8.442,5.544
Mon Dec 02 21:01:49 2024,550,-11.921,-11.921,-3.586,-3.586,1.152,24.948,9.275,6.626,28.371,14.677,0.953,18.650,9.632,10.864,8.340,5.646
Mon Dec 02 21:01:49 2024,555,-11.860,-11.860,-3.562,-3.562,1.263,24.929,9.393,6.656,28.611,15.070,0.889,18.769,9.822,10.947,8.216,5.763
Mon Dec 02 21:01:49 2024,560,-11.812,-11.812,-3.534,-3.534,1.402,24.984,9.486,6.722,28.792,15.360,0.814,18.940,9.992,11.035,8.087,5.869
Mon Dec 02 21:01:49 2024,565,-11.765,-11.765,-3.505,-3.505,1.539,25.042,9.578,6.786,28.972,15.648,0.741,19.103,10.159,11.122,7.960,5.974
Mon Dec 02 21:01:49 2024,570,-11.758,-11.758,-3.470,-3.470,1.560,24.934,9.676,6.800,29.148,16.135,0.644,19.266,10.408,11.342,7.752,6.124
Mon Dec 02 21:01:49 2024,575,-11.754,-11.754,-3.436,-3.436,1.568,24.816,9.766,6.806,29.312,16.605,0.551,19.408,10.645,11.556,7.551,6.268
Mon Dec 02 21:01:49 2024,580,-11.708,-11.708,-3.400,-3.400,1.607,24.660,9.830,7.020,29.873,17.604,0.460,19.535,10.962,11.761,7.315,6.340
Mon Dec 02 21:01:49 2024,585,-11.638,-11.638,-3.375,-3.375,1.661,24.540,9.838,7.344,30.580,18.688,0.414,19.586,11.212,11.858,7.153,6.305
Mon Dec 02 21:01:49 2024,590,-11.550,-11.550,-3.353,-3.353,1.729,24.418,9.875,7.752,31.528,20.154,0.393,20.442,11.526,11.989,6.960,6.270
Mon Dec 02 21:01:49 2024,595,-11.446,-11.446,-3.371,-3.371,1.803,24.413,10.074,8.228,32.858,22.255,0.568,20.918,11.884,12.175,6.812,6.275
Mon Dec 02 21:01:49 2024,600,-11.357,-11.357,-3.390,-3.390,1.868,24.416,10.252,8.639,34.049,24.151,0.726,21.397,12.193,12.337,6.686,6.281
Mon Dec 02 21:01:49 2024,605,-11.316,-11.316,-3.335,-3.335,1.931,24.515,10.486,8.935,35.898,26.729,0.752,22.124,12.531,12.340,6.695,6.232
Mon Dec 02 21:01:49 2024,610,-11.317,-11.317,-3.254,-3.254,1.973,24.640,10.682,9.057,37.624,28.969,0.686,22.809,12.784,12.244,6.784,6.166
Mon Dec 02 21:01:49 2024,615,-11.350,-11.350,-3.139,-3.139,1.963,24.726,10.942,9.092,39.026,30.727,0.675,23.608,13.120,12.148,6.842,6.118
Mon Dec 02 21:01:49 2024,620,-11.478,-11.478,-2.902,-2.902,1.819,24.747,11.450,8.934,39.962,31.730,0.806,24.921,13.784,12.014,6.834,6.099
Mon Dec 02 21:01:49 2024,625,-11.628,-11.628,-2.652,-2.652,1.664,24.766,12.042,8.792,40.980,32.836,0.922,26.326,14.546,11.886,6.794,6.099
Mon Dec 02 21:01:49 2024,630,-11.837,-11.837,-2.443,-2.443,1.536,24.680,13.106,9.030,41.550,33.710,0.765,27.325,15.462,11.945,6.529,6.348
Mon Dec 02 21:01:49 2024,635,-12.020,-12.020,-2.276,-2.276,1.434,24.595,14.064,9.290,41.966,34.418,0.600,28.112,16.262,12.022,6.268,6.598
Mon Dec 02 21:01:49 2024,640,-12.168,-12.168,-2.109,-2.109,1.379,24.436,14.798,9.590,42.408,35.104,0.447,28.974,16.928,12.112,5.996,6.724
Mon Dec 02 21:01:49 2024,645,-12.250,-12.250,-1.960,-1.960,1.401,24.185,15.121,9.916,42.838,35.686,0.338,29.846,17.316,12.208,5.743,6.653
Mon Dec 02 21:01:49 2024,650,-12.286,-12.286,-1.857,-1.857,1.434,24.006,15.365,10.212,43.205,36.172,0.096,30.578,17.671,12.289,5.535,6.601
Mon Dec 02 21:01:49 2024,655,-12.194,-12.194,-1.846,-1.846,1.523,23.955,15.479,10.546,43.523,36.512,-0.418,31.218,18.068,12.357,5.379,6.580
Mon Dec 02 21:01:49 2024,660,-12.086,-12.086,-1.844,-1.844,1.619,23.919,15.586,10.899,43.856,36.859,-0.736,31.886,18.494,12.427,5.219,6.564
Mon Dec 02 21:01:49 2024,665,-12.109,-12.109,-1.760,-1.760,1.727,24.074,15.794,11.042,44.104,37.340,-1.086,32.433,18.724,12.441,5.216,6.496
Mon Dec 02 21:01:49 2024,670,-12.199,-12.199,-1.645,-1.645,1.828,24.309,16.033,11.056,44.278,37.855,-1.406,32.855,18.820,12.422,5.297,6.407
Mon Dec 02 21:01:49 2024,675,-12.267,-12.217,-1.562,-1.558,1.903,24.490,16.198,11.051,44.359,38.194,-1.630,33.156,18.881,12.411,5.355,6.340
Mon Dec 02 21:01:49 2024,680,-12.279,-11.981,-1.558,-1.534,1.916,24.540,16.163,10.968,44.117,37.952,-1.570,33.122,18.827,12.423,5.358,6.328
Mon Dec 02 21:01:49 2024,685,-12.292,-11.745,-1.554,-1.510,1.929,24.589,16.129,10.886,43.875,37.709,-1.510,33.088,18.773,12.434,5.360,6.315
Mon Dec 02 21:01:49 2024,690,-12.304,-11.509,-1.549,-1.485,1.942,24.639,16.094,10.803,43.633,37.467,-1.450,33.054,18.719,12.445,5.362,6.302
Mon Dec 02 21:01:49 2024,695,-12.317,-11.273,-1.545,-1.461,1.955,24.689,16.059,10.721,43.391,37.224,-1.390,33.020,18.665,12.457,5.365,6.289
Mon Dec 02 21:01:49 2024,700,-12.329,-11.037,-1.541,-1.437,1.968,24.739,16.025,10.638,43.150,36.982,-1.330,32.985,18.611,12.468,5.367,6.276
Mon Dec 02 21:01:49 2024,705,-12.342,-10.801,-1.537,-1.413,1.981,24.788,15.990,10.556,42.908,36.739,-1.270,32.951,18.557,12.479,5.369,6.264
Mon Dec 02 21:01:49 2024,710,-12.355,-10.565,-1.532,-1.389,1.994,24.838,15.955,10.473,42.666,36.497,-1.210,32.917,18.502,12.491,5.372,6.251
Mon Dec 02 21:01:49 2024,715,-12.367,-10.329,-1.528,-1.364,2.007,24.888,15.920,10.391,42.424,36.254,-1.150,32.883,18.448,12.502,5.374,6.238
Mon Dec 02 21:01:49 2024,720,-12.380,-10.093,-1.524,-1.340,2.020,24.938,15.886,10.309,42.182,36.011,-1.090,32.849,18.394,12.513,5.376,6.225
Mon Dec 02 21:01:49 2024,725,-12.392,-9.857,-1.520,-1.316,2.033,24.987,15.851,10.226,41.941,35.769,-1.030,32.815,18.340,12.524,5.378,6.212
Mon Dec 02 21:01:49 2024,730,-12.405,-9.621,-1.515,-1.292,2.046,25.037,15.816,10.144,41.699,35.526,-0.970,32.781,18.286,12.536,5.381,6.199
Mon Dec 02 21:01:49 2024,735,-12.418,-9.385,-1.511,-1.267,2.059,25.087,15.782,10.061,41.457,35.284,-0.910,32.746,18.232,12.547,5.383,6.187
Mon Dec 02 21:01:49 2024,740,-12.430,-9.149,-1.507,-1.243,2.072,25.137,15.747,9.979,41.215,35.041,-0.850,32.712,18.178,12.558,5.385,6.174
Mon Dec 02 21:01:49 2024,745,-12.443,-8.913,-1.503,-1.219,2.085,25.186,15.712,9.896,40.973,34.799,-0.790,32.678,18.124,12.570,5.388,6.161
Mon Dec 02 21:01:49 2024,750,-12.455,-8.677,-1.498,-1.195,2.098,25.236,15.677,9.814,40.732,34.556,-0.730,32.644,18.070,12.581,5.390,6.148
Mon Dec 02 21:01:49 2024,755,-12.468,-8.441,-1.494,-1.171,2.111,25.286,15.643,9.732,40.490,34.313,-0.670,32.610,18.015,12.592,5.392,6.135
Mon Dec 02 21:01:49 2024,760,-12.480,-8.205,-1.490,-1.146,2.124,25.336,15.608,9.649,40.248,34.071,-0.610,32.576,17.961,12.604,5.394,6.123
Mon Dec 02 21:01:49 2024,765,-12.493,-7.969,-1.486,-1.122,2.137,25.385,15.573,9.567,40.006,33.828,-0.550,32.542,17.907,12.615,5.397,6.110
Mon Dec 02 21:01:49 2024,770,-12.506,-7.733,-1.482,-1.098,2.150,25.435,15.539,9.484,39.764,33.586,-0.490,32.507,17.853,12.626,5.399,6.097
Mon Dec 02 21:01:49 2024,775,-12.518,-7.497,-1.477,-1.074,2.163,25.485,15.504,9.402,39.523,33.343,-0.430,32.473,17.799,12.638,5.401,6.084
Mon Dec 02 21:01:49 2024,780,-12.531,-7.261,-1.473,-1.049,2.176,25.535,15.469,9.319,39.281,33.101,-0.370,32.439,17.745,12.649,5.404,6.071
Mon Dec 02 21:01:49 2024,785,-12.543,-7.025,-1.469,-1.025,2.189,25.584,15.434,9.237,39.039,32.858,-0.310,32.405,17.691,12.660,5.406,6.059
Mon Dec 02 21:01:49 2024,790,-12.556,-6.789,-1.465,-1.001,2.202,25.634,15.400,9.155,38.797,32.615,-0.250,32.371,17.637,12.672,5.408,6.046
Mon Dec 02 21:01:49 2024,795,-12.569,-6.553,-1.460,-0.977,2.215,25.684,15.365,9.072,38.555,32.373,-0.190,32.337,17.583,12.683,5.411,6.033
Mon Dec 02 21:01:49 2024,800,-12.581,-6.317,-1.456,-0.953,2.228,25.734,15.330,8.990,38.314,32.130,-0.130,32.303,17.528,12.694,5.413,6.020
Mon Dec 02 21:01:49 2024,805,-12.594,-6.081,-1.452,-0.928,2.241,25.783,15.296,8.907,38.072,31.888,-0.070,32.268,17.474,12.706,5.415,6.007
Mon Dec 02 21:01:49 2024,810,-12.606,-5.845,-1.448,-0.904,2.254,25.833,15.261,8.825,37.830,31.645,-0.010,32.234,17.420,12.717,5.417,5.994
Mon Dec 02 21:01:49 2024,815,-12.619,-5.610,-1.443,-0.880,2.266,25.883,15.226,8.742,37.588,31.403,0.050,32.200,17.366,12.728,5.420,5.982
Mon Dec 02 21:01:49 2024,820,-12.632,-5.374,-1.439,-0.856,2.279,25.933,15.192,8.660,37.346,31.160,0.110,32.166,17.312,12.740,5.422,5.969
Mon Dec 02 21:01:49 2024,825,-12.644,-5.138,-1.435,-0.831,2.292,25.982,15.157,8.578,37.105,30.917,0.170,32.132,17.258,12.751,5.424,5.956
Mon Dec 02 21:01:49 2024,830,-12.657,-4.902,-1.431,-0.807,2.305,26.032,15.122,8.495,36.863,30.675,0.230,32.098,17.204,12.762,5.427,5.943
Mon Dec 02 21:01:49 2024,835,-12.669,-4.666,-1.426,-0.783,2.318,26.082,15.087,8.413,36.621,30.432,0.290,32.064,17.150,12.774,5.429,5.930
Mon Dec 02 21:01:49 2024,840,-12.682,-4.430,-1.422,-0.759,2.331,26.132,15.053,8.330,36.379,30.190,0.350,32.029,17.096,12.785,5.431,5.918
Mon Dec 02 21:01:49 2024,845,-12.694,-4.194,-1.418,-0.734,2.344,26.181,15.018,8.248,36.137,29.947,0.410,31.995,17.042,12.796,5.433,5.905
Mon Dec 02 21:01:49 2024,850,-12.707,-3.958,-1.414,-0.710,2.357,26.231,14.983,8.165,35.896,29.705,0.470,31.961,16.987,12.807,5.436,5.892
Mon Dec 02 21:01:49 2024,855,-12.720,-3.722,-1.409,-0.686,2.370,26.281,14.949,8.083,35.654,29.462,0.530,31.927,16.933,12.819,5.438,5.879
Mon Dec 02 21:01:49 2024,860,-12.732,-3.486,-1.405,-0.662,2.383,26.331,14.914,8.001,35.412,29.219,0.590,31.893,16.879,12.830,5.440,5.866
Mon Dec 02 21:01:49 2024,865,-12.745,-3.250,-1.401,-0.638,2.396,26.380,14.879,7.918,35.170,28.977,0.650,31.859,16.825,12.841,5.443,5.853
Mon Dec 02 21:01:49 2024,870,-12.757,-3.014,-1.397,-0.613,2.409,26.430,14.844,7.836,34.928,28.734,0.710,31.825,16.771,12.853,5.445,5.841
Mon Dec 02 21:01:49 2024,875,-12.770,-2.778,-1.392,-0.589,2.422,26.480,14.810,7.753,34.687,28.492,0.770,31.790,16.717,12.864,5.447,5.828
Mon Dec 02 21:01:49 2024,880,-12.783,-2.542,-1.388,-0.565,2.435,26.529,14.775,7.671,34.445,28.249,0.830,31.756,16.663,12.875,5.450,5.815
Mon Dec 02 21:01:49 2024,885,-12.795,-2.306,-1.384,-0.541,2.448,26.579,14.740,7.588,34.203,28.007,0.890,31.722,16.609,12.887,5.452,5.802
Mon Dec 02 21:01:49 2024,890,-12.808,-2.070,-1.380,-0.516,2.461,26.629,14.706,7.506,33.961,27.764,0.950,31.688,16.555,12.898,5.454,5.789
Mon Dec 02 21:01:49 2024,895,-12.820,-1.834,-1.375,-0.492,2.474,26.679,14.671,7.424,33.719,27.521,1.010,31.654,16.500,12.909,5.456,5.777
Mon Dec 02 21:01:49 2024,900,-12.833,-1.598,-1.371,-0.468,2.487,26.728,14.636,7.341,33.477,27.279,1.070,31.620,16.446,12.921,5.459,5.764
Mon Dec 02 21:01:49 2024,905,-12.845,-1.362,-1.367,-0.444,2.500,26.778,14.601,7.259,33.236,27.036,1.130,31.586,16.392,12.932,5.461,5.751
Mon Dec 02 21:01:49 2024,910,-12.858,-1.126,-1.363,-0.420,2.513,26.828,14.567,7.176,32.994,26.794,1.190,31.551,16.338,12.943,5.463,5.738
Mon Dec 02 21:01:49 2024,915,-12.871,-0.890,-1.358,-0.395,2.526,26.878,14.532,7.094,32.752,26.551,1.250,31.517,16.284,12.955,5.466,5.725
Mon Dec 02 21:01:49 2024,920,-12.883,-0.654,-1.354,-0.371,2.539,26.927,14.497,7.011,32.510,26.309,1.310,31.483,16.230,12.966,5.468,5.713
Mon Dec 02 21:01:49 2024,925,-12.896,-0.418,-1.350,-0.347,2.552,26.977,14.463,6.929,32.268,26.066,1.370,31.449,16.176,12.977,5.470,5.700
Mon Dec 02 21:01:49 2024,930,-12.908,-0.182,-1.346,-0.323,2.565,27.027,14.428,6.846,32.027,25.824,1.430,31.415,16.122,12.989,5.473,5.687
Mon Dec 02 21:01:49 2024,935,-12.921,0.054,-1.341,-0.298,2.578,27.077,14.393,6.764,31.785,25.581,1.490,31.381,16.068,13.000,5.475,5.674
Mon Dec 02 21:01:49 2024,940,-12.934,0.290,-1.337,-0.274,2.591,27.126,14.359,6.682,31.543,25.338,1.550,31.347,16.013,13.011,5.477,5.661
Mon Dec 02 21:01:49 2024,945,-12.946,0.526,-1.333,-0.250,2.604,27.176,14.324,6.599,31.301,25.096,1.610,31.312,15.959,13.023,5.479,5.648
Mon Dec 02 21:01:49 2024,950,-12.959,0.762,-1.329,-0.226,2.617,27.226,14.289,6.517,31.059,24.853,1.669,31.278,15.905,13.034,5.482,5.636
Mon Dec 02 21:01:49 2024,955,-12.971,0.998,-1.324,-0.202,2.630,27.276,14.254,6.434,30.818,24.611,1.729,31.244,15.851,13.045,5.484,5.623
Mon Dec 02 21:01:49 2024,960,-12.984,1.234,-1.320,-0.177,2.643,27.325,14.220,6.352,30.576,24.368,1.789,31.210,15.797,13.057,5.486,5.610
Mon Dec 02 21:01:49 2024,965,-12.997,1.470,-1.316,-0.153,2.656,27.375,14.185,6.269,30.334,24.126,1.849,31.176,15.743,13.068,5.489,5.597
Mon Dec 02 21:01:49 2024,970,-13.009,1.706,-1.312,-0.129,2.669,27.425,14.150,6.187,30.092,23.883,1.909,31.142,15.689,13.079,5.491,5.584
Mon Dec 02 21:01:49 2024,975,-13.022,1.942,-1.308,-0.105,2.682,27.475,14.116,6.105,29.850,23.640,1.969,31.108,15.635,13.090,5.493,5.572
Mon Dec 02 21:01:49 2024,980,-13.034,2.178,-1.303,-0.080,2.695,27.524,14.081,6.022,29.609,23.398,2.029,31.073,15.581,13.102,5.495,5.559
Mon Dec 02 21:01:49 2024,985,-13.047,2.414,-1.299,-0.056,2.708,27.574,14.046,5.940,29.367,23.155,2.089,31.039,15.527,13.113,5.498,5.546
Mon Dec 02 21:01:49 2024,990,-13.059,2.650,-1.295,-0.032,2.721,27.624,14.011,5.857,29.125,22.913,2.149,31.005,15.472,13.124,5.500,5.533
Mon Dec 02 21:01:49 2024,995,-13.072,2.886,-1.291,-0.008,2.734,27.674,13.977,5.775,28.883,22.670,2.209,30.971,15.418,13.136,5.502,5.520
Mon Dec 02 21:01:50 2024,0,-13.085,3.122,-1.286,0.017,2.747,27.723,13.942,5.692,28.641,22.428,2.269,30.937,15.364,13.147,5.505,5.508
Mon Dec 02 21:01:50 2024,5,-13.097,3.358,-1.282,0.041,2.760,27.773,13.907,5.610,28.400,22.185,2.329,30.903,15.310,13.158,5.507,5.495
Mon Dec 02 21:01:50 2024,10,-13.110,3.593,-1.278,0.065,2.773,27.823,13.873,5.528,28.158,21.942,2.389,30.869,15.256,13.170,5.509,5.482
Mon Dec 02 21:01:50 2024,15,-13.122,3.829,-1.274,0.089,2.786,27.873,13.838,5.445,27.916,21.700,2.449,30.834,15.202,13.181,5.512,5.469
Mon Dec 02 21:01:50 2024,20,-13.135,4.065,-1.269,0.113,2.799,27.922,13.803,5.363,27.674,21.457,2.509,30.800,15.148,13.192,5.514,5.456
Mon Dec 02 21:01:50 2024,25,-13.148,4.301,-1.265,0.138,2.812,27.972,13.768,5.280,27.432,21.215,2.569,30.766,15.094,13.204,5.516,5.443
Mon Dec 02 21:01:50 2024,30,-13.160,4.537,-1.261,0.162,2.825,28.022,13.734,5.198,27.191,20.972,2.629,30.732,15.040,13.215,5.518,5.431
Mon Dec 02 21:01:50 2024,35,-13.173,4.773,-1.257,0.186,2.838,28.072,13.699,5.115,26.949,20.730,2.689,30.698,14.985,13.226,5.521,5.418
Mon Dec 02 21:01:50 2024,40,-13.185,5.009,-1.252,0.210,2.851,28.121,13.664,5.033,26.707,20.487,2.749,30.664,14.931,13.238,5.523,5.405
Mon Dec 02 21:01:50 2024,45,-13.198,5.245,-1.248,0.235,2.864,28.171,13.630,4.951,26.465,20.244,2.809,30.630,14.877,13.249,5.525,5.392
Mon Dec 02 21:01:50 2024,50,-13.211,5.481,-1.244,0.259,2.877,28.221,13.595,4.868,26.223,20.002,2.869,30.595,14.823,13.260,5.528,5.379
Mon Dec 02 21:01:50 2024,55,-13.223,5.717,-1.240,0.283,2.890,28.271,13.560,4.786,25.982,19.759,2.929,30.561,14.769,13.272,5.530,5.367
Mon Dec 02 21:01:50 2024,60,-13.236,5.953,-1.235,0.307,2.903,28.320,13.525,4.703,25.740,19.517,2.989,30.527,14.715,13.283,5.532,5.354
Mon Dec 02 21:01:50 2024,65,-13.248,6.189,-1.231,0.331,2.916,28.370,13.491,4.621,25.498,19.274,3.049,30.493,14.661,13.294,5.534,5.341
Mon Dec 02 21:01:50 2024,70,-13.261,6.425,-1.227,0.356,2.929,28.420,13.456,4.538,25.256,19.032,3.109,30.459,14.607,13.306,5.537,5.328
Mon Dec 02 21:01:50 2024,75,-13.273,6.661,-1.223,0.380,2.942,28.470,13.421,4.456,25.014,18.789,3.169,30.425,14.553,13.317,5.539,5.315
Mon Dec 02 21:01:50 2024,80,-13.286,6.897,-1.218,0.404,2.955,28.519,13.387,4.374,24.773,18.546,3.229,30.391,14.498,13.328,5.541,5.302
Mon Dec 02 21:01:50 2024,85,-13.299,7.133,-1.214,0.428,2.968,28.569,13.352,4.291,24.531,18.304,3.289,30.356,14.444,13.340,5.544,5.290
Mon Dec 02 21:01:50 2024,90,-13.311,7.369,-1.210,0.453,2.981,28.619,13.317,4.209,24.289,18.061,3.349,30.322,14.390,13.351,5.546,5.277
Mon Dec 02 21:01:50 2024,95,-13.324,7.605,-1.206,0.477,2.994,28.669,13.283,4.126,24.047,17.819,3.409,30.288,14.336,13.362,5.548,5.264
Mon Dec 02 21:01:50 2024,100,-13.336,7.841,-1.201,0.501,3.007,28.718,13.248,4.044,23.805,17.576,3.469,30.254,14.282,13.374,5.551,5.251
Mon Dec 02 21:01:50 2024,105,-13.349,8.077,-1.197,0.525,3.020,28.768,13.213,3.961,23.564,17.334,3.529,30.220,14.228,13.385,5.553,5.238
Mon Dec 02 21:01:50 2024,110,-13.362,8.313,-1.193,0.549,3.033,28.818,13.178,3.879,23.322,17.091,3.589,30.186,14.174,13.396,5.555,5.226
Mon Dec 02 21:01:50 2024,115,-13.374,8.549,-1.189,0.574,3.046,28.868,13.144,3.797,23.080,16.848,3.649,30.152,14.120,13.407,5.557,5.213
Mon Dec 02 21:01:50 2024,120,-13.387,8.785,-1.184,0.598,3.059,28.917,13.109,3.714,22.838,16.606,3.709,30.117,14.066,13.419,5.560,5.200
Mon Dec 02 21:01:50 2024,125,-13.399,9.021,-1.180,0.622,3.072,28.967,13.074,3.632,22.596,16.363,3.769,30.083,14.012,13.430,5.562,5.187
Mon Dec 02 21:01:50 2024,130,-13.412,9.257,-1.176,0.646,3.085,29.017,13.040,3.549,22.355,16.121,3.829,30.049,13.957,13.441,5.564,5.174
Mon Dec 02 21:01:50 2024,135,-13.424,9.493,-1.172,0.671,3.098,29.066,13.005,3.467,22.113,15.878,3.889,30.015,13.903,13.453,5.567,5.162
Mon Dec 02 21:01:50 2024,140,-13.437,9.729,-1.167,0.695,3.111,29.116,12.970,3.384,21.871,15.636,3.949,29.981,13.849,13.464,5.569,5.149
Mon Dec 02 21:01:50 2024,145,-13.450,9.965,-1.163,0.719,3.124,29.166,12.935,3.302,21.629,15.393,4.009,29.947,13.795,13.475,5.571,5.136
Mon Dec 02 21:01:50 2024,150,-13.462,10.201,-1.159,0.743,3.137,29.216,12.901,3.220,21.387,15.150,4.069,29.913,13.741,13.487,5.573,5.123
Mon Dec 02 21:01:50 2024,155,-13.475,10.437,-1.155,0.768,3.150,29.265,12.866,3.137,21.146,14.908,4.129,29.878,13.687,13.498,5.576,5.110
Mon Dec 02 21:01:50 2024,160,-13.487,10.673,-1.150,0.792,3.163,29.315,12.831,3.055,20.904,14.665,4.189,29.844,13.633,13.509,5.578,5.097
Mon Dec 02 21:01:50 2024,165,-13.500,10.909,-1.146,0.816,3.176,29.365,12.797,2.972,20.662,14.423,4.249,29.810,13.579,13.521,5.580,5.085
Mon Dec 02 21:01:50 2024,170,-13.513,11.145,-1.142,0.840,3.189,29.415,12.762,2.890,20.420,14.180,4.309,29.776,13.525,13.532,5.583,5.072
Mon Dec 02 21:01:50 2024,175,-13.525,11.381,-1.138,0.864,3.202,29.464,12.727,2.807,20.178,13.938,4.369,29.742,13.470,13.543,5.585,5.059
Mon Dec 02 21:01:50 2024,180,-13.538,11.617,-1.133,0.889,3.215,29.514,12.692,2.725,19.937,13.695,4.429,29.708,13.416,13.555,5.587,5.046
Mon Dec 02 21:01:50 2024,185,-13.550,11.853,-1.129,0.913,3.228,29.564,12.658,2.642,19.695,13.453,4.489,29.673,13.362,13.566,5.590,5.033
Mon Dec 02 21:01:50 2024,190,-13.563,12.089,-1.125,0.937,3.241,29.614,12.623,2.560,19.453,13.210,4.549,29.639,13.308,13.577,5.592,5.021
Mon Dec 02 21:01:50 2024,195,-13.576,12.325,-1.121,0.961,3.254,29.663,12.588,2.478,19.211,12.967,4.609,29.605,13.254,13.589,5.594,5.008
Mon Dec 02 21:01:50 2024,200,-13.588,12.561,-1.117,0.986,3.267,29.713,12.554,2.395,18.969,12.725,4.669,29.571,13.200,13.600,5.596,4.995
Mon Dec 02 21:01:50 2024,205,-13.601,12.796,-1.112,1.010,3.280,29.763,12.519,2.313,18.727,12.482,4.729,29.537,13.146,13.611,5.599,4.982
Mon Dec 02 21:01:50 2024,210,-13.613,13.032,-1.108,1.034,3.293,29.813,12.484,2.230,18.486,12.240,4.789,29.503,13.092,13.623,5.601,4.969
Mon Dec 02 21:01:50 2024,215,-13.626,13.268,-1.104,1.058,3.306,29.862,12.450,2.148,18.244,11.997,4.849,29.469,13.038,13.634,5.603,4.957
Mon Dec 02 21:01:50 2024,220,-13.638,13.504,-1.100,1.082,3.319,29.912,12.415,2.065,18.002,11.755,4.909,29.434,12.983,13.645,5.606,4.944
Mon Dec 02 21:01:50 2024,225,-13.645,13.645,-1.130,1.130,3.340,29.967,12.388,2.034,17.832,11.593,4.962,29.521,13.019,13.598,5.651,4.927
Mon Dec 02 21:01:50 2024,230,-13.644,13.644,-1.214,1.214,3.371,30.028,12.372,2.080,17.771,11.551,5.005,29.788,13.190,13.464,5.759,4.906
Mon Dec 02 21:01:50 2024,235,-13.642,13.642,-1.308,1.308,3.427,30.097,12.360,2.166,17.678,11.522,5.062,30.104,13.394,13.321,5.869,4.873
Mon Dec 02 21:01:50 2024,240,-13.640,13.640,-1.389,1.389,3.484,30.155,12.351,2.254,17.589,11.506,5.114,30.381,13.574,13.204,5.954,4.842
Mon Dec 02 21:01:50 2024,245,-13.758,13.758,-1.359,1.359,3.430,30.318,12.328,2.366,17.546,11.372,5.212,31.078,13.810,13.201,5.981,4.758
Mon Dec 02 21:01:50 2024,250,-13.832,13.832,-1.358,1.358,3.408,30.430,12.311,2.453,17.491,11.286,5.284,31.572,13.994,13.176,6.015,4.700
Mon Dec 02 21:01:50 2024,255,-13.825,13.825,-1.389,1.389,3.401,30.435,12.218,2.623,17.346,11.242,5.429,32.144,14.263,13.070,6.092,4.652
Mon Dec 02 21:01:50 2024,260,-13.768,13.768,-1.435,1.435,3.405,30.368,12.099,2.804,17.179,11.234,5.585,32.623,14.520,12.939,6.176,4.623
Mon Dec 02 21:01:50 2024,265,-13.729,13.729,-1.474,1.474,3.362,30.404,12.055,2.932,17.054,11.181,5.713,33.137,14.850,12.892,6.241,4.674
Mon Dec 02 21:01:50 2024,270,-13.705,13.705,-1.508,1.508,3.282,30.520,12.068,3.020,16.963,11.092,5.819,33.680,15.240,12.910,6.291,4.786
Mon Dec 02 21:01:50 2024,275,-13.680,13.680,-1.546,1.546,3.215,30.630,12.034,3.136,16.846,11.014,5.906,34.176,15.656,12.905,6.336,4.878
Mon Dec 02 21:01:50 2024,280,-13.658,13.658,-1.589,1.589,3.178,30.715,11.878,3.320,16.667,10.965,5.947,34.533,16.127,12.841,6.372,4.916
Mon Dec 02 21:01:50 2024,285,-13.640,13.640,-1.625,1.625,3.148,30.786,11.749,3.472,16.517,10.924,5.980,34.834,16.524,12.788,6.401,4.948
Mon Dec 02 21:01:50 2024,290,-13.552,13.552,-1.622,1.622,3.194,30.985,11.735,3.879,16.121,11.038,6.000,35.495,17.308,12.792,6.408,5.145
Mon Dec 02 21:01:50 2024,295,-13.467,13.467,-1.612,1.612,3.245,31.174,11.745,4.261,15.736,11.159,6.011,36.115,18.037,12.806,6.409,5.340
Mon Dec 02 21:01:50 2024,300,-13.460,13.460,-1.542,1.542,3.236,31.432,11.771,4.616,15.372,11.155,6.092,36.972,19.014,12.808,6.432,5.582
Mon Dec 02 21:01:50 2024,305,-13.560,13.560,0.428,1.386,3.147,31.793,11.818,4.948,15.032,10.979,6.272,38.190,20.393,12.797,6.485,5.894
Mon Dec 02 21:01:50 2024,310,-13.656,13.656,1.233,1.233,3.063,32.122,11.880,5.241,14.735,10.779,6.513,39.389,21.839,12.799,6.500,6.219
Mon Dec 02 21:01:50 2024,315,-13.725,13.725,1.082,1.082,3.009,32.259,12.047,5.309,14.682,10.423,7.131,40.400,23.497,12.893,6.289,6.620
Mon Dec 02 21:01:50 2024,320,-13.786,13.786,0.958,0.958,2.961,32.379,12.193,5.367,14.631,10.120,7.690,41.319,25.061,12.974,6.099,6.973
Mon Dec 02 21:01:50 2024,325,-13.813,13.813,0.862,0.862,2.721,32.343,12.136,5.451,14.532,9.447,8.428,43.021,26.520,13.002,5.983,7.262
Mon Dec 02 21:01:50 2024,330,-13.820,13.820,0.804,0.804,2.448,32.245,11.994,5.524,14.410,8.773,9.094,44.746,27.766,12.998,5.930,7.449
Mon Dec 02 21:01:50 2024,335,-13.760,13.760,0.795,0.795,2.108,32.168,11.871,5.608,25.793,8.281,9.663,45.940,29.121,12.732,6.150,7.750
Mon Dec 02 21:01:50 2024,340,-13.577,13.577,0.894,0.894,1.751,32.166,11.839,5.689,26.104,8.360,9.746,45.314,29.672,11.995,6.880,8.177
Mon Dec 02 21:01:50 2024,345,-13.414,13.414,0.988,0.988,1.451,32.171,11.816,5.760,26.448,8.453,9.870,44.602,29.985,11.356,7.520,8.544
Mon Dec 02 21:01:50 2024,350,-13.209,13.209,1.101,1.101,1.402,32.197,11.902,6.001,27.139,8.883,10.584,41.293,27.054,10.661,8.412,8.851
Mon Dec 02 21:01:50 2024,355,-12.966,12.966,1.237,1.237,1.421,32.233,12.033,6.316,28.091,9.478,11.606,37.272,21.836,9.850,9.486,9.176
Mon Dec 02 21:01:50 2024,360,-12.822,12.822,1.305,1.305,1.384,32.215,12.205,6.600,28.959,9.949,12.418,34.407,16.321,9.172,10.509,9.613
Mon Dec 02 21:01:50 2024,365,-12.730,12.730,-1.335,1.335,1.276,32.136,12.477,6.955,30.016,10.453,13.231,6.718,10.034,8.392,11.592,10.340
Mon Dec 02 21:01:50 2024,370,-12.680,12.680,-1.375,1.375,1.207,32.184,12.700,7.295,30.963,10.834,13.752,5.558,6.584,7.730,12.155,10.865
Mon Dec 02 21:01:50 2024,375,-12.734,12.734,-1.435,1.435,1.222,32.660,12.877,7.776,31.959,11.000,13.749,5.333,5.900,7.153,27.569,10.927
Mon Dec 02 21:01:50 2024,380,-12.804,12.804,-1.512,1.512,1.248,33.187,13.046,8.271,32.953,11.135,13.676,5.319,5.564,6.597,27.520,10.934
Mon Dec 02 21:01:50 2024,385,-12.677,12.677,-1.649,1.649,1.339,33.257,12.988,8.746,33.372,11.019,12.237,6.706,5.384,6.140,27.273,10.723
Mon Dec 02 21:01:50 2024,390,-12.482,12.482,-1.793,1.793,1.447,33.127,12.840,9.156,33.508,10.810,10.387,8.526,5.296,5.780,26.911,10.442
Mon Dec 02 21:01:50 2024,395,-12.275,12.275,-1.975,1.975,1.615,32.980,12.776,9.562,33.649,10.617,7.964,11.009,5.495,5.332,26.488,10.231
Mon Dec 02 21:01:50 2024,400,-12.152,12.152,-2.144,2.144,1.833,32.874,12.935,9.740,33.695,10.567,5.544,13.684,6.218,4.928,26.152,10.286
Mon Dec 02 21:01:50 2024,405,-12.020,12.020,-2.321,2.321,2.103,32.786,13.099,9.964,33.804,10.552,3.028,16.482,6.989,4.523,25.859,10.375
Mon Dec 02 21:01:50 2024,410,-11.888,11.888,-2.403,2.403,2.588,32.864,13.192,10.393,34.293,10.823,1.342,18.306,7.719,4.400,26.015,10.656
Mon Dec 02 21:01:50 2024,415,-11.779,11.779,-2.444,2.444,3.044,32.986,13.250,10.801,34.794,11.121,0.180,19.433,8.294,4.374,26.277,10.937
Mon Dec 02 21:01:50 2024,420,-11.687,11.687,-2.501,2.501,3.482,33.136,13.368,11.218,35.386,11.473,-0.935,20.936,8.922,4.318,26.561,11.317
Mon Dec 02 21:01:50 2024,425,-11.656,11.656,-2.617,2.617,3.818,33.336,13.709,11.646,36.282,12.002,-1.835,22.014,9.746,4.154,26.883,12.047
Mon Dec 02 21:01:50 2024,430,-11.582,11.582,-2.725,2.725,4.120,33.497,13.976,12.012,37.055,12.448,-2.875,23.313,10.458,3.963,27.204,12.731
Mon Dec 02 21:01:50 2024,435,-11.407,11.407,-2.817,2.817,4.364,33.568,14.092,12.264,37.584,12.744,-4.283,24.988,11.015,3.707,27.485,13.323
Mon Dec 02 21:01:50 2024,440,-11.197,11.197,-2.914,2.914,4.613,33.630,14.182,12.503,38.097,13.025,-5.859,26.844,11.516,3.410,27.810,13.950
Mon Dec 02 21:01:50 2024,445,-11.140,11.140,-3.037,3.037,4.928,33.842,14.435,12.861,38.683,13.410,-7.306,28.611,11.984,3.419,28.495,14.730
Mon Dec 02 21:01:50 2024,450,-11.149,11.149,-3.171,3.171,5.271,34.119,14.757,13.266,39.301,13.837,-8.669,30.306,12.390,3.551,29.330,15.594
Mon Dec 02 21:01:50 2024,455,-11.133,11.133,-3.272,3.272,5.494,34.353,15.132,13.506,39.828,14.247,-9.691,31.688,12.790,3.469,30.273,16.670
Mon Dec 02 21:01:50 2024,460,-11.086,11.086,-3.319,3.319,5.536,34.487,15.509,13.504,40.159,14.571,-10.173,32.515,13.171,3.134,31.206,17.818
Mon Dec 02 21:01:50 2024,465,-11.031,11.031,-3.377,3.377,5.587,34.648,15.963,13.500,40.561,14.958,-10.752,33.506,13.598,2.722,32.374,19.240
Mon Dec 02 21:01:50 2024,470,-11.011,11.011,-3.495,3.495,5.639,34.744,16.468,13.600,41.018,15.315,-11.379,34.631,14.232,2.515,33.622,20.919
Mon Dec 02 21:01:50 2024,475,-11.001,11.001,-3.595,3.595,5.678,34.806,16.855,13.691,41.369,15.576,-11.859,35.495,14.727,2.388,34.577,22.252
Mon Dec 02 21:01:50 2024,480,-11.004,11.004,-3.598,3.598,5.738,34.984,17.306,13.858,41.884,15.880,-12.294,36.513,15.298,2.246,35.783,23.825
Mon Dec 02 21:01:50 2024,485,-11.019,11.019,-3.502,3.502,5.795,35.210,17.642,14.035,42.358,16.104,-12.509,37.291,15.725,2.148,36.757,24.994
Mon Dec 02 21:01:50 2024,490,-11.046,11.046,-3.404,3.404,5.864,35.478,18.035,14.240,42.905,16.344,-12.752,38.229,16.223,2.030,37.866,26.315
Mon Dec 02 21:01:50 2024,495,-11.100,11.100,-3.394,3.394,5.929,35.686,18.314,14.383,43.263,16.417,-12.854,38.974,16.642,1.936,38.510,27.007
Mon Dec 02 21:01:50 2024,500,-11.159,11.159,-3.385,3.385,5.998,35.905,18.608,14.533,43.640,16.493,-12.963,39.772,17.083,1.842,39.190,27.741
Mon Dec 02 21:01:50 2024,505,-11.190,11.190,-3.451,3.451,5.931,36.041,18.839,14.564,44.017,16.550,-13.071,40.467,17.468,1.740,39.972,28.531
Mon Dec 02 21:01:50 2024,510,-11.213,11.213,-3.579,3.579,5.765,36.160,19.086,14.528,44.484,16.608,-13.204,41.261,17.914,1.619,40.998,29.541
Mon Dec 02 21:01:50 2024,515,-11.236,11.236,3.700,3.700,5.613,36.284,19.332,14.501,44.946,16.667,-13.342,42.063,18.364,1.528,41.996,30.536
Mon Dec 02 21:01:50 2024,520,-11.251,11.251,3.776,3.776,5.517,36.363,19.488,14.484,45.241,16.704,-13.431,42.576,18.652,1.487,42.628,31.166
Mon Dec 02 21:01:50 2024,525,-11.163,11.163,3.913,3.913,5.402,36.972,19.925,14.517,45.731,16.641,-13.818,44.591,19.913,1.692,44.616,32.801
Mon Dec 02 21:01:50 2024,530,-11.188,11.188,3.988,3.988,5.304,37.260,20.176,14.490,46.282,16.852,-14.116,45.852,20.796,1.744,45.810,33.876
Mon Dec 02 21:01:50 2024,535,-11.214,11.214,4.041,4.041,5.230,37.478,20.367,14.464,46.735,17.044,-14.363,46.844,21.510,1.800,46.727,34.710
Mon Dec 02 21:01:50 2024,540,-11.241,11.241,4.096,4.096,5.155,37.701,20.560,14.438,47.197,17.238,-14.619,47.853,22.242,1.867,47.655,35.557
Mon Dec 02 21:01:50 2024,545,-11.248,11.248,4.190,4.190,5.162,37.928,20.575,14.404,47.626,17.344,-14.544,48.773,23.251,1.945,48.463,36.335
Mon Dec 02 21:01:50 2024,550,-11.244,11.244,4.334,4.334,5.216,38.227,20.497,14.355,48.167,17.435,-14.264,49.943,24.758,2.053,49.449,37.325
Mon Dec 02 21:01:50 2024,555,-11.250,11.250,4.402,4.402,5.224,38.388,20.503,14.334,48.474,17.508,-14.201,50.620,25.542,2.120,50.014,37.890
Mon Dec 02 21:01:50 2024,560,-11.253,11.253,4.435,4.435,5.228,38.469,20.506,14.324,48.629,17.544,-14.169,50.965,25.946,2.156,50.298,38.178
Mon Dec 02 21:01:50 2024,565,-11.466,11.466,4.297,4.297,4.925,38.584,20.705,14.140,49.107,18.293,-14.405,52.720,27.589,2.232,51.047,38.840
Mon Dec 02 21:01:50 2024,570,-11.468,11.468,4.310,4.310,4.969,38.681,20.772,14.116,49.245,18.498,-14.362,53.074,28.008,-2.283,51.354,39.120
Mon Dec 02 21:01:50 2024,575,-11.481,11.481,4.315,4.315,5.007,38.778,20.838,14.105,49.385,18.689,-14.325,53.427,28.414,-2.331,51.631,39.370
Mon Dec 02 21:01:50 2024,580,-11.558,11.558,4.242,4.242,5.208,38.990,21.017,14.298,49.566,18.868,-14.178,53.646,28.676,-0.002,51.698,39.317
Mon Dec 02 21:01:50 2024,585,-11.660,11.660,4.143,4.143,5.482,39.261,21.250,14.573,49.738,19.054,-13.980,53.788,28.880,2.322,51.659,39.120
Mon Dec 02 21:01:50 2024,590,-11.722,11.722,4.124,4.124,5.718,39.505,21.463,14.753,49.632,19.212,-13.799,53.614,28.929,2.292,51.418,38.758
Mon Dec 02 21:01:50 2024,595,-11.781,11.781,4.118,4.118,5.958,39.756,21.680,14.923,49.477,19.371,-13.614,53.382,28.956,2.268,51.136,38.359
Mon Dec 02 21:01:50 2024,600,-11.793,11.793,4.106,4.106,6.214,39.889,21.841,15.035,49.232,19.500,-13.455,52.766,28.439,2.194,50.537,37.680
Mon Dec 02 21:01:50 2024,605,-11.754,11.754,4.090,4.090,6.480,39.885,21.931,15.078,48.892,19.590,-13.337,51.738,27.337,2.059,49.593,36.705
Mon Dec 02 21:01:50 2024,610,-11.727,11.727,4.072,4.072,6.748,39.895,22.001,15.101,48.546,19.684,-13.208,50.559,26.131,1.918,48.487,35.583
Mon Dec 02 21:01:50 2024,615,-11.800,11.800,4.065,4.065,6.839,39.964,21.906,14.990,48.411,19.741,-13.065,49.234,24.939,1.860,47.194,34.298
Mon Dec 02 21:01:50 2024,620,-11.873,11.873,4.059,4.059,6.928,40.032,21.813,14.882,48.279,19.797,-12.940,47.946,23.780,1.867,45.922,33.038
Mon Dec 02 21:01:50 2024,625,-11.806,11.806,4.065,4.065,7.034,39.965,21.538,14.661,47.846,19.698,-13.257,46.826,22.736,1.982,44.255,31.595
Mon Dec 02 21:01:50 2024,630,-11.689,11.689,4.074,4.074,7.130,39.850,21.226,14.424,47.346,19.546,-13.717,45.976,21.890,2.175,42.665,30.279
Mon Dec 02 21:01:50 2024,635,-11.604,11.604,4.118,4.118,7.123,39.633,20.910,14.058,46.617,19.229,-14.025,45.138,21.285,2.356,40.996,28.921
Mon Dec 02 21:01:50 2024,640,-11.587,11.587,4.216,4.216,6.939,39.265,20.625,13.507,45.572,18.659,-14.045,44.338,21.120,2.430,39.364,27.624
Mon Dec 02 21:01:50 2024,645,-11.575,11.575,4.311,4.311,6.759,38.907,20.348,12.970,44.560,18.102,-14.076,43.567,20.921,2.503,37.789,26.368
Mon Dec 02 21:01:50 2024,650,-11.691,11.691,4.272,4.272,6.433,38.367,19.864,12.344,43.465,17.539,-13.179,42.500,21.269,2.795,36.040,25.041
Mon Dec 02 21:01:50 2024,655,-11.797,11.797,4.233,4.233,6.155,37.916,19.457,11.825,42.571,17.077,-12.359,41.579,21.574,3.038,34.621,23.973
Mon Dec 02 21:01:50 2024,660,-11.740,11.740,-4.268,4.268,5.828,37.314,18.823,11.263,41.591,16.605,-11.417,40.204,21.504,3.413,33.080,22.542
Mon Dec 02 21:01:50 2024,665,-11.524,11.524,-4.374,4.374,5.513,36.662,18.065,10.760,40.695,16.206,-10.524,38.611,21.037,3.869,31.711,21.016
Mon Dec 02 21:01:50 2024,670,-11.330,11.330,-4.471,4.471,5.243,36.095,17.406,10.332,39.923,15.862,-9.738,37.185,20.547,4.268,30.617,19.777
Mon Dec 02 21:01:50 2024,675,-11.176,11.176,-4.550,4.550,5.029,35.642,16.884,9.993,39.308,15.588,-9.102,36.033,20.127,4.586,29.792,18.832
Mon Dec 02 21:01:50 2024,680,-11.614,11.614,-4.453,4.453,4.708,36.026,17.338,9.520,39.522,15.930,-6.363,32.226,19.546,4.488,30.249,18.943
Mon Dec 02 21:01:50 2024,685,-11.820,11.820,-4.424,4.424,4.449,36.108,17.431,9.133,39.454,16.042,-4.510,29.560,18.899,4.536,30.250,18.714
Mon Dec 02 21:01:50 2024,690,-11.943,11.943,-4.414,4.414,4.249,36.115,17.433,8.830,39.343,16.086,-3.147,27.581,18.296,4.605,30.159,18.461
Mon Dec 02 21:01:50 2024,695,-11.999,11.999,-4.409,4.409,4.159,36.121,17.436,8.695,39.296,16.109,-2.530,26.697,18.001,4.637,30.120,18.351
Mon Dec 02 21:01:50 2024,700,-12.014,12.014,-4.409,4.409,4.137,36.124,17.440,8.664,39.288,16.118,-2.378,26.483,17.929,4.646,30.112,18.328
Mon Dec 02 21:01:50 2024,705,-12.029,12.029,-4.409,4.409,4.116,36.128,17.444,8.632,39.280,16.126,-2.227,26.269,17.857,4.654,30.103,18.304
Mon Dec 02 21:01:50 2024,710,-12.033,12.033,-4.409,4.409,4.115,36.131,17.449,8.630,39.282,16.131,-2.212,26.247,17.852,4.655,30.103,18.305
Mon Dec 02 21:01:50 2024,715,-11.840,11.840,-1.563,4.317,3.667,35.748,17.152,8.026,38.260,16.281,0.069,27.559,19.374,4.774,29.872,18.114
Mon Dec 02 21:01:50 2024,720,-11.452,11.452,4.130,4.130,2.770,34.978,16.553,6.813,36.210,16.579,4.637,30.196,22.422,5.012,29.408,17.729
Mon Dec 02 21:01:50 2024,725,-11.454,11.454,4.130,4.130,2.769,34.979,16.555,6.813,36.210,16.582,4.642,30.200,22.427,5.012,29.408,17.730
Mon Dec 02 21:01:50 2024,730,-11.455,11.455,4.131,4.131,2.769,34.981,16.557,6.814,36.211,16.585,4.645,30.202,22.430,5.013,29.409,17.732
Mon Dec 02 21:01:50 2024,735,-11.611,11.611,4.221,4.221,2.769,35.235,16.205,6.712,34.721,15.771,5.807,40.508,29.333,6.649,29.147,16.442
Mon Dec 02 21:01:50 2024,740,-11.748,11.748,3.616,3.616,3.049,34.460,15.951,6.845,33.191,15.090,5.496,44.520,30.596,8.528,29.420,14.712
Mon Dec 02 21:01:50 2024,745,-11.809,11.809,3.243,3.243,3.197,33.958,15.830,6.904,32.430,14.780,5.302,45.698,30.341,9.469,29.895,13.813
Mon Dec 02 21:01:50 2024,750,-11.868,11.868,2.877,2.877,3.340,33.462,15.711,6.954,31.695,14.473,5.135,46.803,29.951,10.398,9.454,12.929
Mon Dec 02 21:01:50 2024,755,-11.749,11.749,2.872,2.872,3.907,32.460,15.531,6.857,30.713,14.088,4.636,45.738,28.819,11.620,8.380,11.856
Mon Dec 02 21:01:50 2024,760,-11.646,11.646,2.940,2.940,4.293,31.854,15.419,6.777,30.148,13.869,4.308,44.749,28.090,12.335,7.632,11.245
Mon Dec 02 21:01:50 2024,765,-11.713,11.713,2.819,2.819,4.171,32.164,15.280,6.840,30.408,14.132,4.423,44.556,27.749,12.270,7.699,11.049
Mon Dec 02 21:01:50 2024,770,-11.707,11.707,2.787,2.787,4.255,32.092,15.174,6.840,30.325,14.176,4.361,44.111,27.338,12.502,7.439,10.731
Mon Dec 02 21:01:50 2024,775,-11.701,11.701,2.754,2.754,4.338,32.022,15.068,6.841,30.244,14.220,4.302,43.672,26.940,12.734,7.171,10.414
Mon Dec 02 21:01:50 2024,780,-11.712,11.712,2.734,2.734,4.387,31.870,14.893,6.813,30.164,14.315,4.179,42.985,26.330,12.918,6.941,10.033
Mon Dec 02 21:01:50 2024,785,-11.732,11.732,2.732,2.732,4.388,31.711,14.730,6.773,30.116,14.414,4.054,42.370,25.792,12.988,6.837,9.750
Mon Dec 02 21:01:50 2024,790,-11.754,11.754,2.730,2.730,4.396,31.535,14.548,6.742,30.084,14.550,3.894,41.635,25.130,13.049,6.735,9.413
Mon Dec 02 21:01:50 2024,795,-11.756,11.756,2.730,2.730,4.451,31.438,14.438,6.820,30.230,14.807,3.638,40.811,24.219,12.964,6.804,9.086
Mon Dec 02 21:01:50 2024,800,-11.756,11.756,2.730,2.730,4.509,31.350,14.334,6.908,30.388,15.073,3.383,40.000,23.324,12.867,6.888,8.762
Mon Dec 02 21:01:50 2024,805,-11.840,11.840,2.697,2.697,4.639,31.388,14.342,7.112,30.672,15.290,3.118,39.073,22.184,12.838,6.934,8.498
Mon Dec 02 21:01:50 2024,810,-11.952,11.952,0.007,2.653,4.779,31.489,14.410,7.333,30.962,15.424,2.912,38.302,21.181,12.856,6.945,8.330
Mon Dec 02 21:01:50 2024,815,-12.055,12.055,-2.601,2.601,4.888,31.589,14.474,7.511,31.184,15.515,2.707,37.557,20.231,12.878,6.951,8.174
Mon Dec 02 21:01:50 2024,820,-12.119,12.119,-2.515,2.515,4.873,31.679,14.520,7.522,31.143,15.437,2.502,36.871,19.404,12.918,6.942,8.068
Mon Dec 02 21:01:50 2024,825,-12.182,12.182,-2.430,2.430,4.857,31.767,14.566,7.533,31.103,15.362,2.305,36.209,18.612,12.956,6.930,7.964
Mon Dec 02 21:01:50 2024,830,-12.257,12.257,-2.371,2.371,4.878,31.776,14.600,7.428,30.831,15.223,1.995,35.140,17.690,12.884,7.004,7.782
Mon Dec 02 21:01:50 2024,835,-12.321,12.321,-2.326,2.326,4.902,31.769,14.626,7.319,30.561,15.096,1.720,34.181,16.909,12.804,7.082,7.616
Mon Dec 02 21:01:50 2024,840,-12.448,12.448,-2.278,2.278,4.957,31.755,14.680,7.228,30.305,14.971,1.460,33.184,16.126,12.776,7.108,7.437
Mon Dec 02 21:01:50 2024,845,-12.688,12.688,-2.223,2.223,5.067,31.729,14.785,7.155,30.042,14.838,1.192,32.016,15.247,12.830,7.052,7.221
Mon Dec 02 21:01:50 2024,850,-12.874,12.874,-2.185,2.185,5.160,31.734,14.876,7.101,29.831,14.728,0.984,31.099,14.576,12.874,7.008,7.064
Mon Dec 02 21:01:50 2024,855,-13.048,13.048,-2.198,2.198,5.324,31.939,15.044,7.074,29.558,14.552,0.776,30.038,13.907,12.936,6.952,6.998
Mon Dec 02 21:01:50 2024,860,-13.197,13.197,-2.214,2.214,5.476,32.141,15.197,7.054,29.319,14.392,0.593,29.105,13.335,12.991,6.902,6.952
Mon Dec 02 21:01:50 2024,865,-13.315,13.315,-2.195,2.195,5.590,32.230,15.304,7.068,29.114,14.319,0.307,28.067,12.815,12.986,6.917,7.005
Mon Dec 02 21:01:50 2024,870,-13.409,13.409,-2.159,2.159,5.678,32.260,15.380,7.099,28.943,14.292,-0.137,27.066,12.363,12.953,6.961,7.102
Mon Dec 02 21:01:50 2024,875,-13.535,13.535,-2.096,2.096,5.775,32.316,15.474,7.122,28.762,14.264,-0.436,25.978,11.901,12.904,7.022,7.205
Mon Dec 02 21:01:50 2024,880,-13.673,13.673,-2.000,2.000,5.844,32.405,15.563,7.118,28.634,14.246,-0.689,25.202,11.628,12.845,7.092,7.270
Mon Dec 02 21:01:50 2024,885,-13.826,13.826,-1.906,1.906,5.917,32.508,15.658,7.106,28.484,14.221,-0.965,24.380,11.334,12.778,7.171,7.344
Mon Dec 02 21:01:50 2024,890,-13.938,13.938,-1.932,1.932,5.937,32.625,15.704,7.040,28.270,14.149,-1.082,23.784,11.141,12.710,7.261,7.429
Mon Dec 02 21:01:50 2024,895,-14.042,14.042,-1.990,1.990,5.944,32.748,15.739,6.959,28.039,14.062,-1.162,23.238,10.968,12.641,7.349,7.518
Mon Dec 02 21:01:50 2024,900,-14.135,14.135,-1.990,1.990,5.962,32.832,15.729,6.892,27.843,13.999,-1.254,22.756,10.817,12.525,7.474,7.638
Mon Dec 02 21:01:50 2024,905,-14.214,14.214,-1.919,1.919,5.995,32.865,15.663,6.844,27.690,13.965,-1.359,22.365,10.692,12.348,7.651,7.799
Mon Dec 02 21:01:50 2024,910,-14.287,14.287,-1.858,1.858,6.028,32.900,15.606,6.803,27.555,13.929,-1.452,22.067,10.581,12.191,7.801,7.942
Mon Dec 02 21:01:50 2024,915,-14.408,14.408,-1.884,1.884,6.158,33.078,15.642,6.819,27.432,13.810,-1.479,21.849,10.477,12.079,7.901,8.077
Mon Dec 02 21:01:50 2024,920,-14.535,14.535,-1.912,1.912,6.293,33.264,15.680,6.834,27.316,13.686,-1.509,21.678,10.369,11.964,7.999,8.219
Mon Dec 02 21:01:50 2024,925,-14.632,14.632,-1.933,1.933,6.336,33.340,15.685,6.819,27.193,13.594,-1.539,21.596,10.328,11.829,8.104,8.455
Mon Dec 02 21:01:50 2024,930,-14.697,14.697,-1.948,1.948,6.310,33.335,15.668,6.786,27.078,13.532,-1.565,21.577,10.336,11.692,8.201,8.734
Mon Dec 02 21:01:50 2024,935,-14.788,14.788,-1.939,1.939,6.283,33.356,15.646,6.762,26.998,13.487,-1.566,21.565,10.370,11.578,8.260,9.030
Mon Dec 02 21:01:50 2024,940,-14.932,14.932,-1.880,1.880,6.254,33.436,15.613,6.760,26.979,13.482,-1.510,21.510,10.460,11.519,8.241,9.356
Mon Dec 02 21:01:50 2024,945,-15.075,15.075,-1.822,1.822,6.225,33.517,15.581,6.757,13.038,13.477,-1.456,21.455,10.548,11.462,8.205,9.679
Mon Dec 02 21:01:50 2024,950,-15.122,15.122,-1.807,1.807,6.158,33.618,15.594,6.704,13.114,13.360,-1.447,21.446,10.576,11.098,31.558,10.035
Mon Dec 02 21:01:50 2024,955,-15.143,15.143,-1.803,1.803,6.090,33.713,15.617,6.648,13.192,13.232,-1.448,21.448,10.587,10.709,31.307,10.361
Mon Dec 02 21:01:50 2024,960,-15.173,15.173,-1.806,1.806,6.087,33.830,15.586,6.700,13.162,13.062,-1.440,21.441,10.565,10.349,31.102,10.629
Mon Dec 02 21:01:50 2024,965,-15.202,15.202,-1.814,1.814,6.143,33.933,15.515,6.838,13.040,12.902,-1.424,21.428,10.518,10.120,30.994,10.766
Mon Dec 02 21:01:50 2024,970,-15.235,15.235,-1.820,1.820,6.208,34.053,15.440,6.986,12.909,12.737,-1.407,21.414,10.469,9.870,30.888,10.920
Mon Dec 02 21:01:50 2024,975,-15.287,15.287,-1.794,1.794,6.290,34.225,15.406,7.078,12.819,12.698,-1.399,21.400,10.437,9.668,30.822,11.083
Mon Dec 02 21:01:50 2024,980,-15.352,15.352,-1.760,1.760,6.394,34.439,15.363,7.193,12.708,12.648,-1.389,21.388,10.398,9.418,30.756,11.286
Mon Dec 02 21:01:50 2024,985,-15.343,15.343,-1.793,1.793,6.466,34.503,15.347,7.315,12.597,12.595,-1.307,21.307,10.424,9.240,30.724,11.490
Mon Dec 02 21:01:50 2024,990,-15.315,15.315,-1.840,1.840,6.524,34.523,15.339,7.429,12.493,12.546,-1.212,21.214,10.465,9.095,30.705,11.679
Mon Dec 02 21:01:50 2024,995,-15.295,15.295,-1.899,1.899,6.605,34.555,15.334,7.558,12.378,12.484,-1.089,21.098,10.511,8.949,30.703,11.910
Mon Dec 02 21:01:51 2024,0,-15.316,15.316,-1.974,1.974,6.738,34.613,15.338,7.684,12.271,12.404,-0.917,20.938,10.556,8.872,30.747,12.192
Mon Dec 02 21:01:51 2024,5,-15.337,15.337,-2.048,2.048,6.868,34.671,15.343,7.807,12.164,12.325,-0.749,20.792,10.599,8.797,30.795,12.472
Mon Dec 02 21:01:51 2024,10,-15.349,15.349,-2.056,2.056,7.035,34.804,15.355,8.019,11.951,12.335,-0.688,20.733,10.582,8.760,30.961,12.778
Mon Dec 02 21:01:51 2024,15,-15.362,15.362,-2.066,2.066,7.222,34.954,15.368,8.256,11.711,12.346,-0.619,20.667,10.562,8.720,31.159,13.126
Mon Dec 02 21:01:51 2024,20,-15.415,15.415,-2.098,2.098,7.441,35.113,15.458,8.519,11.451,12.409,-0.548,20.638,10.629,8.730,31.505,13.640
Mon Dec 02 21:01:51 2024,25,-15.490,15.490,-2.144,2.144,7.640,35.245,15.595,8.745,11.228,12.505,-0.489,20.673,10.756,8.782,31.909,14.190
Mon Dec 02 21:01:51 2024,30,-15.565,15.565,-2.182,2.182,7.860,35.392,15.742,9.002,10.973,12.606,-0.416,20.770,10.894,8.846,32.388,14.824
Mon Dec 02 21:01:51 2024,35,-15.573,15.573,-2.118,2.118,8.046,35.512,15.830,9.268,10.695,12.662,-0.301,21.107,10.982,8.937,32.921,15.485
Mon Dec 02 21:01:51 2024,40,-15.575,15.575,-2.056,2.056,8.201,35.611,15.900,9.492,10.459,12.705,-0.200,21.448,11.050,9.016,33.384,16.051
Mon Dec 02 21:01:51 2024,45,-15.638,15.638,-2.080,2.080,8.400,35.794,16.074,9.750,10.182,12.837,-0.158,21.907,11.240,9.066,33.955,16.892
Mon Dec 02 21:01:51 2024,50,-15.721,15.721,-2.137,2.137,8.598,35.995,16.276,9.998,9.912,12.994,-0.143,22.372,11.461,9.099,34.530,17.781
Mon Dec 02 21:01:51 2024,55,-15.747,15.747,-2.181,2.181,8.828,36.171,16.480,10.313,9.567,13.158,-0.030,22.973,11.718,9.205,35.397,19.016
Mon Dec 02 21:01:51 2024,60,-15.642,15.642,-2.168,2.168,8.972,36.183,16.556,10.562,9.295,13.230,0.162,23.475,11.888,9.390,36.284,20.154
Mon Dec 02 21:01:51 2024,65,-15.514,15.514,-2.142,2.142,9.147,36.208,16.670,10.845,8.982,13.320,0.400,24.128,12.100,9.671,37.480,21.662
Mon Dec 02 21:01:51 2024,70,-15.372,15.372,-1.995,1.995,9.291,36.311,17.016,10.913,8.897,13.409,0.562,25.096,12.424,10.636,39.763,24.205
Mon Dec 02 21:01:51 2024,75,-15.232,15.232,-1.821,1.821,9.423,36.434,17.416,10.922,8.877,13.497,0.688,26.117,12.760,11.770,42.309,27.032
Mon Dec 02 21:01:51 2024,80,-15.108,15.108,-1.680,1.680,9.493,36.494,17.861,11.073,8.674,13.677,0.815,26.958,13.081,12.861,44.893,29.833
Mon Dec 02 21:01:51 2024,85,-14.998,14.998,-1.570,1.570,9.506,36.492,18.355,11.356,8.288,13.946,0.946,27.644,13.398,13.928,47.538,32.623
Mon Dec 02 21:01:51 2024,90,-14.895,14.895,1.480,1.480,9.508,36.455,18.903,11.574,24.065,14.227,1.100,28.488,13.762,14.871,50.407,35.829
Mon Dec 02 21:01:51 2024,95,-14.875,14.875,1.513,1.513,9.450,36.251,19.528,11.394,32.004,14.483,1.323,29.833,14.246,14.728,53.322,40.173
Mon Dec 02 21:01:51 2024,100,-14.867,14.867,1.599,1.599,9.376,35.987,20.273,11.114,31.896,14.790,1.584,31.509,14.836,14.347,56.937,45.530
Mon Dec 02 21:01:51 2024,105,-15.013,15.013,1.938,1.938,9.010,35.580,20.684,10.350,31.394,15.135,1.880,32.863,15.803,13.281,61.118,51.539
Mon Dec 02 21:01:51 2024,110,-15.208,15.208,2.354,2.354,8.573,35.150,20.968,9.475,30.841,15.478,2.178,34.063,16.887,12.069,65.559,57.269
Mon Dec 02 21:01:51 2024,115,-15.350,15.350,2.798,2.798,8.265,34.929,21.098,8.914,30.694,15.805,2.659,35.513,17.996,10.978,69.797,61.598
Mon Dec 02 21:01:51 2024,120,-15.337,15.337,3.274,3.274,8.284,35.240,20.837,9.156,31.460,16.078,3.585,37.552,19.058,10.017,72.782,63.592
Mon Dec 02 21:01:51 2024,125,-15.308,15.308,3.724,3.724,8.330,35.583,20.559,9.451,32.284,16.327,4.485,39.529,20.042,9.576,75.516,65.114
Mon Dec 02 21:01:51 2024,130,-15.116,-15.116,4.068,4.068,8.389,35.924,20.478,9.780,32.992,16.621,5.129,41.616,20.952,9.509,76.897,66.263
Mon Dec 02 21:01:51 2024,135,-14.928,-14.928,4.327,4.327,8.438,36.200,20.457,10.050,33.541,16.872,5.589,43.322,21.670,9.636,77.731,67.122
Mon Dec 02 21:01:51 2024,140,-14.886,-14.886,4.574,4.574,8.423,36.452,20.551,10.287,34.017,17.142,6.118,45.306,22.817,9.843,78.333,68.011
Mon Dec 02 21:01:51 2024,145,-15.006,-15.006,4.735,4.735,8.350,36.608,20.735,10.427,34.278,17.350,6.584,46.999,24.083,9.949,78.525,68.695
Mon Dec 02 21:01:51 2024,150,-15.124,-15.124,4.896,4.896,8.278,36.766,20.918,10.567,34.540,17.559,7.068,48.698,25.367,10.062,78.717,69.398
Mon Dec 02 21:01:51 2024,155,-15.293,-15.293,5.114,5.114,8.348,36.965,21.518,10.815,34.803,17.753,7.675,50.361,27.095,11.260,80.936,70.671
Mon Dec 02 21:01:51 2024,160,-15.463,-15.463,5.335,5.335,8.410,37.166,22.104,11.063,35.072,17.951,8.318,52.083,28.864,12.578,83.059,71.894
Mon Dec 02 21:01:51 2024,165,-15.656,-15.656,5.573,5.573,8.432,37.290,22.700,11.320,35.225,18.054,9.121,53.902,30.989,14.153,85.523,73.450
Mon Dec 02 21:01:51 2024,170,-15.836,-15.836,5.788,5.788,8.432,37.357,23.225,11.546,35.293,18.088,9.933,55.549,33.096,15.727,87.848,74.947
Mon Dec 02 21:01:51 2024,175,-15.951,-15.951,5.996,5.996,8.475,37.409,23.594,11.720,35.406,18.132,10.518,57.104,34.829,17.229,89.830,76.209
Mon Dec 02 21:01:51 2024,180,-15.966,-15.966,6.261,6.261,8.623,37.451,23.758,11.848,35.647,18.213,10.783,58.998,36.324,18.933,91.810,77.547
Mon Dec 02 21:01:51 2024,185,-15.978,-15.978,6.521,6.521,8.772,37.491,23.905,11.971,35.890,18.296,11.052,60.898,37.842,20.755,93.747,78.823
Mon Dec 02 21:01:51 2024,190,-15.993,-15.993,6.694,6.694,8.860,37.683,24.065,12.007,36.196,18.714,11.487,62.662,39.476,21.510,94.491,79.640
Mon Dec 02 21:01:51 2024,195,-16.008,-16.008,6.823,6.823,8.924,37.869,24.201,12.023,36.466,19.123,11.901,64.128,40.924,21.947,94.906,80.257
Mon Dec 02 21:01:51 2024,200,-16.053,-16.053,6.914,6.914,8.940,38.102,24.378,11.974,36.605,19.414,12.157,65.341,42.136,22.526,95.425,80.919
Mon Dec 02 21:01:51 2024,205,-16.149,-16.149,6.984,6.984,8.900,38.470,24.663,11.823,36.608,19.638,12.263,66.575,43.374,23.476,96.238,81.829
Mon Dec 02 21:01:51 2024,210,-16.235,-16.235,7.065,7.065,8.872,38.775,24.918,11.704,36.612,19.845,12.370,67.617,44.520,24.286,96.888,82.571
Mon Dec 02 21:01:51 2024,215,-16.331,-16.331,7.240,7.240,8.881,39.004,25.217,11.643,36.605,20.114,12.491,68.477,45.767,24.895,97.273,83.101
Mon Dec 02 21:01:51 2024,220,-16.412,-16.412,7.393,7.393,8.891,39.187,25.468,11.596,36.599,20.342,12.600,69.181,46.841,25.392,97.568,83.521
Mon Dec 02 21:01:51 2024,225,-16.488,-16.488,7.488,7.488,8.937,39.468,25.693,11.595,36.732,20.590,12.694,70.576,49.201,25.702,97.485,84.509
Mon Dec 02 21:01:51 2024,230,-16.527,-16.527,7.508,7.508,8.981,39.668,25.798,11.618,36.875,20.731,12.751,71.697,51.210,25.781,97.243,85.336
Mon Dec 02 21:01:51 2024,235,-16.619,-16.619,7.564,7.564,9.053,40.006,25.961,11.721,37.111,20.911,12.643,73.177,54.074,25.779,96.895,86.340
Mon Dec 02 21:01:51 2024,240,-16.750,-16.750,7.648,7.648,9.126,40.353,26.109,11.908,37.347,21.026,12.270,74.180,56.270,25.588,96.615,86.890
Mon Dec 02 21:01:51 2024,245,-16.890,-16.890,7.740,7.740,9.221,40.734,26.263,12.122,37.616,21.165,11.942,75.392,58.896,25.341,96.295,87.541
Mon Dec 02 21:01:51 2024,250,-16.942,-16.942,7.795,7.795,9.374,40.947,26.273,12.323,37.864,21.338,12.015,76.787,61.679,24.869,96.013,88.283
Mon Dec 02 21:01:51 2024,255,-16.971,-16.971,7.840,7.840,9.541,41.114,26.245,12.518,38.105,21.520,12.237,78.242,64.539,24.349,95.742,89.041
Mon Dec 02 21:01:51 2024,260,-17.063,-17.063,7.900,7.900,9.672,41.244,26.236,12.642,38.170,21.584,12.155,79.000,66.370,23.952,95.407,89.550
Mon Dec 02 21:01:51 2024,265,-17.199,-17.199,7.967,7.967,9.764,41.337,26.244,12.701,38.089,21.550,11.825,79.136,67.210,23.684,95.045,89.821
Mon Dec 02 21:01:51 2024,270,-17.334,-17.334,8.023,8.023,9.866,41.425,26.234,12.748,38.021,21.536,11.550,79.383,68.373,23.266,94.670,90.172
Mon Dec 02 21:01:51 2024,275,-17.407,-17.407,8.019,8.019,9.945,41.463,26.183,12.747,38.017,21.580,11.472,79.810,69.904,22.628,94.425,90.583
Mon Dec 02 21:01:51 2024,280,-17.469,-17.469,8.006,8.006,10.018,41.491,26.125,12.737,38.024,21.634,11.459,80.262,71.456,21.990,94.209,90.987
Mon Dec 02 21:01:51 2024,285,-17.617,-17.617,7.967,7.967,9.996,41.566,26.215,12.663,38.074,21.764,11.447,80.605,72.834,21.335,94.055,91.310
Mon Dec 02 21:01:51 2024,290,-17.788,-17.788,7.922,7.922,9.930,41.656,26.362,12.570,38.138,21.915,11.447,80.857,73.961,20.784,93.952,91.547
Mon Dec 02 21:01:51 2024,295,-17.958,-17.958,7.915,7.915,9.919,41.839,26.536,12.505,38.254,22.060,11.471,81.094,75.047,20.508,94.079,91.792
Mon Dec 02 21:01:51 2024,300,-18.124,-18.124,7.977,7.977,10.006,42.188,26.754,12.494,38.454,22.191,11.513,81.296,76.044,20.696,94.620,92.059
Mon Dec 02 21:01:51 2024,305,-18.258,-18.258,8.029,8.029,10.080,42.476,26.932,12.488,38.621,22.295,11.558,81.456,76.845,20.900,95.074,92.267
Mon Dec 02 21:01:51 2024,310,-18.383,-18.383,8.050,8.050,10.124,42.788,27.096,12.419,38.817,22.327,11.721,81.809,77.745,21.149,95.582,92.524
Mon Dec 02 21:01:51 2024,315,-18.500,-18.500,8.061,8.061,10.156,43.090,27.248,12.336,39.012,22.339,11.912,82.197,78.630,21.424,96.079,92.775
Mon Dec 02 21:01:51 2024,320,-18.559,-18.559,8.043,8.043,10.180,43.374,27.343,12.324,39.246,22.345,12.070,82.505,79.319,21.741,96.485,93.004
Mon Dec 02 21:01:51 2024,325,-18.573,-18.573,7.998,7.998,10.195,43.663,27.393,12.367,39.527,22.344,12.216,82.772,79.888,22.086,96.843,93.239
Mon Dec 02 21:01:51 2024,330,-18.587,-18.587,7.953,7.953,10.209,43.957,27.444,12.409,39.812,22.343,12.369,83.042,80.469,22.445,97.206,93.476
Mon Dec 02 21:01:51 2024,335,-18.599,-18.599,7.963,7.963,9.957,44.181,27.766,12.374,40.217,22.566,12.526,83.297,80.423,23.088,97.827,93.558
Mon Dec 02 21:01:51 2024,340,-18.606,-18.606,7.971,7.971,9.767,44.345,28.007,12.346,40.517,22.733,12.646,83.483,80.378,23.579,98.285,93.614
Mon Dec 02 21:01:51 2024,345,-18.647,-18.647,7.974,7.974,9.661,44.508,28.173,12.366,40.829,22.832,12.709,83.577,80.428,24.135,98.795,93.633
Mon Dec 02 21:01:51 2024,350,-18.699,-18.699,7.975,7.975,9.593,44.663,28.304,12.405,41.133,22.899,12.747,83.631,80.517,24.705,99.304,93.635
Mon Dec 02 21:01:51 2024,355,-18.727,-18.727,7.969,7.969,9.521,44.770,28.421,12.435,41.369,22.986,12.716,83.554,80.447,25.173,99.702,93.637
Mon Dec 02 21:01:51 2024,360,-18.696,-18.696,7.939,7.939,9.382,44.798,28.582,12.457,41.559,23.195,-6.150,83.006,79.814,25.622,100.034,93.640
Mon Dec 02 21:01:51 2024,365,-18.675,-18.675,7.912,7.912,9.284,44.829,28.707,12.478,41.714,23.359,-12.263,82.573,79.343,25.940,100.267,93.632
Mon Dec 02 21:01:51 2024,370,-18.679,-18.679,7.856,7.856,9.232,44.961,28.867,12.548,41.989,23.567,-11.996,81.957,79.007,26.017,100.368,93.543
Mon Dec 02 21:01:51 2024,375,-18.692,-18.692,7.795,7.795,9.200,45.115,29.025,12.627,42.280,23.777,-11.739,81.333,78.736,26.021,100.417,93.435
Mon Dec 02 21:01:51 2024,380,-18.734,-18.734,7.781,7.781,9.202,45.211,29.163,12.644,42.448,24.037,-11.556,80.863,78.394,25.953,100.369,93.383
Mon Dec 02 21:01:51 2024,385,-18.802,-18.802,7.812,7.812,9.236,45.247,29.274,12.602,42.488,24.325,-11.448,80.570,78.016,25.815,100.235,93.385
Mon Dec 02 21:01:51 2024,390,-18.872,-18.872,7.844,7.844,9.272,45.283,29.387,12.559,42.529,24.623,-11.344,80.272,77.628,25.678,100.097,93.387
Mon Dec 02 21:01:51 2024,395,-18.891,-18.891,7.825,7.825,9.285,45.194,29.377,12.577,42.692,24.959,-11.084,79.607,76.964,25.692,100.139,93.239
Mon Dec 02 21:01:51 2024,400,-18.905,-18.905,7.813,7.813,9.295,45.133,29.372,12.588,42.808,25.206,-10.912,79.140,76.490,25.699,100.164,93.135
Mon Dec 02 21:01:51 2024,405,-18.901,-18.901,7.737,7.737,9.291,44.928,29.401,12.554,42.817,25.493,-10.583,78.469,75.886,25.601,100.099,93.057
Mon Dec 02 21:01:51 2024,410,-18.878,-18.878,7.611,7.611,9.274,44.619,29.458,12.480,42.718,25.767,-10.168,77.721,75.256,25.417,99.955,93.018
Mon Dec 02 21:01:51 2024,415,-18.887,-18.887,7.527,7.527,9.276,44.369,29.506,12.443,42.672,26.052,-9.788,77.005,74.704,25.248,99.826,92.958
Mon Dec 02 21:01:51 2024,420,-18.996,-18.996,7.554,7.554,9.344,44.262,29.542,12.510,42.758,26.367,-9.418,76.320,74.412,25.083,99.706,92.841
Mon Dec 02 21:01:51 2024,425,-19.087,-19.087,7.572,7.572,9.399,44.162,29.575,12.566,42.826,26.647,-9.111,75.720,74.137,24.938,99.599,92.741
Mon Dec 02 21:01:51 2024,430,-19.169,-19.169,7.589,7.589,9.448,44.071,29.603,12.616,42.888,26.901,-8.842,75.177,73.885,24.803,99.500,92.651
Mon Dec 02 21:01:51 2024,435,-19.209,-19.209,7.597,7.597,9.472,44.022,29.614,12.640,42.918,27.030,-8.707,74.895,73.749,24.725,99.441,92.603
Mon Dec 02 21:01:51 2024,440,-19.227,-19.227,7.542,7.542,9.383,43.947,29.713,12.526,42.930,27.269,-8.557,74.572,73.250,24.570,99.247,92.564
Mon Dec 02 21:01:51 2024,445,-19.251,-19.251,7.421,7.421,9.184,43.807,29.927,12.273,42.947,27.739,-8.292,73.995,72.244,24.288,98.869,92.500
Mon Dec 02 21:01:51 2024,450,-19.277,-19.277,7.378,7.378,9.144,43.733,30.013,12.202,42.981,28.031,-2.751,73.575,71.796,24.079,98.624,92.441
Mon Dec 02 21:01:51 2024,455,-19.240,-19.240,7.314,7.314,9.204,43.730,30.088,12.170,43.040,28.450,7.944,73.116,71.515,23.496,98.040,92.375
Mon Dec 02 21:01:51 2024,460,-19.196,-19.196,7.256,7.256,9.273,43.736,30.150,12.148,43.093,28.835,7.798,72.709,71.298,22.944,97.478,92.315
Mon Dec 02 21:01:51 2024,465,-19.156,-19.156,7.149,7.149,9.129,43.683,30.280,12.051,43.172,29.262,3.880,72.585,71.036,22.632,96.969,92.392
Mon Dec 02 21:01:51 2024,470,-19.114,-19.114,7.019,7.019,8.900,43.603,30.440,11.921,43.267,29.724,-7.770,72.554,70.745,22.433,96.453,92.516
Mon Dec 02 21:01:51 2024,475,-19.048,-19.048,6.892,6.892,8.694,43.495,30.543,11.773,43.344,30.153,-7.715,72.343,70.528,22.017,95.702,92.607
Mon Dec 02 21:01:51 2024,480,-18.928,-18.928,6.768,6.768,8.532,43.317,30.523,11.585,43.385,30.532,-7.519,71.729,70.457,21.051,94.405,92.639
Mon Dec 02 21:01:51 2024,485,-18.818,-18.818,6.665,6.665,8.402,43.189,30.501,11.430,43.424,30.837,-7.375,71.280,70.427,20.295,93.331,92.639
Mon Dec 02 21:01:51 2024,490,-18.664,-18.664,6.564,6.564,8.264,43.237,30.500,11.306,43.514,31.126,7.433,71.465,70.461,19.671,92.478,92.530
Mon Dec 02 21:01:51 2024,495,-18.487,-18.487,6.447,6.447,8.087,43.324,30.518,11.157,43.615,31.457,7.583,71.821,70.444,18.999,91.556,92.325
Mon Dec 02 21:01:51 2024,500,-18.312,-18.312,6.317,6.317,7.858,43.405,30.569,10.966,43.700,31.832,7.746,72.213,70.309,18.235,90.542,91.998
Mon Dec 02 21:01:51 2024,505,-18.187,-18.187,6.182,6.182,7.530,43.452,30.704,10.698,43.716,32.236,7.906,72.608,69.857,17.431,89.533,91.380
Mon Dec 02 21:01:51 2024,510,-18.080,-18.080,6.074,6.074,7.239,43.469,30.789,10.459,43.721,32.559,8.029,72.909,69.411,16.687,88.589,90.774
Mon Dec 02 21:01:51 2024,515,-18.006,-18.006,6.086,6.086,6.844,43.120,30.420,10.116,43.574,32.534,7.892,72.559,68.125,14.814,86.404,89.222
Mon Dec 02 21:01:51 2024,520,-17.942,-17.942,6.095,6.095,6.504,42.822,30.104,9.820,43.450,32.511,7.774,72.258,67.033,13.393,84.562,87.786
Mon Dec 02 21:01:51 2024,525,-17.757,-17.757,5.939,5.939,6.139,42.497,29.512,9.479,43.339,32.054,7.395,71.223,65.388,12.099,82.451,86.112
Mon Dec 02 21:01:51 2024,530,-17.581,-17.581,5.769,5.769,5.858,42.244,28.984,9.207,43.259,31.575,7.060,70.227,63.999,11.208,80.792,84.713
Mon Dec 02 21:01:51 2024,535,-17.418,-17.418,5.577,5.577,5.513,41.873,28.593,8.876,43.097,31.174,2.104,69.059,61.959,10.404,79.244,82.896
Mon Dec 02 21:01:51 2024,540,-17.257,-17.257,5.309,5.309,4.980,41.194,28.438,8.370,42.735,30.879,6.208,67.343,58.267,9.600,77.682,80.002
Mon Dec 02 21:01:51 2024,545,-17.123,-17.123,5.083,5.083,4.536,40.618,28.319,7.943,42.426,30.642,5.930,65.928,55.308,9.020,76.392,77.499
Mon Dec 02 21:01:51 2024,550,-17.156,-17.156,4.959,4.959,4.141,39.947,28.017,7.426,41.890,30.380,5.479,63.757,52.063,9.001,76.035,76.319
Mon Dec 02 21:01:51 2024,555,-17.199,-17.199,4.839,4.839,3.740,39.255,27.694,6.888,41.330,30.107,5.099,61.521,48.870,9.176,75.729,75.181
Mon Dec 02 21:01:51 2024,560,-17.207,-17.207,4.699,4.699,3.346,38.693,27.329,6.493,41.158,29.971,4.777,59.772,46.589,9.124,75.162,73.794
Mon Dec 02 21:01:51 2024,565,-17.178,-17.178,4.508,4.508,2.881,38.166,26.838,6.180,41.403,29.967,4.375,58.190,44.731,8.657,74.168,71.848
Mon Dec 02 21:01:51 2024,570,-17.180,-17.180,4.354,4.354,2.530,37.672,26.451,5.954,41.589,29.968,4.112,56.781,43.159,8.199,72.903,69.874
Mon Dec 02 21:01:51 2024,575,-17.267,-17.267,4.315,4.315,2.531,37.290,26.409,6.017,41.559,29.999,4.264,55.940,42.350,7.817,70.858,67.770
Mon Dec 02 21:01:51 2024,580,-17.346,-17.346,4.281,4.281,2.529,36.943,26.372,6.077,41.534,30.028,4.457,55.176,41.610,7.585,69.024,65.834
Mon Dec 02 21:01:51 2024,585,-17.298,-17.298,4.313,4.313,2.580,36.575,26.397,6.258,41.537,30.155,4.683,54.153,40.976,7.149,66.106,62.990
Mon Dec 02 21:01:51 2024,590,-17.194,-17.194,4.378,4.378,2.657,36.176,26.451,6.506,41.555,30.337,4.969,52.958,40.350,6.719,62.578,59.510
Mon Dec 02 21:01:51 2024,595,-17.112,-17.112,4.403,4.403,2.780,36.085,26.447,6.722,41.686,30.397,5.118,51.806,39.668,6.428,59.122,55.756
Mon Dec 02 21:01:51 2024,600,-17.069,-17.069,4.371,4.371,2.945,36.439,26.361,6.856,41.948,30.272,5.003,50.909,39.025,6.250,56.323,52.287
Mon Dec 02 21:01:51 2024,605,-17.036,-17.036,4.351,4.351,3.085,36.729,26.257,6.987,42.174,30.148,4.899,50.090,38.458,6.158,53.827,49.284
Mon Dec 02 21:01:51 2024,610,-17.044,-17.044,4.397,4.397,3.164,36.815,25.930,7.221,42.342,29.929,4.753,49.084,37.934,6.215,50.763,46.157
Mon Dec 02 21:01:51 2024,615,-17.060,-17.060,4.456,4.456,3.227,36.856,25.574,7.465,42.490,29.702,4.609,48.091,37.433,6.325,47.804,43.193
Mon Dec 02 21:01:51 2024,620,-17.096,-17.096,4.504,4.504,3.358,36.887,25.187,7.713,42.428,29.369,4.400,46.933,36.607,6.598,45.092,40.367
Mon Dec 02 21:01:51 2024,625,-17.143,-17.143,4.539,4.539,3.526,36.907,24.829,7.928,42.209,28.997,4.168,45.801,35.632,6.946,42.931,37.988
Mon Dec 02 21:01:51 2024,630,-17.197,-17.197,4.610,4.610,3.719,36.896,24.454,8.163,41.851,28.639,3.916,44.613,34.585,7.250,40.592,35.397
Mon Dec 02 21:01:51 2024,635,-17.277,-17.277,4.828,4.828,3.999,36.742,24.044,8.455,40.924,28.376,3.598,43.287,33.380,7.366,37.474,31.982
Mon Dec 02 21:01:51 2024,640,-17.356,-17.356,5.036,5.036,4.260,36.594,23.667,8.716,40.051,28.133,3.299,42.070,32.292,7.424,34.715,29.003
Mon Dec 02 21:01:51 2024,645,-17.456,-17.456,5.030,5.030,4.420,36.160,23.304,8.453,39.094,27.906,2.619,40.103,30.889,7.574,32.112,26.000
Mon Dec 02 21:01:51 2024,650,-17.554,-17.554,4.962,4.962,4.534,35.673,22.970,8.047,38.173,27.704,1.871,38.062,29.498,7.712,29.936,23.237
Mon Dec 02 21:01:51 2024,655,-17.621,-17.621,4.885,4.885,4.560,35.166,22.462,7.652,37.381,27.217,1.144,35.927,27.929,7.750,28.384,20.462
Mon Dec 02 21:01:51 2024,660,-17.596,-17.596,4.811,4.811,4.410,34.804,21.781,7.444,37.141,26.325,0.738,34.331,26.508,7.674,12.207,18.349
Mon Dec 02 21:01:51 2024,665,-17.576,-17.576,4.746,4.746,4.280,34.493,21.198,7.266,36.933,25.568,0.449,32.972,25.291,7.604,12.379,16.589
Mon Dec 02 21:01:51 2024,670,-17.410,-17.410,4.459,4.459,4.096,34.238,20.462,7.098,36.834,24.543,-0.210,32.144,23.934,7.804,12.146,15.255
Mon Dec 02 21:01:51 2024,675,-17.206,-17.206,-4.105,4.105,3.892,33.984,19.661,6.923,36.753,23.420,-0.454,31.410,22.496,8.082,11.809,13.964
Mon Dec 02 21:01:51 2024,680,-17.223,-17.223,-3.838,3.838,3.780,33.734,19.078,6.874,36.557,22.588,-0.569,30.907,21.390,8.348,11.480,13.042
Mon Dec 02 21:01:51 2024,685,-17.413,-17.413,-3.574,3.574,3.712,33.429,18.528,6.910,36.232,21.783,-0.672,30.467,20.284,8.664,11.086,12.185
Mon Dec 02 21:01:51 2024,690,-17.599,-17.599,-3.362,3.362,3.656,33.123,18.019,6.909,35.798,21.030,-0.789,30.017,19.270,8.963,10.696,11.373
Mon Dec 02 21:01:51 2024,695,-17.772,-17.772,-3.309,3.309,3.641,32.817,17.628,6.795,35.037,20.415,-0.925,29.534,18.527,9.203,10.349,10.711
Mon Dec 02 21:01:51 2024,700,-17.931,-17.931,-3.274,3.274,3.630,32.533,17.279,6.679,34.311,19.863,-1.057,29.091,17.873,9.417,10.026,10.115
Mon Dec 02 21:01:51 2024,705,-18.129,-18.129,-3.265,3.265,3.548,32.136,16.786,6.442,33.366,19.094,-1.211,28.445,17.009,9.597,9.735,9.538
Mon Dec 02 21:01:51 2024,710,-18.276,-18.276,3.268,3.268,3.470,31.829,16.406,6.243,32.656,18.506,-1.325,27.947,16.362,9.707,9.547,9.151
Mon Dec 02 21:01:51 2024,715,-18.483,-18.483,3.248,3.248,3.376,31.482,15.963,6.049,31.956,17.878,-1.458,27.370,15.570,9.921,9.269,8.691
Mon Dec 02 21:01:51 2024,720,-18.695,-18.695,3.194,3.194,3.298,31.234,15.619,5.962,31.617,17.477,-1.561,26.924,14.890,10.221,8.968,8.320
Mon Dec 02 21:01:51 2024,725,-18.924,-18.924,3.151,3.151,3.208,30.968,15.272,5.876,31.270,17.081,-1.663,26.455,14.187,10.542,8.646,7.922
Mon Dec 02 21:01:51 2024,730,-19.166,-19.166,3.196,3.196,3.077,30.688,15.040,5.844,31.014,16.873,-1.714,25.965,13.554,10.862,8.318,7.482
Mon Dec 02 21:01:51 2024,735,-19.385,-19.385,3.252,3.252,2.953,30.433,14.850,5.823,30.801,16.717,-1.751,25.525,13.004,11.149,8.023,7.082
Mon Dec 02 21:01:51 2024,740,-19.678,-19.678,3.338,3.338,2.800,30.230,14.654,5.744,30.574,16.582,-1.803,25.144,12.510,11.452,7.758,6.756
Mon Dec 02 21:01:51 2024,745,-19.992,-19.992,3.436,3.436,2.646,30.112,14.485,5.624,30.371,16.488,-1.858,24.883,12.154,11.719,7.565,6.551
Mon Dec 02 21:01:51 2024,750,-20.290,-20.290,3.530,3.530,2.516,30.004,14.330,5.502,30.156,16.396,-1.919,24.641,11.828,11.946,7.387,6.357
Mon Dec 02 21:01:51 2024,755,-20.636,-20.636,3.641,3.641,2.434,29.887,14.173,5.313,29.776,16.270,-2.035,24.353,11.473,12.087,7.216,6.107
Mon Dec 02 21:01:51 2024,760,-20.939,-20.939,3.740,3.740,2.367,29.786,14.038,5.144,29.437,16.159,-2.141,24.118,11.168,12.202,7.068,5.888
Mon Dec 02 21:01:51 2024,765,-21.255,-21.255,3.800,3.800,2.268,29.688,13.895,5.020,29.161,16.079,-2.120,23.923,10.942,12.504,6.785,5.731
Mon Dec 02 21:01:51 2024,770,-21.523,-21.523,3.839,3.839,2.178,29.607,13.774,4.929,28.947,16.021,-2.069,23.769,10.775,12.806,6.512,5.619
Mon Dec 02 21:01:51 2024,775,-21.851,-21.851,3.846,3.846,2.082,29.486,13.675,4.821,28.645,15.980,-2.058,23.534,10.605,13.102,6.211,5.504
Mon Dec 02 21:01:51 2024,780,-22.159,-22.159,3.790,3.790,2.014,29.338,13.655,4.724,28.297,15.990,-2.129,23.256,10.493,13.270,5.977,5.426
Mon Dec 02 21:01:51 2024,785,-22.522,-22.522,3.715,3.715,1.928,29.167,13.625,4.606,27.892,16.000,-2.210,22.977,10.369,13.468,5.701,5.336
Mon Dec 02 21:01:51 2024,790,-22.858,-22.858,3.435,3.435,1.740,29.060,13.467,4.460,27.544,15.975,-2.193,22.806,10.336,13.681,5.444,5.287
Mon Dec 02 21:01:51 2024,795,-23.117,-23.117,3.201,3.201,1.585,28.986,13.333,4.343,27.277,15.951,-2.172,22.685,10.318,13.849,5.245,5.252
Mon Dec 02 21:01:51 2024,800,-23.534,-23.534,2.961,2.961,1.344,28.801,13.158,4.112,26.792,15.874,-2.179,22.471,10.190,14.035,4.991,5.188
Mon Dec 02 21:01:51 2024,805,-23.880,-23.880,2.841,2.841,1.148,28.610,13.036,3.893,26.355,15.785,-2.209,22.330,10.027,14.141,4.817,5.131
Mon Dec 02 21:01:51 2024,810,-24.242,-24.242,2.709,2.709,0.934,28.386,12.887,3.657,25.862,15.677,-2.234,22.251,9.860,14.285,4.599,5.072
Mon Dec 02 21:01:51 2024,815,-24.444,-24.444,2.598,2.598,0.772,28.117,12.692,3.498,25.415,15.550,-2.206,22.205,9.769,14.522,4.311,5.033
Mon Dec 02 21:01:51 2024,820,-24.625,-24.625,2.501,2.501,0.630,27.878,12.518,3.357,25.019,15.434,-2.179,22.201,9.689,14.735,4.052,5.000
Mon Dec 02 21:01:51 2024,825,-24.886,-24.886,2.483,2.483,0.475,27.704,12.348,3.268,24.838,15.261,-2.115,17.813,9.512,14.928,3.809,4.900
Mon Dec 02 21:01:51 2024,830,-25.170,-25.170,2.499,2.499,0.325,27.566,12.185,3.203,24.749,15.070,-2.038,17.817,9.300,15.106,3.582,4.776
Mon Dec 02 21:01:51 2024,835,-25.411,-25.411,2.522,2.522,0.219,27.415,12.057,3.135,24.654,14.945,-2.002,17.781,9.178,15.225,3.425,4.715
Mon Dec 02 21:01:51 2024,840,-25.623,-25.623,2.558,2.558,0.157,27.225,11.959,3.054,24.537,14.895,-2.017,17.704,9.163,15.277,3.347,4.733
Mon Dec 02 21:01:51 2024,845,-25.893,-25.893,2.619,2.619,-0.120,26.991,11.834,2.948,24.384,14.825,-2.038,17.599,9.141,15.343,3.249,4.756
Mon Dec 02 21:01:51 2024,850,-26.125,-26.125,2.881,2.881,-0.197,26.864,11.710,2.800,24.192,14.684,-2.091,17.495,9.094,15.398,3.193,4.793
Mon Dec 02 21:01:51 2024,855,-26.330,-26.330,3.114,3.114,-0.305,26.755,11.600,2.670,24.023,14.560,-2.136,17.402,9.052,15.446,3.143,4.826
Mon Dec 02 21:01:51 2024,860,-26.563,-26.563,3.525,3.525,-0.455,26.585,11.457,2.485,23.757,14.363,-2.223,17.253,8.966,15.414,3.185,4.885
Mon Dec 02 21:01:51 2024,865,-26.760,-26.760,3.988,3.988,-0.598,26.408,11.322,2.298,23.476,14.154,-2.322,17.094,8.863,15.318,3.298,4.953
Mon Dec 02 21:01:51 2024,870,-26.946,-26.946,4.473,4.473,-0.729,26.262,11.216,2.137,23.237,13.971,-2.404,16.954,8.772,15.244,3.375,5.002
Mon Dec 02 21:01:51 2024,875,-27.232,-27.232,5.424,5.424,-0.909,26.123,11.144,1.953,22.981,13.751,-2.480,16.788,8.651,15.208,3.365,5.014
Mon Dec 02 21:01:51 2024,880,-27.505,-27.505,6.361,6.361,-1.078,26.006,11.086,1.785,22.751,13.550,-2.547,16.634,8.539,15.182,3.337,5.018
Mon Dec 02 21:01:51 2024,885,-27.678,-27.678,7.252,7.252,-1.255,25.838,10.977,1.565,22.471,13.311,-2.573,16.553,8.432,15.103,3.364,5.008
Mon Dec 02 21:01:51 2024,890,-27.821,-27.821,8.098,8.098,-1.425,25.672,10.859,1.342,22.193,13.075,-2.589,16.491,8.330,15.016,3.401,4.996
Mon Dec 02 21:01:51 2024,895,-27.970,-27.970,8.975,8.975,-1.600,25.508,10.738,1.113,21.908,12.833,-2.605,16.427,8.226,14.927,3.436,4.985
Mon Dec 02 21:01:51 2024,900,-28.307,-28.307,9.916,9.916,-1.833,25.246,10.643,1.031,21.804,12.821,-2.741,16.227,8.292,15.068,3.357,5.192
Mon Dec 02 21:01:51 2024,905,-28.560,-28.560,10.696,10.696,-2.017,25.060,10.559,0.939,21.688,12.772,-2.834,16.084,8.318,15.145,3.312,5.329
Mon Dec 02 21:01:51 2024,910,-28.825,-28.825,11.375,11.375,-2.225,24.860,10.462,0.761,21.463,12.596,-2.998,15.867,8.251,15.214,3.195,5.341
Mon Dec 02 21:01:51 2024,915,-29.077,-29.077,12.002,12.002,-2.421,24.690,10.370,0.587,21.245,12.420,-3.159,15.656,8.178,15.278,3.079,5.340
Mon Dec 02 21:01:51 2024,920,-29.317,-29.317,12.601,12.601,-2.607,24.548,10.282,0.422,21.043,12.253,-3.312,15.457,8.110,15.340,2.968,5.338
Mon Dec 02 21:01:51 2024,925,-29.635,-29.635,13.294,13.294,-2.722,24.412,10.193,0.326,20.834,12.156,-3.511,15.036,8.133,15.346,2.968,5.606
Mon Dec 02 21:01:51 2024,930,-29.885,-29.885,13.867,13.867,-2.827,24.293,10.110,0.224,20.629,12.051,-3.653,14.719,8.121,15.354,2.935,5.748
Mon Dec 02 21:01:51 2024,935,-30.130,-30.130,14.476,14.476,-2.904,24.100,9.984,0.099,20.278,11.913,-3.747,14.328,8.073,15.319,2.873,5.808
Mon Dec 02 21:01:51 2024,940,-30.339,-30.339,15.001,15.001,-2.969,23.950,9.875,-0.002,19.974,11.795,-3.824,13.985,8.030,15.288,2.815,5.857
Mon Dec 02 21:01:51 2024,945,-30.601,-30.601,15.868,15.868,-2.964,23.842,9.844,-0.130,19.587,11.633,-3.926,13.651,8.033,15.194,2.816,5.932
Mon Dec 02 21:01:51 2024,950,-30.869,-30.869,16.840,16.840,-2.927,23.758,9.853,-0.254,19.190,11.463,-4.032,13.346,8.057,15.078,2.844,6.015
Mon Dec 02 21:01:51 2024,955,-31.122,-31.122,17.836,17.836,-2.903,23.666,9.884,-0.384,18.807,11.335,-4.124,13.041,8.094,14.963,2.894,6.137
Mon Dec 02 21:01:51 2024,960,-31.371,-31.371,19.115,19.115,-2.933,23.514,10.014,-0.572,18.403,11.352,-4.176,12.676,8.196,14.835,3.052,6.442
Mon Dec 02 21:01:51 2024,965,-31.565,-31.565,20.100,20.100,-2.950,23.415,10.106,-0.710,18.090,11.352,-4.219,12.395,8.270,14.735,3.165,6.664
Mon Dec 02 21:01:51 2024,970,-31.717,-31.717,21.264,21.264,-2.875,23.194,10.321,-0.768,17.794,11.503,-4.255,12.047,8.451,14.552,3.331,7.004
Mon Dec 02 21:01:51 2024,975,-31.857,-31.857,22.408,22.408,-2.791,22.989,10.541,-0.812,17.517,11.666,-4.289,11.709,8.638,14.368,3.493,7.348
Mon Dec 02 21:01:51 2024,980,-31.929,-31.929,23.423,23.423,-2.647,22.802,10.806,-0.769,17.346,11.841,-4.229,11.535,8.809,14.200,3.634,7.604
Mon Dec 02 21:01:51 2024,985,-31.961,-31.961,24.536,24.536,-2.414,22.580,11.169,-0.639,17.230,12.061,-4.071,11.474,9.003,14.012,3.784,7.830
Mon Dec 02 21:01:51 2024,990,-31.996,-31.996,25.548,25.548,-2.208,22.384,11.492,-0.524,17.118,12.256,-3.931,11.416,9.174,13.846,3.916,8.034
Mon Dec 02 21:01:51 2024,995,-31.939,-31.939,26.821,26.821,-1.991,22.210,11.756,-0.390,17.139,12.341,-3.732,11.413,9.258,13.596,4.246,8.382
Mon Dec 02 21:01:52 2024,0,-31.904,-31.904,27.908,27.908,-1.809,22.070,11.980,-0.276,17.146,12.416,-3.566,11.404,9.331,13.388,4.515,8.677
Mon Dec 02 21:01:52 2024,5,-31.885,-31.885,29.040,29.040,-1.708,22.068,12.392,-0.065,17.375,12.728,-3.354,11.630,9.655,13.190,4.928,9.265
Mon Dec 02 21:01:52 2024,10,-31.879,-31.879,30.126,30.126,-1.644,22.127,12.846,0.170,17.650,13.104,-3.140,11.926,10.048,13.012,5.353,9.925
Mon Dec 02 21:01:52 2024,15,-31.879,-31.879,30.981,30.981,-1.594,22.184,13.198,0.352,17.847,13.395,-2.974,12.154,10.353,12.875,5.674,10.444
Mon Dec 02 21:01:52 2024,20,-31.872,-31.872,31.504,31.504,-1.431,22.226,13.924,0.887,18.037,13.977,-2.775,12.285,11.042,12.300,6.497,11.596
Mon Dec 02 21:01:52 2024,25,-31.876,-31.876,31.983,31.983,-1.319,22.282,14.446,1.256,18.051,14.390,-2.622,12.400,11.534,11.916,7.060,12.430
Mon Dec 02 21:01:52 2024,30,-31.869,-31.869,31.957,31.957,-1.299,22.225,15.062,1.416,17.869,14.859,-2.675,12.524,12.265,11.290,7.806,13.560
Mon Dec 02 21:01:52 2024,35,-31.879,-31.879,31.864,31.864,-1.290,22.148,15.742,1.556,17.646,15.371,-2.762,12.658,13.092,10.581,8.637,14.837
Mon Dec 02 21:01:52 2024,40,-32.030,-32.030,31.840,31.840,-1.315,22.053,16.274,1.563,17.454,15.890,-2.784,12.736,13.808,10.054,9.359,16.142
Mon Dec 02 21:01:52 2024,45,-32.328,-32.328,31.864,31.864,-1.373,21.931,16.816,1.463,17.219,16.546,-2.759,12.790,14.611,9.545,10.138,17.810
Mon Dec 02 21:01:52 2024,50,-32.608,-32.608,31.894,31.894,-1.424,21.835,17.320,1.377,16.980,17.146,-2.738,12.841,15.352,9.070,10.798,19.367
Mon Dec 02 21:01:52 2024,55,-33.136,-33.136,31.519,31.519,-1.283,21.606,18.529,1.566,17.082,18.076,-2.563,13.128,16.464,9.033,10.897,21.305
Mon Dec 02 21:01:52 2024,60,-33.694,33.694,31.201,31.201,-1.165,21.394,19.690,1.724,17.124,18.988,-2.401,13.391,17.575,8.944,11.036,23.290
Mon Dec 02 21:01:52 2024,65,-33.976,33.976,31.040,31.040,-0.896,21.076,21.257,1.801,17.134,20.212,-2.471,13.826,19.120,8.808,11.190,26.180
Mon Dec 02 21:01:52 2024,70,-34.174,34.174,30.931,30.931,-0.588,20.734,22.922,1.852,17.136,21.504,-2.604,14.289,20.788,8.663,11.326,29.345
Mon Dec 02 21:01:52 2024,75,-34.364,34.364,31.064,31.064,-0.370,20.438,25.099,2.005,17.008,23.128,-2.820,14.575,22.876,8.392,11.577,32.814
Mon Dec 02 21:01:52 2024,80,-34.530,34.530,31.781,31.781,-0.350,19.604,28.673,2.414,16.552,25.674,-3.254,14.472,26.107,7.794,12.190,37.144
Mon Dec 02 21:01:52 2024,85,-34.610,34.610,32.423,32.423,-0.362,19.408,32.032,2.814,16.186,28.243,-3.367,14.759,29.277,7.321,12.673,40.901
Mon Dec 02 21:01:52 2024,90,-34.510,34.510,33.140,33.140,-0.478,19.185,36.104,3.360,15.877,31.939,-2.729,16.192,33.442,6.959,13.041,44.578
Mon Dec 02 21:01:52 2024,95,-34.339,34.339,33.853,33.853,-0.634,18.976,40.390,3.941,15.530,36.029,-1.809,17.937,38.032,6.658,13.328,48.130
Mon Dec 02 21:01:52 2024,100,-34.330,34.330,34.755,34.755,-0.662,20.089,44.642,4.619,15.072,40.026,-1.242,21.413,42.235,6.429,13.560,50.619
Mon Dec 02 21:01:52 2024,105,-34.517,34.517,36.155,36.155,-0.536,21.896,50.253,5.624,14.288,45.283,-0.907,22.372,47.341,6.226,13.770,52.564
Mon Dec 02 21:01:52 2024,110,-34.663,34.663,37.206,37.206,-0.447,23.561,54.605,6.453,13.527,49.747,-0.701,23.554,51.314,6.165,18.059,54.123
Mon Dec 02 21:01:52 2024,115,-34.793,34.793,37.903,37.903,-0.455,25.909,57.260,7.292,12.612,53.884,-0.841,24.468,53.526,6.468,26.839,55.361
Mon Dec 02 21:01:52 2024,120,-34.914,34.914,38.432,38.432,-0.483,27.847,59.248,7.966,28.312,57.404,-0.977,25.162,55.166,6.745,27.515,56.328
Mon Dec 02 21:01:52 2024,125,-35.148,35.148,39.463,39.463,-0.767,30.071,61.586,8.032,28.968,60.249,-0.853,25.832,57.128,6.729,28.310,57.847
Mon Dec 02 21:01:52 2024,130,-35.400,35.400,40.541,40.541,-1.136,32.049,63.788,7.804,29.566,62.333,-0.638,26.388,58.952,6.579,29.180,59.365
Mon Dec 02 21:01:52 2024,135,-35.681,35.681,41.577,41.577,-1.417,33.744,66.068,7.590,30.094,64.418,-0.584,27.038,60.732,6.571,29.970,60.831
Mon Dec 02 21:01:52 2024,140,-36.164,36.164,43.062,43.062,-1.650,35.769,69.790,7.306,30.628,67.575,-0.813,28.218,63.312,6.859,30.870,62.966
Mon Dec 02 21:01:52 2024,145,-36.545,36.545,44.178,44.178,-1.837,37.329,72.765,7.095,31.091,70.032,-0.983,29.119,65.281,7.084,31.565,64.592
Mon Dec 02 21:01:52 2024,150,-36.789,36.789,45.170,45.170,-1.985,39.205,76.616,6.956,32.201,73.638,-1.310,30.462,67.978,7.333,32.319,66.218
Mon Dec 02 21:01:52 2024,155,-37.038,37.038,46.180,46.180,-2.155,41.224,80.869,6.823,33.521,77.640,-1.669,31.922,70.914,7.599,33.118,67.928
Mon Dec 02 21:01:52 2024,160,-37.076,37.076,47.137,47.137,-2.168,43.306,84.575,6.989,35.110,81.177,-1.819,33.462,73.758,7.790,33.992,69.834
Mon Dec 02 21:01:52 2024,165,-36.937,36.937,48.209,48.209,-2.104,45.816,88.388,7.448,37.184,84.865,-1.819,35.350,77.009,7.944,35.095,72.269
Mon Dec 02 21:01:52 2024,170,-36.853,36.853,49.113,49.113,-2.193,48.052,91.607,7.872,39.164,88.049,-1.755,37.165,79.930,8.072,36.237,74.481
Mon Dec 02 21:01:52 2024,175,-36.855,36.855,49.838,49.838,-2.410,50.094,93.938,8.396,41.628,90.734,-1.364,39.507,82.926,8.130,38.016,76.732
Mon Dec 02 21:01:52 2024,180,-36.895,36.895,50.381,50.381,-2.627,51.702,95.680,8.812,43.619,92.741,-1.201,41.429,85.221,8.164,39.492,78.519
Mon Dec 02 21:01:52 2024,185,-36.849,36.849,50.768,50.768,-0.877,53.090,97.221,9.184,46.121,95.636,-0.379,43.481,88.020,8.431,41.265,80.778
Mon Dec 02 21:01:52 2024,190,-36.797,36.797,51.062,51.062,3.037,54.307,98.572,9.519,48.674,98.543,1.508,45.444,90.764,8.764,43.025,83.053
Mon Dec 02 21:01:52 2024,195,-36.754,36.754,51.259,51.259,3.567,55.709,100.035,10.020,51.616,101.504,1.889,47.883,93.564,9.160,45.139,85.538
Mon Dec 02 21:01:52 2024,200,-36.726,36.726,51.302,51.302,4.208,57.001,101.281,10.604,54.309,103.917,2.260,50.301,95.800,9.536,47.174,87.699
Mon Dec 02 21:01:52 2024,205,-36.745,36.745,51.334,51.334,5.008,58.395,102.539,11.254,57.222,106.263,2.692,52.893,98.018,9.940,49.357,89.968
Mon Dec 02 21:01:52 2024,210,-37.137,37.137,50.650,50.650,5.787,60.574,104.451,11.933,60.291,109.052,3.087,55.539,100.401,10.738,52.024,93.130
Mon Dec 02 21:01:52 2024,215,-37.431,37.431,49.827,49.827,6.478,62.690,105.892,12.511,63.007,110.965,3.523,57.884,102.172,11.567,54.600,95.822
Mon Dec 02 21:01:52 2024,220,-37.616,37.616,48.984,48.984,7.110,64.711,107.156,13.015,65.511,112.582,3.940,60.071,103.723,12.375,57.076,98.272
Mon Dec 02 21:01:52 2024,225,-37.369,37.369,48.061,48.061,7.511,66.354,107.697,13.222,67.172,113.000,4.294,61.632,104.385,13.105,59.169,99.732
Mon Dec 02 21:01:52 2024,230,-37.152,37.152,47.118,47.118,7.942,68.018,108.177,13.446,68.855,113.373,4.676,63.210,105.016,13.865,61.303,101.109
Mon Dec 02 21:01:52 2024,235,-36.571,36.571,46.345,46.345,8.069,69.428,108.317,13.810,70.178,113.727,2.921,64.735,105.372,13.951,63.114,101.486
Mon Dec 02 21:01:52 2024,240,-36.110,36.110,45.663,45.663,8.233,70.639,108.415,14.126,71.321,114.003,-5.438,66.037,105.657,14.057,64.681,101.798
Mon Dec 02 21:01:52 2024,245,-35.672,35.672,45.100,45.100,8.740,72.701,107.906,14.366,73.360,113.420,-5.956,67.708,105.432,14.323,66.712,101.965
Mon Dec 02 21:01:52 2024,250,-35.337,35.337,44.640,44.640,9.317,74.646,107.292,14.588,75.308,112.680,-6.474,69.207,105.096,14.602,68.553,102.026
Mon Dec 02 21:01:52 2024,255,-35.037,35.037,44.151,44.151,9.840,76.258,106.630,14.889,76.972,111.974,-6.976,70.571,104.749,14.755,70.214,101.973
Mon Dec 02 21:01:52 2024,260,-34.665,34.665,43.436,43.436,10.182,77.384,105.696,15.430,78.319,111.222,-7.494,71.999,104.304,14.518,71.870,101.666
Mon Dec 02 21:01:52 2024,265,-34.337,34.337,42.715,42.715,10.587,78.521,104.774,15.993,79.670,110.464,-8.041,73.420,103.851,14.321,73.545,101.339
Mon Dec 02 21:01:52 2024,270,-34.000,34.000,42.058,42.058,10.949,79.374,104.488,16.615,81.123,110.213,-8.641,74.883,103.808,14.707,75.360,101.402
Mon Dec 02 21:01:52 2024,275,-33.767,33.767,41.554,41.554,11.240,80.029,104.264,17.113,82.232,110.001,-9.126,76.000,103.758,15.022,76.746,101.419
Mon Dec 02 21:01:52 2024,280,-33.598,33.598,40.970,40.970,11.660,80.921,104.113,17.820,83.625,109.917,-9.748,77.415,103.878,15.480,78.463,101.584
Mon Dec 02 21:01:52 2024,285,-33.542,33.542,40.480,40.480,12.088,81.784,104.073,18.534,84.891,109.976,-10.330,78.708,104.126,15.953,80.001,101.842
Mon Dec 02 21:01:52 2024,290,-33.498,33.498,39.940,39.940,12.584,82.730,104.055,19.380,86.240,110.025,-11.001,80.129,104.387,16.486,81.599,102.094
Mon Dec 02 21:01:52 2024,295,-33.471,33.471,39.352,39.352,13.134,83.721,104.158,20.395,87.515,110.114,-11.725,81.630,104.699,16.993,82.962,102.375
Mon Dec 02 21:01:52 2024,300,-33.461,33.461,38.857,38.857,13.617,84.559,104.244,21.289,88.578,110.166,-12.379,82.904,104.943,17.438,84.085,102.597
Mon Dec 02 21:01:52 2024,305,-33.582,33.582,38.570,38.570,13.980,85.175,104.330,21.869,89.532,110.019,-13.033,84.083,104.919,17.632,85.093,102.531
Mon Dec 02 21:01:52 2024,310,-33.750,33.750,38.352,38.352,14.308,85.722,104.414,22.358,90.457,109.798,-13.712,85.246,104.794,17.761,86.072,102.361
Mon Dec 02 21:01:52 2024,315,-33.868,33.868,38.128,38.128,14.617,86.228,104.442,22.813,91.273,109.582,-14.311,86.230,104.657,17.914,86.916,102.190
Mon Dec 02 21:01:52 2024,320,-33.911,33.911,37.793,37.793,14.999,86.842,104.353,23.325,92.154,109.300,-14.905,87.170,104.452,18.135,87.782,101.966
Mon Dec 02 21:01:52 2024,325,-33.958,33.958,37.491,37.491,15.349,87.392,104.269,23.810,92.944,109.042,-15.458,88.015,104.264,18.361,88.560,101.758
Mon Dec 02 21:01:52 2024,330,-33.967,33.967,37.382,37.382,15.689,87.919,104.221,24.295,93.848,108.756,-16.154,89.110,104.038,18.675,89.940,101.339
Mon Dec 02 21:01:52 2024,335,-33.973,33.973,37.312,37.312,15.978,88.361,104.183,24.730,94.626,108.505,-16.784,90.066,103.837,19.039,91.183,100.947
Mon Dec 02 21:01:52 2024,340,-34.174,34.174,37.259,37.259,16.292,88.827,104.190,25.042,95.373,108.343,-17.351,90.912,103.667,19.652,92.504,100.583
Mon Dec 02 21:01:52 2024,345,-34.451,34.451,37.230,37.230,16.556,89.208,104.220,25.216,95.944,108.264,-17.751,91.509,103.554,20.288,93.595,100.313
Mon Dec 02 21:01:52 2024,350,-34.741,34.741,37.202,37.202,16.839,89.612,104.248,25.431,96.548,108.166,-18.187,92.140,103.435,21.030,94.752,100.019
Mon Dec 02 21:01:52 2024,355,-34.892,34.892,37.106,37.106,16.843,89.632,104.270,25.651,96.660,108.179,-18.518,92.581,103.323,21.518,95.630,99.753
Mon Dec 02 21:01:52 2024,360,-35.041,35.041,37.023,37.023,16.868,89.679,104.290,25.856,96.796,108.182,-18.834,92.997,103.220,22.050,96.454,99.503
Mon Dec 02 21:01:52 2024,365,-35.186,35.186,36.875,36.875,16.964,89.829,104.327,25.937,96.900,108.162,-19.262,93.528,103.078,22.676,97.309,99.249
Mon Dec 02 21:01:52 2024,370,-35.284,35.284,36.750,36.750,-17.057,89.971,104.358,25.949,96.960,108.139,-19.603,93.935,102.967,23.158,97.909,99.072
Mon Dec 02 21:01:52 2024,375,-35.334,35.334,36.634,36.634,-17.144,90.102,104.396,26.031,97.033,108.143,-19.951,94.352,102.874,23.744,98.564,98.895
Mon Dec 02 21:01:52 2024,380,-35.246,35.246,36.582,36.582,-17.177,90.161,104.435,26.261,97.108,108.211,-20.180,94.642,102.863,24.319,99.113,98.784
Mon Dec 02 21:01:52 2024,385,-35.165,35.165,36.535,36.535,17.208,90.215,104.470,26.474,97.177,108.271,-20.393,94.906,102.851,24.860,99.614,98.683
Mon Dec 02 21:01:52 2024,390,-35.225,35.225,36.303,36.303,-17.111,90.085,104.489,26.355,97.071,108.354,-20.469,95.018,102.841,25.160,99.953,98.516
Mon Dec 02 21:01:52 2024,395,-35.277,35.277,36.131,36.131,-17.038,89.984,104.498,26.249,96.986,108.411,-20.512,95.084,102.833,25.359,100.174,98.396
Mon Dec 02 21:01:52 2024,400,-35.326,35.326,36.057,36.057,-17.001,89.935,104.512,26.180,96.907,108.480,-20.533,95.142,102.865,25.617,100.422,98.292
Mon Dec 02 21:01:52 2024,405,-35.354,35.354,36.124,36.124,-17.014,89.965,104.528,26.176,96.862,108.540,-20.525,95.170,102.932,25.850,100.620,98.241
Mon Dec 02 21:01:52 2024,410,-35.399,35.399,36.093,36.093,-16.989,89.937,104.520,26.157,96.832,108.561,-20.551,95.229,102.967,26.060,100.821,98.162
Mon Dec 02 21:01:52 2024,415,-35.459,35.459,35.892,35.892,-16.900,89.810,104.466,26.117,96.845,108.497,-20.627,95.332,102.930,26.157,100.960,98.053
Mon Dec 02 21:01:52 2024,420,-35.525,35.525,35.656,35.656,-16.799,89.664,104.400,26.074,96.866,108.418,-20.716,95.449,102.881,26.271,101.112,97.928
Mon Dec 02 21:01:52 2024,425,-35.659,35.659,35.686,35.686,-16.836,89.715,104.401,26.016,96.825,108.454,-20.744,95.499,102.874,26.579,101.389,97.815
Mon Dec 02 21:01:52 2024,430,-35.852,35.852,35.805,35.805,-16.925,89.843,104.420,25.941,96.757,108.531,-20.760,95.543,102.877,27.044,101.781,97.673
Mon Dec 02 21:01:52 2024,435,-35.991,35.991,35.891,35.891,-16.989,89.935,104.434,25.887,96.708,108.585,-20.771,95.575,102.879,27.388,102.062,97.570
Mon Dec 02 21:01:52 2024,440,-35.684,35.684,35.890,35.890,-16.422,89.159,104.600,25.523,95.990,109.057,-20.711,95.528,103.158,27.748,102.360,97.383
Mon Dec 02 21:01:52 2024,445,-35.519,35.519,35.905,35.905,-16.090,88.694,104.701,25.303,95.537,109.356,-20.676,95.505,103.329,28.053,102.599,97.247
Mon Dec 02 21:01:52 2024,450,-35.532,35.532,36.104,36.104,-16.081,88.679,104.644,25.216,95.491,109.382,-20.559,95.412,103.399,28.126,102.666,97.185
Mon Dec 02 21:01:52 2024,455,-35.549,35.549,36.326,36.326,-16.073,88.666,104.575,25.122,95.445,109.406,-20.431,95.311,103.472,28.206,102.739,97.117
Mon Dec 02 21:01:52 2024,460,-35.613,35.613,36.520,36.520,-16.171,88.819,104.553,25.118,95.543,109.335,6.739,95.306,103.411,28.383,102.874,97.034
Mon Dec 02 21:01:52 2024,465,-35.849,35.849,36.846,36.846,-16.616,89.503,104.620,25.328,96.074,108.977,-20.592,95.518,102.983,28.956,103.286,96.836
Mon Dec 02 21:01:52 2024,470,-35.999,35.999,37.062,37.062,-16.899,89.922,104.656,25.458,96.396,108.756,-20.695,95.639,102.725,29.320,103.543,96.708
Mon Dec 02 21:01:52 2024,475,-36.036,36.036,36.986,36.986,-16.488,89.369,104.603,25.313,95.944,109.097,-20.528,95.477,103.030,29.131,103.416,96.729
Mon Dec 02 21:01:52 2024,480,-36.071,36.071,36.942,36.942,-16.200,88.974,104.564,25.220,95.622,109.342,-20.409,95.363,103.244,0.027,103.334,96.738
Mon Dec 02 21:01:52 2024,485,-36.296,36.296,37.054,37.054,-16.299,89.128,104.583,25.419,95.927,109.193,-20.447,95.415,103.162,28.848,103.224,96.799
Mon Dec 02 21:01:52 2024,490,-36.535,36.535,37.193,37.193,-16.510,89.432,104.618,25.678,96.377,108.943,20.533,95.514,102.998,28.700,103.128,96.864
Mon Dec 02 21:01:52 2024,495,-36.748,36.748,37.316,37.316,-16.702,89.705,104.651,25.920,96.780,108.720,20.612,95.600,102.851,28.572,103.043,96.924
Mon Dec 02 21:01:52 2024,500,-36.668,36.668,37.382,37.382,-16.112,88.869,104.598,25.349,95.725,109.425,6.773,95.004,103.373,27.947,102.589,97.079
Mon Dec 02 21:01:52 2024,505,-36.653,36.653,37.463,37.463,-15.825,88.451,104.579,25.111,95.226,109.765,-19.772,94.645,103.627,27.453,102.227,97.223
Mon Dec 02 21:01:52 2024,510,-36.621,36.621,37.585,37.585,15.861,88.497,104.602,25.228,95.374,109.670,-19.619,94.438,103.548,26.780,101.735,97.480
Mon Dec 02 21:01:52 2024,515,-36.580,36.580,37.748,37.748,15.966,88.630,104.637,25.432,95.664,109.481,-19.452,94.202,103.394,25.996,101.101,97.819
Mon Dec 02 21:01:52 2024,520,-36.682,36.682,38.300,38.300,15.594,88.067,104.678,25.309,95.306,109.676,-18.912,93.550,103.584,24.824,100.115,98.142
Mon Dec 02 21:01:52 2024,525,-36.858,36.858,39.062,39.062,15.000,87.152,104.726,25.050,94.634,110.059,-18.196,92.670,103.946,23.464,98.910,98.468
Mon Dec 02 21:01:52 2024,530,-37.044,37.044,39.914,39.914,14.492,86.330,104.809,24.820,94.034,110.392,-17.484,91.765,104.286,22.156,97.637,98.821
Mon Dec 02 21:01:52 2024,535,-37.310,37.310,41.382,41.382,14.112,85.658,105.070,24.560,93.556,110.622,16.513,90.494,104.642,20.504,95.742,99.396
Mon Dec 02 21:01:52 2024,540,-37.526,37.526,42.557,42.557,13.844,85.142,105.285,24.363,93.189,110.798,15.789,89.482,104.918,19.408,94.232,99.848
Mon Dec 02 21:01:52 2024,545,-38.000,38.000,43.912,43.912,13.677,84.702,105.467,23.441,92.461,110.755,14.533,87.586,104.854,17.817,91.714,100.084
Mon Dec 02 21:01:52 2024,550,-38.453,38.453,44.949,44.949,13.610,84.405,105.594,22.570,91.814,110.655,13.526,85.938,104.686,16.726,89.576,100.161
Mon Dec 02 21:01:52 2024,555,-38.849,38.849,46.205,46.205,13.248,83.557,105.821,21.534,90.507,110.895,4.604,83.939,104.660,15.763,86.983,100.372
Mon Dec 02 21:01:52 2024,560,-38.980,38.980,48.040,48.040,11.940,81.008,106.317,20.142,87.205,112.198,-10.949,81.017,105.135,14.896,83.195,101.027
Mon Dec 02 21:01:52 2024,565,-39.207,39.207,49.486,49.486,11.046,79.052,106.661,19.260,84.650,113.123,-9.926,78.702,105.429,14.558,80.198,101.406
Mon Dec 02 21:01:52 2024,570,-38.618,38.618,50.695,50.695,10.063,76.991,106.608,18.039,81.169,113.481,-8.490,75.169,105.176,14.393,76.005,101.212
Mon Dec 02 21:01:52 2024,575,-38.193,38.193,51.691,51.691,9.317,75.303,106.496,17.214,78.283,113.636,-7.440,72.250,104.824,14.489,72.596,100.806
Mon Dec 02 21:01:52 2024,580,-37.609,37.609,52.200,52.200,8.713,73.599,106.384,16.202,75.153,113.448,-6.512,69.262,104.165,14.382,68.705,100.002
Mon Dec 02 21:01:52 2024,585,-37.082,37.082,52.247,52.247,8.368,72.288,106.316,15.299,72.600,113.044,-5.902,66.925,103.426,14.154,65.396,99.015
Mon Dec 02 21:01:52 2024,590,-36.519,36.519,52.264,52.264,7.986,70.832,106.004,14.559,70.292,112.469,-5.426,64.862,102.650,14.034,62.523,97.958
Mon Dec 02 21:01:52 2024,595,-35.485,35.485,52.158,52.158,7.264,68.580,104.698,14.064,68.552,111.438,-5.125,63.535,101.935,14.099,60.712,97.240
Mon Dec 02 21:01:52 2024,600,-34.734,34.734,52.049,52.049,6.714,66.732,103.483,13.695,67.160,110.538,-4.892,62.470,101.327,14.171,59.290,96.637
Mon Dec 02 21:01:52 2024,605,-34.098,34.098,51.928,51.928,6.214,64.899,102.153,13.357,65.790,109.598,-4.672,61.409,100.698,14.255,57.906,96.018
Mon Dec 02 21:01:52 2024,610,-33.830,33.830,51.880,51.880,5.988,64.020,101.488,13.204,65.139,109.144,-4.571,60.901,100.403,14.303,57.251,95.733
Mon Dec 02 21:01:52 2024,615,-33.758,33.758,51.885,51.885,5.924,63.757,101.301,13.161,64.950,109.026,-4.546,60.755,100.335,14.323,57.059,95.677
Mon Dec 02 21:01:52 2024,620,-33.444,33.444,47.752,47.752,5.791,55.203,89.901,11.195,59.830,101.963,-3.694,56.992,92.351,12.472,52.499,86.804
Mon Dec 02 21:01:52 2024,625,-33.278,33.278,46.836,46.836,5.845,52.846,86.466,10.696,58.303,99.913,-3.482,55.838,90.316,12.093,51.093,84.607
Mon Dec 02 21:01:52 2024,630,-32.682,32.682,46.219,46.219,4.756,48.800,79.902,11.046,55.539,95.301,-2.642,52.900,86.414,11.588,48.677,79.998
Mon Dec 02 21:01:52 2024,635,-32.091,32.091,45.673,45.673,3.618,44.700,73.370,11.512,52.745,89.988,2.392,49.839,82.116,11.090,46.205,75.145
Mon Dec 02 21:01:52 2024,640,-31.496,31.496,44.288,44.288,2.773,40.885,67.510,11.467,49.690,84.746,2.126,46.761,77.876,10.591,43.799,71.434
Mon Dec 02 21:01:52 2024,645,-31.002,31.002,42.670,42.670,2.262,37.867,63.027,11.168,47.003,80.250,1.661,44.193,74.246,10.200,41.860,68.955
Mon Dec 02 21:01:52 2024,650,-30.578,30.578,41.247,41.247,1.846,35.183,59.278,10.933,44.635,76.009,1.289,41.913,70.858,9.872,40.152,66.715
Mon Dec 02 21:01:52 2024,655,-29.098,29.098,39.260,39.260,2.196,32.284,52.452,10.617,42.022,69.375,0.917,39.533,66.051,8.816,37.270,63.064
Mon Dec 02 21:01:52 2024,660,-28.007,28.007,37.625,37.625,2.516,29.779,47.159,10.437,39.779,63.773,-0.810,37.390,61.865,8.063,34.871,59.958
Mon Dec 02 21:01:52 2024,665,-27.697,-27.697,35.790,35.790,2.463,28.332,42.616,10.321,38.661,59.351,-0.709,36.355,58.044,8.016,33.814,57.431
Mon Dec 02 21:01:52 2024,670,-27.531,-27.531,33.928,33.928,2.355,27.049,38.326,10.220,37.719,55.268,-0.600,35.482,54.352,8.093,32.993,55.009
Mon Dec 02 21:01:52 2024,675,-27.476,-27.476,31.909,31.909,2.160,25.903,34.613,9.934,36.503,51.219,0.121,34.148,50.522,8.204,32.273,52.474
Mon Dec 02 21:01:52 2024,680,-27.564,-27.564,28.892,28.892,1.715,24.581,30.386,9.195,34.370,45.678,0.360,31.516,44.991,8.401,31.478,48.787
Mon Dec 02 21:01:52 2024,685,-27.636,-27.636,26.707,26.707,1.381,23.619,27.457,8.645,32.821,41.908,0.351,29.541,41.099,8.562,30.964,46.104
Mon Dec 02 21:01:52 2024,690,-27.736,-27.736,24.037,24.037,0.836,23.090,24.568,7.811,30.853,36.814,-0.395,27.323,36.566,8.227,30.297,42.253
Mon Dec 02 21:01:52 2024,695,-27.841,-27.841,21.708,21.708,0.344,22.682,22.043,7.063,29.159,32.452,-0.974,25.423,32.688,7.919,29.707,38.963
Mon Dec 02 21:01:52 2024,700,-27.965,-27.965,19.420,19.420,-0.114,22.471,19.602,6.438,27.982,28.761,-1.059,24.683,29.544,7.710,29.435,35.643
Mon Dec 02 21:01:52 2024,705,-28.091,-28.091,17.381,17.381,-0.506,22.423,17.443,5.940,27.189,25.760,-0.845,24.624,27.074,7.575,29.368,32.610
Mon Dec 02 21:01:52 2024,710,-28.264,-28.264,15.015,15.015,-0.900,22.406,15.216,5.526,26.543,22.685,-0.549,24.422,24.344,7.479,29.234,29.085
Mon Dec 02 21:01:52 2024,715,-28.477,-28.477,12.739,12.739,-1.086,22.296,13.906,5.639,26.711,20.838,-0.137,23.849,22.108,7.567,28.966,25.690
Mon Dec 02 21:01:52 2024,720,-28.664,-28.664,10.773,10.773,-1.251,22.226,12.758,5.741,26.855,19.222,0.219,23.368,20.153,7.635,28.748,22.761
Mon Dec 02 21:01:52 2024,725,-28.673,-28.673,8.826,8.826,-1.481,22.038,11.831,5.736,26.786,17.988,0.463,22.750,18.328,7.908,28.798,20.283
Mon Dec 02 21:01:52 2024,730,-28.637,-28.637,7.198,7.198,-1.693,21.941,11.119,5.701,26.670,17.063,0.634,22.218,16.859,8.189,28.920,18.347
Mon Dec 02 21:01:52 2024,735,-28.573,-28.573,5.699,5.699,-1.942,21.992,10.407,5.571,26.350,16.051,0.801,21.435,15.387,8.408,28.887,16.260
Mon Dec 02 21:01:52 2024,740,-28.505,-28.505,4.906,4.906,-2.138,22.139,9.964,5.382,25.936,15.327,0.900,20.926,14.449,8.475,28.729,14.788
Mon Dec 02 21:01:52 2024,745,-28.449,-28.449,4.074,4.074,-2.345,22.362,9.504,5.181,25.531,14.578,0.997,18.726,13.482,8.539,11.368,13.284
Mon Dec 02 21:01:52 2024,750,-28.285,-28.285,3.465,3.465,-2.595,17.270,9.348,4.824,18.458,14.125,1.106,17.964,12.915,8.735,11.245,12.443
Mon Dec 02 21:01:52 2024,755,-28.145,-28.145,2.842,2.842,-2.847,16.828,9.183,4.470,15.503,13.668,1.212,17.107,12.343,8.923,11.069,11.600
Mon Dec 02 21:01:52 2024,760,-27.961,-27.961,2.182,2.182,-2.974,16.548,9.015,4.154,15.831,13.355,1.261,16.185,11.802,9.392,10.567,10.782
Mon Dec 02 21:01:52 2024,765,-27.804,-27.804,1.669,1.669,-3.005,16.430,8.888,3.935,15.988,13.196,1.264,15.454,11.414,9.888,10.005,10.187
Mon Dec 02 21:01:52 2024,770,-27.671,-27.671,1.211,1.211,-3.034,16.320,8.776,3.738,16.085,13.056,1.263,14.796,11.072,10.329,9.484,9.664
Mon Dec 02 21:01:52 2024,775,-27.472,-27.472,0.643,0.643,-3.193,16.069,8.659,3.528,16.219,12.928,1.006,14.310,10.675,10.950,8.739,9.176
Mon Dec 02 21:01:52 2024,780,-27.319,-27.319,0.192,0.192,-3.314,15.874,8.567,3.359,16.310,12.826,0.813,13.894,10.362,11.439,8.136,8.785
Mon Dec 02 21:01:52 2024,785,-27.046,-27.046,-0.262,-0.262,-3.386,15.700,8.468,3.164,16.397,12.733,0.488,13.462,10.069,11.895,7.528,8.429
Mon Dec 02 21:01:52 2024,790,-26.778,-26.778,-0.650,-0.650,-3.436,15.552,8.381,2.985,16.459,12.657,0.199,13.069,9.822,12.282,6.986,8.128
Mon Dec 02 21:01:52 2024,795,-26.452,-26.452,-1.017,-1.017,-3.487,15.433,8.290,2.816,16.520,12.583,-0.248,12.736,9.586,12.658,6.453,7.807
Mon Dec 02 21:01:52 2024,800,-26.084,-26.084,-1.330,-1.330,-3.535,15.361,8.203,2.674,16.587,12.520,-0.559,12.504,9.382,12.988,5.984,7.488
Mon Dec 02 21:01:52 2024,805,-25.705,-25.705,-1.635,-1.635,-3.577,15.301,8.122,2.531,16.636,12.454,-0.883,12.269,9.204,13.331,5.522,7.222
Mon Dec 02 21:01:52 2024,810,-25.186,-25.186,-1.937,-1.937,-3.595,15.313,8.063,2.354,16.622,12.365,-1.184,12.051,9.137,13.795,5.069,7.182
Mon Dec 02 21:01:52 2024,815,-24.759,-24.759,-2.166,-2.166,-3.603,15.339,8.023,2.210,16.580,12.291,-1.411,11.885,9.111,14.181,4.722,7.204
Mon Dec 02 21:01:52 2024,820,-24.380,-24.380,-2.412,-2.412,-3.594,15.343,7.994,2.118,16.545,12.276,-1.626,11.650,9.052,14.383,4.522,7.176
Mon Dec 02 21:01:52 2024,825,-23.934,-23.934,-2.751,-2.751,-3.565,15.325,7.967,2.051,16.519,12.318,-1.896,11.273,8.942,14.456,4.417,7.084
Mon Dec 02 21:01:52 2024,830,-23.534,-23.534,-3.027,-3.027,-3.530,15.327,7.953,2.025,16.472,12.344,-2.103,11.013,8.861,14.528,4.304,6.986
Mon Dec 02 21:01:52 2024,835,-23.167,-23.167,-3.204,-3.204,-3.462,15.383,7.975,2.122,16.369,12.350,-2.182,11.006,8.834,14.561,4.188,6.821
Mon Dec 02 21:01:52 2024,840,-22.766,-22.766,-3.395,-3.395,-3.387,15.447,7.999,2.232,16.253,12.356,-2.264,11.004,8.806,14.596,4.059,6.638
Mon Dec 02 21:01:52 2024,845,-22.501,-22.501,-3.423,-3.423,-3.336,15.500,8.036,2.288,16.235,12.372,-2.334,11.059,8.826,14.640,3.972,6.568
Mon Dec 02 21:01:52 2024,850,-22.269,-22.269,-3.361,-3.361,-3.291,15.556,8.084,2.321,16.271,12.396,-2.408,11.155,8.878,14.699,3.897,6.551
Mon Dec 02 21:01:52 2024,855,-22.062,-22.062,-3.306,-3.306,-3.270,15.576,8.112,2.376,16.297,12.411,-2.479,11.236,8.908,14.740,3.827,6.514
Mon Dec 02 21:01:52 2024,860,-21.954,-21.954,-3.222,-3.222,-3.322,15.498,8.084,2.476,16.326,12.403,-2.543,11.308,8.891,14.737,3.786,6.453
Mon Dec 02 21:01:52 2024,865,-21.829,-21.829,-3.136,-3.136,-3.366,15.429,8.063,2.575,16.350,12.398,-2.610,11.384,8.881,14.741,3.739,6.393
Mon Dec 02 21:01:52 2024,870,-21.761,-21.761,-3.091,-3.091,-3.410,15.370,8.135,2.605,16.332,12.406,-2.683,11.457,8.914,14.770,3.671,6.371
Mon Dec 02 21:01:52 2024,875,-21.699,-21.699,-3.048,-3.048,-3.455,15.312,8.210,2.632,16.313,12.415,-2.756,11.529,8.948,14.800,3.602,6.349
Mon Dec 02 21:01:52 2024,880,-21.623,-21.623,-2.982,-2.982,-3.506,15.254,8.244,2.652,16.332,12.407,-2.852,11.579,8.954,14.802,3.590,6.354
Mon Dec 02 21:01:52 2024,885,-21.549,-21.549,-2.904,-2.904,-3.554,15.210,8.229,2.659,16.384,12.382,-2.952,11.595,8.929,14.778,3.637,6.386
Mon Dec 02 21:01:52 2024,890,-21.474,-21.474,-2.827,-2.827,-3.602,15.163,8.222,2.667,16.432,12.360,-3.052,11.614,8.909,14.757,3.676,6.415
Mon Dec 02 21:01:52 2024,895,-21.262,-21.262,-2.665,-2.665,-3.576,15.183,8.180,2.655,16.432,12.259,-3.207,11.591,8.825,14.778,3.698,6.451
Mon Dec 02 21:01:52 2024,900,-21.124,-21.124,-2.558,-2.558,-3.565,15.189,8.154,2.648,16.437,12.195,-3.312,11.576,8.771,14.789,3.714,6.476
Mon Dec 02 21:01:52 2024,905,-20.970,-20.970,-2.444,-2.444,-3.583,15.152,8.161,2.636,16.393,12.174,-3.439,11.473,8.753,14.738,3.734,6.472
Mon Dec 02 21:01:52 2024,910,-20.837,-20.837,-2.347,-2.347,-3.609,15.103,8.179,2.626,16.338,12.174,-3.552,11.354,8.752,14.671,3.752,6.459
Mon Dec 02 21:01:52 2024,915,-20.688,-20.688,-2.193,-2.193,-3.582,15.087,8.178,2.631,16.299,12.159,-3.636,11.217,8.709,14.572,3.801,6.433
Mon Dec 02 21:01:52 2024,920,-20.526,-20.526,-1.968,-1.968,-3.475,15.119,8.146,2.661,16.291,12.124,-3.670,11.061,8.607,14.430,3.896,6.390
Mon Dec 02 21:01:52 2024,925,-20.408,-20.408,-1.795,-1.795,-3.393,15.141,8.122,2.684,16.284,12.097,-3.697,10.941,8.528,14.320,3.969,6.357
Mon Dec 02 21:01:52 2024,930,-20.282,-20.282,-1.414,-1.414,-3.319,15.152,8.233,2.706,16.262,12.142,-3.751,10.847,8.518,14.058,4.156,6.363
Mon Dec 02 21:01:52 2024,935,-20.217,-20.217,-1.125,-1.125,-3.267,15.158,8.327,2.722,16.245,12.182,-3.793,10.781,8.517,13.853,4.301,6.371
Mon Dec 02 21:01:52 2024,940,-20.202,-20.202,-0.658,-0.658,-3.176,15.112,8.362,2.740,16.228,12.142,-3.818,10.708,8.454,13.632,4.428,6.298
Mon Dec 02 21:01:52 2024,945,-20.253,-20.253,-0.418,0.418,-3.083,15.038,8.344,2.754,16.218,12.055,-3.822,10.649,8.363,13.460,4.506,6.184
Mon Dec 02 21:01:52 2024,950,-20.358,-20.358,-0.728,0.728,-2.985,14.952,8.324,2.770,16.205,11.963,-3.827,10.587,8.266,13.279,4.585,6.065
Mon Dec 02 21:01:52 2024,955,-20.631,-20.631,-1.237,1.237,-2.894,14.908,8.450,2.864,16.110,12.011,-3.803,10.638,8.348,13.224,4.620,6.142
Mon Dec 02 21:01:52 2024,960,-20.942,-20.942,1.707,1.707,-2.813,14.858,8.542,2.937,16.037,12.034,-3.786,10.667,8.397,13.158,4.658,6.186
Mon Dec 02 21:01:52 2024,965,-21.391,-21.391,2.558,2.558,-2.687,14.829,8.737,3.011,15.942,12.156,-3.769,10.653,8.525,13.121,4.638,6.190
Mon Dec 02 21:01:52 2024,970,-21.924,21.924,3.601,3.601,-2.577,14.738,8.976,3.110,15.821,12.328,-3.724,10.613,8.703,13.132,4.588,6.239
Mon Dec 02 21:01:52 2024,975,-22.344,22.344,4.560,4.560,-2.539,14.562,9.192,3.227,15.690,12.508,-3.643,10.552,8.893,13.215,4.519,6.366
Mon Dec 02 21:01:52 2024,980,-22.743,22.743,5.504,5.504,-2.514,14.370,9.404,3.346,15.558,12.689,-3.555,10.488,9.085,13.311,4.447,6.507
Mon Dec 02 21:01:52 2024,985,-23.151,23.151,6.553,6.553,-2.546,14.072,9.628,3.502,15.398,12.907,-3.419,10.392,9.319,13.486,4.346,6.742
Mon Dec 02 21:01:52 2024,990,-23.747,23.747,7.470,7.470,-2.671,13.919,9.998,3.571,15.475,13.309,-3.349,10.316,9.619,13.759,4.292,7.058
Mon Dec 02 21:01:52 2024,995,-24.346,24.346,8.250,8.250,-2.771,13.794,10.300,3.626,15.533,13.635,-3.291,10.254,9.861,13.979,4.240,7.317
Mon Dec 02 21:01:53 2024,0,-24.513,24.513,10.215,10.215,-2.805,13.511,10.350,3.691,15.574,13.823,-3.183,10.189,10.012,14.207,4.096,7.604
Mon Dec 02 21:01:53 2024,5,-24.388,24.388,12.849,12.849,-2.792,13.142,10.250,3.758,15.604,13.924,-3.048,10.124,10.102,14.434,3.904,7.898
Mon Dec 02 21:01:53 2024,10,-24.298,24.298,15.046,15.046,-2.779,12.837,10.171,3.812,15.624,14.009,-2.935,10.069,10.175,14.622,3.746,8.143
Mon Dec 02 21:01:53 2024,15,-24.234,24.234,18.608,18.608,-2.948,11.870,9.974,3.450,15.656,13.680,-3.082,9.601,10.006,14.598,3.809,8.566
Mon Dec 02 21:01:53 2024,20,-24.194,24.194,21.591,21.591,-3.054,11.121,9.818,3.200,15.624,13.450,-3.166,9.251,9.892,14.607,3.832,8.903
Mon Dec 02 21:01:53 2024,25,-24.941,24.941,24.391,24.391,-3.041,10.386,10.019,3.240,15.341,13.690,-3.090,8.800,9.932,14.740,3.635,9.286
Mon Dec 02 21:01:53 2024,30,-25.948,25.948,27.261,27.261,-2.996,9.646,10.309,3.354,14.992,14.051,-2.971,8.318,10.012,14.908,3.379,9.682
Mon Dec 02 21:01:53 2024,35,-26.887,26.887,29.978,29.978,-2.997,8.841,10.504,3.555,14.469,14.354,-2.849,7.695,10.119,15.013,3.150,10.063
Mon Dec 02 21:01:53 2024,40,-27.565,27.565,32.069,32.069,-3.049,8.101,10.572,3.814,13.848,14.554,-2.745,7.024,10.235,15.035,2.979,10.372
Mon Dec 02 21:01:53 2024,45,-28.255,28.255,34.194,34.194,-3.100,7.365,10.638,4.073,13.227,14.753,-2.640,6.352,10.351,15.059,2.805,10.678
Mon Dec 02 21:01:53 2024,50,-29.074,29.074,35.142,35.142,-2.983,7.169,10.601,4.317,12.827,14.529,-2.567,6.269,10.347,15.302,2.479,10.695
Mon Dec 02 21:01:53 2024,55,-29.824,29.824,36.077,36.077,-2.886,6.967,10.569,4.536,12.459,14.346,-2.500,6.169,10.349,15.511,2.191,10.722
Mon Dec 02 21:01:53 2024,60,-30.641,30.641,36.751,36.751,-2.650,7.234,10.492,4.800,12.415,14.132,-2.274,6.380,10.246,15.874,1.764,10.426
Mon Dec 02 21:01:53 2024,65,-31.295,31.295,37.123,37.123,-2.395,7.686,10.408,5.027,12.536,13.952,-2.016,6.704,10.112,16.230,1.366,10.028
Mon Dec 02 21:01:53 2024,70,-31.985,31.985,37.524,37.524,-2.126,8.155,10.319,5.268,12.633,13.763,-1.743,7.037,9.972,16.599,0.950,9.611
Mon Dec 02 21:01:53 2024,75,-32.544,32.544,37.457,37.457,-2.328,8.362,10.105,4.949,13.191,13.605,-1.757,7.555,9.864,16.826,0.973,9.552
Mon Dec 02 21:01:53 2024,80,-32.978,32.978,37.459,37.459,-2.432,8.538,9.959,4.768,13.556,13.484,-1.739,7.921,9.781,17.008,0.940,9.472
Mon Dec 02 21:01:53 2024,85,-33.302,33.302,37.834,37.834,-2.326,8.774,9.868,4.759,13.569,13.341,-1.660,8.041,9.748,17.281,0.719,9.518
Mon Dec 02 21:01:53 2024,90,-33.505,33.505,38.482,38.482,-2.058,9.034,9.828,4.890,13.293,13.193,-1.539,7.948,9.759,17.604,0.370,9.663
Mon Dec 02 21:01:53 2024,95,-33.694,33.694,39.022,39.022,-1.898,9.217,9.747,4.912,13.066,13.051,-1.506,7.791,9.743,17.774,0.125,9.697
Mon Dec 02 21:01:53 2024,100,-33.846,33.846,39.515,39.515,-1.832,9.319,9.619,4.824,12.803,12.908,-1.579,7.485,9.700,17.762,-0.034,9.613
Mon Dec 02 21:01:53 2024,105,-33.959,33.959,39.881,39.881,-1.783,9.393,9.525,4.758,12.599,12.801,-1.633,7.260,9.669,17.753,-0.153,9.553
Mon Dec 02 21:01:53 2024,110,-34.218,34.218,39.970,39.970,-1.511,9.946,9.541,4.859,12.519,12.722,-1.357,7.556,9.708,17.694,-0.112,9.451
Mon Dec 02 21:01:53 2024,115,-34.460,34.460,40.022,40.022,-1.260,10.457,9.565,4.961,12.462,12.658,-1.093,7.852,9.748,17.640,-0.062,9.361
Mon Dec 02 21:01:53 2024,120,-34.711,34.711,39.683,39.683,-1.097,10.729,9.616,4.896,12.373,12.716,-0.966,7.969,9.878,17.481,0.125,9.370
Mon Dec 02 21:01:53 2024,125,-35.030,35.030,38.980,38.980,-0.962,10.886,9.700,4.695,12.229,12.877,-0.909,7.986,10.103,17.210,0.454,9.453
Mon Dec 02 21:01:53 2024,130,-35.294,35.294,38.445,38.445,-0.853,11.018,9.766,4.543,12.106,12.996,-0.859,8.006,10.275,17.003,0.705,9.513
Mon Dec 02 21:01:53 2024,135,-35.906,35.906,37.946,37.946,-0.680,11.061,9.804,4.448,12.008,13.060,-0.885,7.942,10.282,16.836,0.848,9.546
Mon Dec 02 21:01:53 2024,140,-36.512,36.512,37.407,37.407,-0.512,11.123,9.850,4.331,11.893,13.140,-0.897,7.892,10.328,16.650,1.024,9.587
Mon Dec 02 21:01:53 2024,145,-37.106,37.106,36.728,36.728,-0.350,11.429,9.921,4.287,11.952,13.384,-0.812,8.079,10.506,16.568,1.194,9.595
Mon Dec 02 21:01:53 2024,150,-37.588,37.588,36.158,36.158,-0.235,11.717,9.982,4.266,12.034,13.612,-0.728,8.272,10.674,16.523,1.328,9.595
Mon Dec 02 21:01:53 2024,155,-38.002,38.002,35.566,35.566,-0.178,11.940,10.002,4.260,12.075,13.794,-0.654,8.381,10.801,16.457,1.461,9.579
Mon Dec 02 21:01:53 2024,160,-38.073,38.073,34.932,34.932,-0.187,11.912,9.869,4.312,11.970,13.789,-0.620,8.169,10.766,16.316,1.590,9.506
Mon Dec 02 21:01:53 2024,165,-38.193,38.193,34.350,34.350,-0.069,11.945,9.787,4.347,11.900,13.808,-0.572,8.048,10.759,16.219,1.700,9.466
Mon Dec 02 21:01:53 2024,170,-38.264,38.264,33.632,33.632,0.215,12.089,9.786,4.364,11.832,13.804,-0.449,8.040,10.751,16.233,1.773,9.519
Mon Dec 02 21:01:53 2024,175,-38.326,38.326,32.992,32.992,0.343,12.225,9.794,4.378,11.774,13.796,-0.132,8.045,10.745,16.257,1.831,9.575
Mon Dec 02 21:01:53 2024,180,-38.390,38.390,32.375,32.375,0.411,12.304,9.779,4.397,11.837,13.867,0.370,8.072,10.734,16.278,1.916,9.577
Mon Dec 02 21:01:53 2024,185,-38.446,38.446,31.837,31.837,0.436,12.352,9.756,4.416,11.946,13.964,0.369,8.105,10.721,16.294,2.002,9.556
Mon Dec 02 21:01:53 2024,190,-38.490,38.490,31.323,31.323,0.486,12.364,9.747,4.421,12.014,14.050,0.373,8.122,10.712,16.320,2.066,9.544
Mon Dec 02 21:01:53 2024,195,-38.486,38.486,31.083,31.083,0.582,12.289,9.776,4.387,11.950,14.068,0.385,8.091,10.721,16.362,2.053,9.562
Mon Dec 02 21:01:53 2024,200,-38.481,38.481,30.829,30.829,0.693,12.200,9.811,4.348,11.873,14.086,0.404,8.054,10.730,16.408,2.035,9.584
Mon Dec 02 21:01:53 2024,205,-38.394,38.394,30.467,30.467,0.792,12.224,9.885,4.294,11.927,14.172,0.429,8.166,10.810,16.482,2.042,9.648
Mon Dec 02 21:01:53 2024,210,-38.268,38.268,30.033,30.033,0.891,12.300,9.983,4.230,12.046,14.293,0.464,8.351,10.926,16.574,2.059,9.735
Mon Dec 02 21:01:53 2024,215,-38.190,38.190,29.488,29.488,0.996,12.412,10.025,4.239,12.125,14.376,0.530,8.450,10.956,16.636,2.061,9.698
Mon Dec 02 21:01:53 2024,220,-38.155,38.155,28.815,28.815,1.110,12.570,10.015,4.318,12.176,14.429,0.631,8.477,10.907,16.675,2.053,9.546
Mon Dec 02 21:01:53 2024,225,-38.129,38.129,28.183,28.183,1.216,12.715,10.007,4.391,12.222,14.478,0.733,8.500,10.862,16.712,2.045,9.403
Mon Dec 02 21:01:53 2024,230,-37.732,37.732,27.658,27.658,1.198,12.659,9.968,4.346,12.260,14.542,0.844,8.678,10.901,16.676,2.198,9.440
Mon Dec 02 21:01:53 2024,235,-37.388,37.388,27.144,27.144,1.189,12.619,9.931,4.312,12.297,14.602,0.954,8.836,10.933,16.647,2.328,9.464
Mon Dec 02 21:01:53 2024,240,-36.877,36.877,26.718,26.718,1.185,12.618,9.899,4.312,12.324,14.632,1.069,8.799,10.880,16.634,2.392,9.432
Mon Dec 02 21:01:53 2024,245,-36.413,36.413,26.432,26.432,1.185,12.636,9.877,4.329,12.340,14.641,1.159,8.677,10.799,16.634,2.408,9.380
Mon Dec 02 21:01:53 2024,250,-35.964,35.964,26.142,26.142,1.185,12.655,9.854,4.346,12.355,14.650,1.248,8.556,10.719,16.634,2.424,9.329
Mon Dec 02 21:01:53 2024,255,-35.757,35.757,25.931,25.931,1.138,12.413,9.853,4.295,12.215,14.574,1.292,8.410,10.661,16.666,2.361,9.295
Mon Dec 02 21:01:53 2024,260,-35.522,35.522,25.708,25.708,1.102,12.228,9.849,4.258,12.107,14.517,1.344,8.273,10.601,16.691,2.314,9.259
Mon Dec 02 21:01:53 2024,265,-35.444,35.444,25.574,25.574,1.081,12.126,9.854,4.236,12.057,14.438,1.483,8.165,10.525,16.687,2.314,9.209
Mon Dec 02 21:01:53 2024,270,-35.434,35.434,25.482,25.482,1.069,12.063,9.865,4.223,12.035,14.352,1.656,8.070,10.446,16.670,2.336,9.156
Mon Dec 02 21:01:53 2024,275,-35.419,35.419,25.403,25.403,1.058,12.007,9.872,4.210,12.012,14.285,1.789,7.992,10.383,16.658,2.349,9.115
Mon Dec 02 21:01:53 2024,280,-35.426,35.426,25.320,25.320,1.134,12.205,9.851,4.279,11.860,13.978,2.040,7.780,10.140,16.629,2.346,8.957
Mon Dec 02 21:01:53 2024,285,-35.427,35.427,25.240,25.240,1.190,12.340,9.837,4.328,11.741,13.734,2.260,7.599,9.943,16.605,2.346,8.829
Mon Dec 02 21:01:53 2024,290,-35.319,35.319,25.522,25.522,1.194,12.250,9.803,4.360,11.666,13.658,2.535,7.571,9.956,16.668,2.268,8.808
Mon Dec 02 21:01:53 2024,295,-35.229,35.229,25.755,25.755,1.197,12.176,9.776,4.386,11.604,13.594,2.764,7.542,9.965,16.721,2.203,8.789
Mon Dec 02 21:01:53 2024,300,-35.211,35.211,25.959,25.959,1.164,11.985,9.754,4.398,11.520,13.544,2.926,7.459,9.949,16.774,2.125,8.785
Mon Dec 02 21:01:53 2024,305,-35.247,35.247,26.090,26.090,1.113,11.765,9.741,4.397,11.444,13.515,3.000,7.364,9.919,16.815,2.058,8.792
Mon Dec 02 21:01:53 2024,310,-35.284,35.284,26.223,26.223,1.062,11.540,9.727,4.395,11.366,13.485,3.075,7.266,9.889,16.856,1.990,8.800
Mon Dec 02 21:01:53 2024,315,-35.364,35.364,26.467,26.467,1.100,11.348,9.626,4.563,11.181,13.283,3.208,7.120,9.688,17.011,1.706,8.541
Mon Dec 02 21:01:53 2024,320,-35.419,35.419,26.634,26.634,1.113,11.199,9.563,4.664,11.057,13.157,3.299,7.017,9.563,17.109,1.523,8.386
Mon Dec 02 21:01:53 2024,325,-35.613,35.613,26.818,26.818,1.087,10.864,9.500,4.779,10.833,13.034,3.454,6.744,9.444,17.105,1.414,8.255
Mon Dec 02 21:01:53 2024,330,-35.813,35.813,26.963,26.963,1.052,10.544,9.452,4.871,10.627,12.942,3.594,6.475,9.356,17.067,1.354,8.163
Mon Dec 02 21:01:53 2024,335,-36.061,36.061,27.513,27.513,1.007,10.124,9.396,4.970,10.454,12.809,3.716,6.204,9.187,17.028,1.240,8.000
Mon Dec 02 21:01:53 2024,340,-36.283,36.283,28.263,28.263,0.966,9.742,9.351,5.046,10.363,12.678,3.784,6.015,8.996,17.000,1.111,7.822
Mon Dec 02 21:01:53 2024,345,-36.558,36.558,29.226,29.226,0.904,9.282,9.305,5.147,10.227,12.496,3.852,5.788,8.768,16.973,0.939,7.626
Mon Dec 02 21:01:53 2024,350,-36.726,36.726,30.143,30.143,0.821,8.974,9.314,5.261,10.025,12.268,3.844,5.651,8.620,16.997,0.780,7.581
Mon Dec 02 21:01:53 2024,355,-36.883,36.883,30.938,30.938,0.748,8.718,9.327,5.360,9.844,12.067,3.830,5.538,8.498,17.021,0.640,7.555
Mon Dec 02 21:01:53 2024,360,-36.808,36.808,32.303,32.303,0.685,8.478,9.281,5.504,9.788,11.817,3.765,5.469,8.305,17.156,0.452,7.506
Mon Dec 02 21:01:53 2024,365,-36.646,36.646,34.049,34.049,0.630,8.246,9.199,5.679,9.806,11.532,3.667,5.425,8.066,17.362,0.232,7.442
Mon Dec 02 21:01:53 2024,370,-36.572,36.572,35.375,35.375,0.591,8.070,9.137,5.813,9.816,11.316,3.593,5.392,7.886,17.519,0.064,7.393
Mon Dec 02 21:01:53 2024,375,-34.785,34.785,36.641,36.641,0.449,7.640,8.909,5.978,9.784,10.827,3.329,5.135,7.229,17.257,0.177,7.118
Mon Dec 02 21:01:53 2024,380,-33.590,33.590,37.716,37.716,-0.468,7.304,8.736,6.111,9.760,10.448,3.128,4.937,6.732,17.073,0.244,6.910
Mon Dec 02 21:01:53 2024,385,-32.564,32.564,37.186,37.186,-0.003,7.404,8.890,6.263,9.956,10.306,3.254,4.898,6.310,16.828,0.244,6.501
Mon Dec 02 21:01:53 2024,390,-31.823,31.823,36.621,36.621,0.449,7.526,9.047,6.393,10.125,10.209,3.388,4.879,5.972,16.618,0.232,6.146
Mon Dec 02 21:01:53 2024,395,-31.005,31.005,36.137,36.137,0.464,7.579,9.289,6.507,10.182,10.223,3.424,4.765,5.784,16.330,0.233,5.942
Mon Dec 02 21:01:53 2024,400,-30.168,30.168,36.086,36.086,-0.447,7.404,9.666,6.501,9.908,10.571,3.139,4.427,6.153,15.961,0.281,6.313
Mon Dec 02 21:01:53 2024,405,-29.471,29.471,36.010,36.010,-0.506,7.264,10.022,6.515,9.684,10.864,2.908,4.118,6.431,15.602,0.302,6.601
Mon Dec 02 21:01:53 2024,410,-28.243,28.243,35.156,35.156,-0.911,6.781,10.005,5.859,10.122,10.804,2.302,4.161,6.306,15.365,0.320,6.464
Mon Dec 02 21:01:53 2024,415,-27.386,27.386,34.569,34.569,-1.299,6.396,9.987,5.349,10.452,10.754,1.843,4.184,6.206,15.185,0.329,6.357
Mon Dec 02 21:01:53 2024,420,-26.530,26.530,33.348,33.348,-1.485,6.583,9.887,5.084,10.921,10.629,1.396,4.515,6.117,15.124,0.354,6.129
Mon Dec 02 21:01:53 2024,425,-25.784,25.784,31.760,31.760,-1.484,7.224,9.724,5.034,11.475,10.452,0.998,5.078,6.043,15.163,0.388,5.812
Mon Dec 02 21:01:53 2024,430,-25.261,25.261,30.325,30.325,-1.609,7.717,9.616,4.903,11.940,10.341,0.655,5.566,6.036,15.140,0.417,5.595
Mon Dec 02 21:01:53 2024,435,-24.958,24.958,28.585,28.585,-2.102,7.983,9.616,4.510,12.364,10.367,-0.693,6.014,6.186,14.952,0.440,5.566
Mon Dec 02 21:01:53 2024,440,-24.822,24.822,27.129,27.129,-2.559,8.183,9.621,4.151,12.730,10.396,-1.257,6.370,6.329,14.780,0.457,5.549
Mon Dec 02 21:01:53 2024,445,-24.792,24.792,25.977,25.977,-2.944,8.332,9.625,3.849,13.033,10.420,-1.812,6.639,6.452,14.636,0.466,5.537
Mon Dec 02 21:01:53 2024,450,-24.804,24.804,25.420,25.420,-3.140,8.402,9.628,3.696,13.186,10.433,-2.102,6.764,6.515,14.564,0.470,5.531
Mon Dec 02 21:01:53 2024,455,-24.725,24.725,22.840,22.840,-3.121,8.601,9.498,3.633,13.262,10.333,-2.287,7.054,6.384,14.520,0.596,5.371
Mon Dec 02 21:01:53 2024,460,-24.526,24.526,16.855,16.855,-2.997,9.059,9.181,3.543,13.384,10.083,-2.617,7.696,6.040,14.443,0.903,4.989
Mon Dec 02 21:01:53 2024,465,-24.486,24.486,14.534,14.534,-3.086,9.259,9.074,3.410,13.525,10.006,-2.929,7.975,5.967,14.368,1.011,4.859
Mon Dec 02 21:01:53 2024,470,-24.351,24.351,12.278,12.278,-3.158,9.919,8.829,3.383,13.891,10.045,-3.018,8.393,5.907,14.285,1.326,4.624
Mon Dec 02 21:01:53 2024,475,-24.242,-24.242,10.498,10.498,-3.216,10.499,8.612,3.375,14.205,10.093,-3.062,8.744,5.860,14.219,1.602,4.432
Mon Dec 02 21:01:53 2024,480,-24.019,-24.019,8.961,8.961,-3.207,10.870,8.453,3.402,14.341,10.202,-3.074,8.940,5.918,14.280,1.753,4.406
Mon Dec 02 21:01:53 2024,485,-23.640,-23.640,7.309,7.309,-3.132,11.127,8.316,3.469,14.341,10.392,-3.058,9.032,6.086,14.471,1.817,4.527
Mon Dec 02 21:01:53 2024,490,-23.364,-23.364,6.015,6.015,-3.081,11.341,8.206,3.518,14.353,10.536,-3.049,9.115,6.209,14.609,1.872,4.610
Mon Dec 02 21:01:53 2024,495,-23.231,-23.231,5.138,5.138,-3.183,11.511,8.169,3.460,14.516,10.621,-3.091,9.242,6.232,14.552,2.010,4.584
Mon Dec 02 21:01:53 2024,500,-23.077,-23.077,4.174,4.174,-3.252,11.685,8.117,3.425,14.644,10.718,-3.122,9.357,6.275,14.536,2.128,4.583
Mon Dec 02 21:01:53 2024,505,-22.854,-22.854,3.240,3.240,-3.264,11.881,8.028,3.424,14.677,10.743,-3.224,9.221,6.259,14.518,2.172,4.550
Mon Dec 02 21:01:53 2024,510,-22.668,-22.668,2.504,2.504,-3.263,12.040,7.950,3.430,14.685,10.750,-3.318,9.069,6.237,14.503,2.195,4.519
Mon Dec 02 21:01:53 2024,515,-22.386,-22.386,1.701,1.701,-3.296,12.116,7.875,3.422,14.687,10.780,-3.384,8.999,6.251,14.538,2.210,4.497
Mon Dec 02 21:01:53 2024,520,-21.998,-21.998,-0.876,0.876,-3.373,12.082,7.809,3.398,14.682,10.839,-3.410,9.040,6.311,14.634,2.214,4.489
Mon Dec 02 21:01:53 2024,525,-21.638,-21.638,-0.268,0.268,-3.445,12.049,7.746,3.375,14.678,10.895,-3.434,9.078,6.366,14.724,2.217,4.481
Mon Dec 02 21:01:53 2024,530,-21.342,-21.342,-0.695,-0.695,-3.505,12.021,7.694,3.356,14.673,10.943,-3.455,9.110,6.413,14.799,2.218,4.476
Mon Dec 02 21:01:53 2024,535,-21.225,-21.225,-0.949,-0.949,-3.529,12.009,7.673,3.348,14.671,10.962,-3.463,9.122,6.432,14.830,2.218,4.473
Mon Dec 02 21:01:53 2024,540,-20.366,-20.366,-1.663,-1.663,-3.939,12.022,7.547,3.349,14.727,11.112,-3.486,9.013,6.653,14.729,2.587,4.829
Mon Dec 02 21:01:53 2024,545,-20.042,-20.042,-2.097,-2.097,-4.070,12.008,7.494,3.342,14.741,11.170,-3.500,8.995,6.729,14.728,2.683,4.921
Mon Dec 02 21:01:53 2024,550,-19.603,-19.603,-2.671,-2.671,-4.234,12.014,7.459,3.358,14.725,11.224,-3.519,8.926,6.786,14.687,2.794,4.966
Mon Dec 02 21:01:53 2024,555,-19.135,-19.135,-3.244,-3.244,-4.385,12.060,7.468,3.410,14.665,11.249,-3.540,8.792,6.781,14.593,2.885,4.905
Mon Dec 02 21:01:53 2024,560,-18.695,-18.695,-3.781,-3.781,-4.522,12.108,7.489,3.467,14.596,11.265,-3.561,8.650,6.763,14.491,2.964,4.821
Mon Dec 02 21:01:53 2024,565,-18.287,-18.287,-4.100,-4.100,-4.630,12.219,7.422,3.545,14.575,11.278,-3.545,8.594,6.779,14.406,3.123,4.835
Mon Dec 02 21:01:53 2024,570,-17.788,-17.788,-4.406,-4.406,-4.756,12.386,7.296,3.653,14.570,11.293,-3.508,8.562,6.817,14.307,3.361,4.899
Mon Dec 02 21:01:53 2024,575,-17.296,-17.296,-4.716,-4.716,-4.817,12.588,7.246,3.725,14.535,11.311,-3.432,8.547,6.864,14.268,3.521,4.927
Mon Dec 02 21:01:53 2024,580,-16.852,-16.852,-4.978,-4.978,-4.813,12.811,7.256,3.762,14.484,11.330,-3.326,8.556,6.920,14.286,3.606,4.931
Mon Dec 02 21:01:53 2024,585,-16.503,-16.503,-5.186,-5.186,-4.810,12.984,7.264,3.791,14.444,11.345,-3.242,8.562,6.964,14.300,3.671,4.935
Mon Dec 02 21:01:53 2024,590,-16.181,-16.181,-5.215,-5.215,-4.798,13.334,7.208,3.855,14.466,11.245,-3.123,8.562,6.926,14.149,3.920,4.913
Mon Dec 02 21:01:53 2024,595,-15.932,-15.932,-5.227,-5.227,-4.786,13.619,7.156,3.910,14.488,11.155,-3.023,8.561,6.890,14.014,4.134,4.894
Mon Dec 02 21:01:53 2024,600,-15.699,-15.699,-5.387,-5.387,-4.733,13.908,7.084,3.948,14.480,11.065,-2.933,8.582,6.833,13.885,4.329,4.850
Mon Dec 02 21:01:53 2024,605,-15.502,-15.502,-5.648,-5.648,-4.650,14.180,7.003,3.971,14.449,10.981,-2.856,8.618,6.766,13.770,4.496,4.789
Mon Dec 02 21:01:53 2024,610,-15.377,-15.377,-5.848,-5.848,-4.571,14.453,6.946,4.012,14.417,10.923,-2.767,8.654,6.724,13.662,4.658,4.751
Mon Dec 02 21:01:53 2024,615,-15.438,-15.438,-5.919,-5.919,-4.475,14.795,6.967,4.128,14.359,10.952,-2.625,8.704,6.766,13.563,4.822,4.778
Mon Dec 02 21:01:53 2024,620,-15.498,-15.498,-5.977,-5.977,-4.401,15.042,6.981,4.216,14.313,10.974,-2.516,8.741,6.797,13.487,4.948,4.798
Mon Dec 02 21:01:53 2024,625,-15.591,-15.591,-6.211,-6.211,-4.350,15.262,6.958,4.239,14.300,10.880,-2.488,8.804,6.765,13.340,5.156,4.788
