Timestamp,Millis,thumb_tm_aa,thumb_tm_flex,thumb_mcp_aa,thumb_mcp_flex,index_mcp_aa,index_mcp_flex,index_pip,middle_mcp_aa,middle_mcp_flex,middle_pip,ring_mcp_aa,ring_mcp_flex,ring_pip,little_mcp_aa,little_mcp_flex,little_pip
Mon Dec 02 21:05:54 2024,300,-24.892,-24.892,5.766,5.766,-0.939,21.492,7.589,1.158,17.562,9.389,-5.695,11.797,7.166,7.969,10.761,6.229
Mon Dec 02 21:05:54 2024,305,-24.932,-24.932,5.737,5.737,-1.056,21.611,7.555,1.082,17.627,9.317,-5.792,11.741,7.085,7.953,10.861,6.276
Mon Dec 02 21:05:54 2024,310,-24.966,-24.966,5.714,5.714,-1.160,21.721,7.525,1.015,17.690,9.252,-5.878,11.696,7.015,7.943,10.949,6.323
Mon Dec 02 21:05:54 2024,315,-24.997,-24.997,5.732,5.732,-1.191,21.707,7.521,1.013,17.652,9.258,-5.815,11.757,7.043,7.986,10.895,6.337
Mon Dec 02 21:05:54 2024,320,-25.024,-25.024,5.756,5.756,-1.204,21.671,7.524,1.024,17.598,9.277,-5.729,11.833,7.088,8.034,10.819,6.344
Mon Dec 02 21:05:54 2024,325,-25.060,-25.060,5.769,5.769,-1.233,21.664,7.527,1.017,17.536,9.249,-5.719,11.829,7.072,8.030,10.800,6.335
Mon Dec 02 21:05:54 2024,330,-25.109,-25.109,5.762,5.762,-1.285,21.700,7.530,0.984,17.463,9.148,-5.830,11.698,6.962,7.941,10.872,6.301
Mon Dec 02 21:05:54 2024,335,-25.151,-25.151,5.733,5.733,-1.343,21.726,7.520,0.939,17.390,9.061,-5.934,11.582,6.870,7.849,10.933,6.254
Mon Dec 02 21:05:54 2024,340,-25.174,-25.174,5.658,5.658,-1.407,21.722,7.482,0.875,17.334,9.024,-6.000,11.525,6.838,7.768,10.956,6.184
Mon Dec 02 21:05:54 2024,345,-25.180,-25.180,5.552,5.552,-1.474,21.706,7.423,0.800,17.290,9.026,-6.038,11.512,6.851,7.697,10.947,6.100
Mon Dec 02 21:05:54 2024,350,-25.208,-25.208,5.478,5.478,-1.543,21.730,7.365,0.749,17.290,9.011,-6.080,11.447,6.821,7.674,10.935,6.039
Mon Dec 02 21:05:54 2024,355,-25.257,-25.257,5.449,5.449,-1.609,21.787,7.314,0.732,17.339,8.982,-6.124,11.331,6.749,7.703,10.924,6.010
Mon Dec 02 21:05:54 2024,360,-25.298,-25.298,5.411,5.411,-1.671,21.838,7.263,0.715,17.372,8.949,-6.165,11.220,6.679,7.724,10.912,5.980
Mon Dec 02 21:05:54 2024,365,-25.259,-25.259,5.293,5.293,-1.683,21.816,7.217,0.709,17.235,8.869,-6.181,11.164,6.626,7.654,10.896,5.938
Mon Dec 02 21:05:54 2024,370,-25.214,-25.214,5.158,5.158,-1.698,21.794,7.164,0.702,17.078,8.779,-6.198,11.100,6.566,7.576,10.874,5.890
Mon Dec 02 21:05:54 2024,375,-25.230,-25.230,5.104,5.104,-1.755,21.822,7.128,0.687,16.984,8.718,-6.262,10.976,6.494,7.496,10.883,5.844
Mon Dec 02 21:05:54 2024,380,-25.284,-25.284,5.104,5.104,-1.838,21.880,7.102,0.668,16.934,8.678,-6.352,10.819,6.418,7.421,10.911,5.802
Mon Dec 02 21:05:54 2024,385,-25.334,-25.334,5.091,5.091,-1.917,21.940,7.074,0.651,16.886,8.648,-6.426,10.675,6.357,7.366,10.915,5.765
Mon Dec 02 21:05:54 2024,390,-25.340,-25.340,5.020,5.020,-1.943,21.954,7.036,0.647,16.874,8.679,-6.385,10.663,6.391,7.445,10.801,5.776
Mon Dec 02 21:05:54 2024,395,-25.342,-25.342,4.949,4.949,-1.960,21.964,7.001,0.644,16.866,8.713,-6.335,10.664,6.433,7.531,10.685,5.790
Mon Dec 02 21:05:54 2024,400,-25.416,-25.416,4.942,4.942,-2.061,22.066,6.931,0.626,16.861,8.729,-6.359,10.531,6.394,7.531,10.625,5.758
Mon Dec 02 21:05:54 2024,405,-25.518,-25.518,4.981,4.981,-2.187,22.222,6.858,0.600,16.859,8.730,-6.427,10.347,6.311,7.474,10.620,5.704
Mon Dec 02 21:05:54 2024,410,-25.601,-25.601,5.002,5.002,-2.300,17.618,6.789,0.571,16.884,8.710,-6.460,10.248,6.248,7.425,10.603,5.633
Mon Dec 02 21:05:54 2024,415,-25.617,-25.617,4.965,4.965,-2.351,17.562,6.733,0.530,16.993,8.624,-6.376,10.445,6.252,7.411,10.550,5.512
Mon Dec 02 21:05:54 2024,420,-25.625,-25.625,4.922,4.922,-2.396,17.520,6.678,0.488,17.112,8.532,-6.280,10.673,6.264,7.400,10.491,5.387
Mon Dec 02 21:05:54 2024,425,-25.628,-25.628,4.892,4.892,-2.430,17.484,6.669,0.444,17.105,8.507,-6.283,10.684,6.278,7.399,10.483,5.382
Mon Dec 02 21:05:54 2024,430,-25.628,-25.628,4.873,4.873,-2.456,17.457,6.682,0.405,17.036,8.519,-6.336,10.584,6.292,7.402,10.501,5.439
Mon Dec 02 21:05:54 2024,435,-25.621,-25.621,4.831,4.831,-2.459,17.456,6.721,0.393,16.947,8.529,-6.353,10.531,6.314,7.427,10.480,5.474
Mon Dec 02 21:05:54 2024,440,-25.601,-25.601,4.757,4.757,-2.418,17.504,6.793,0.438,16.852,8.533,-6.296,10.583,6.345,7.485,10.391,5.457
Mon Dec 02 21:05:54 2024,445,-25.579,-25.579,4.670,4.670,-2.370,17.560,6.878,0.490,16.740,8.537,-6.229,10.644,6.380,7.553,10.287,5.436
Mon Dec 02 21:05:54 2024,450,-25.593,-25.593,4.652,4.652,-2.411,17.508,6.861,0.449,16.671,8.537,-6.260,10.630,6.422,7.581,10.304,5.498
Mon Dec 02 21:05:54 2024,455,-25.619,-25.619,4.659,4.659,-2.477,17.422,6.810,0.382,16.621,8.536,-6.322,10.591,6.461,7.592,10.361,5.583
Mon Dec 02 21:05:54 2024,460,-25.645,-25.645,4.652,4.652,-2.535,17.356,6.777,0.347,16.613,8.532,-6.351,10.572,6.474,7.613,10.395,5.630
Mon Dec 02 21:05:54 2024,465,-25.669,-25.669,4.616,4.616,-2.571,17.341,6.784,0.388,16.698,8.525,-6.304,10.600,6.429,7.657,10.379,5.594
Mon Dec 02 21:05:54 2024,470,-25.691,-25.691,4.581,4.581,-2.601,20.893,6.795,0.432,16.782,8.517,-6.255,10.628,6.382,7.698,10.360,5.553
Mon Dec 02 21:05:54 2024,475,-25.713,-25.713,4.628,4.628,-2.577,17.346,6.768,0.456,16.704,8.486,-6.284,10.535,6.333,7.719,10.316,5.527
Mon Dec 02 21:05:54 2024,480,-25.734,-25.734,4.692,4.692,-2.542,17.367,6.732,0.476,16.594,8.450,-6.328,10.416,6.282,7.736,10.268,5.504
Mon Dec 02 21:05:54 2024,485,-25.738,-25.738,4.686,4.686,-2.539,17.352,6.706,0.464,16.502,8.414,-6.386,10.291,6.226,7.740,10.238,5.485
Mon Dec 02 21:05:54 2024,490,-25.718,-25.718,4.568,4.568,-2.584,17.273,6.683,0.399,16.403,8.364,-6.489,10.106,6.137,7.725,10.224,5.465
Mon Dec 02 21:05:54 2024,495,-25.700,-25.700,4.464,4.464,-2.624,17.200,6.663,0.340,16.314,8.321,-6.580,9.942,6.060,7.711,10.212,5.447
Mon Dec 02 21:05:54 2024,500,-25.751,-25.751,4.511,4.511,-2.643,17.165,6.633,0.349,16.266,8.243,-6.588,9.870,5.969,7.690,10.122,5.351
Mon Dec 02 21:05:54 2024,505,-25.801,-25.801,4.567,4.567,-2.656,17.141,6.608,0.365,16.232,8.176,-6.585,9.822,5.894,7.672,10.038,5.265
Mon Dec 02 21:05:54 2024,510,-25.826,-25.826,4.548,4.548,-2.682,17.117,6.592,0.366,16.227,8.148,-6.589,9.786,5.849,7.695,9.973,5.223
Mon Dec 02 21:05:54 2024,515,-25.818,-25.818,4.440,4.440,-2.717,17.096,6.589,0.349,16.260,8.171,-6.601,9.771,5.851,7.764,9.944,5.244
Mon Dec 02 21:05:54 2024,520,-25.808,-25.808,4.310,4.310,-2.760,17.070,6.585,0.329,16.300,8.201,-6.615,9.753,5.853,7.846,9.909,5.270
Mon Dec 02 21:05:54 2024,525,-25.836,-25.836,4.373,4.373,-2.759,17.066,6.544,0.376,16.418,8.235,-6.577,9.810,5.887,7.860,9.921,5.281
Mon Dec 02 21:05:54 2024,530,-25.871,-25.871,4.452,4.452,-2.758,17.062,6.492,0.436,16.562,8.278,-6.531,9.882,5.928,7.878,9.936,5.294
Mon Dec 02 21:05:54 2024,535,-25.871,-25.871,4.469,4.469,-2.738,17.071,6.510,0.462,16.576,8.323,-6.528,9.878,5.958,7.892,9.930,5.315
Mon Dec 02 21:05:54 2024,540,-25.835,-25.835,4.429,4.429,-2.691,17.101,6.607,0.465,16.459,8.391,-6.567,9.792,5.988,7.908,9.899,5.349
Mon Dec 02 21:05:54 2024,545,-25.808,-25.808,4.398,4.398,-2.655,17.123,6.681,0.468,16.371,8.443,-6.596,9.727,6.011,7.920,9.876,5.376
Mon Dec 02 21:05:54 2024,550,-25.840,-25.840,4.425,4.425,-2.612,17.157,6.670,0.480,16.339,8.461,-6.549,9.777,6.035,7.970,9.896,5.404
Mon Dec 02 21:05:54 2024,555,-25.868,-25.868,4.450,4.450,-2.577,17.184,6.656,0.492,16.318,8.473,-6.507,9.822,6.055,8.014,9.913,5.427
Mon Dec 02 21:05:54 2024,560,-25.867,-25.867,4.438,4.438,-2.520,17.254,6.674,0.528,16.312,8.495,-6.479,9.863,6.076,8.047,9.875,5.417
Mon Dec 02 21:05:54 2024,565,-25.840,-25.840,4.395,4.395,-2.452,17.352,6.716,0.582,16.322,8.521,-6.469,9.894,6.092,8.066,9.790,5.380
Mon Dec 02 21:05:54 2024,570,-25.818,-25.818,4.338,4.338,-2.408,17.415,6.754,0.625,16.333,8.548,-6.474,9.895,6.093,8.098,9.715,5.352
Mon Dec 02 21:05:54 2024,575,-25.825,-25.825,4.262,4.262,-2.457,17.344,6.763,0.609,16.345,8.564,-6.523,9.796,6.039,8.157,9.701,5.372
Mon Dec 02 21:05:54 2024,580,-25.836,-25.836,4.180,4.180,-2.521,17.252,6.768,0.584,16.359,8.580,-6.581,9.680,5.976,8.222,9.693,5.399
Mon Dec 02 21:05:54 2024,585,-25.839,-25.839,4.196,4.196,-2.516,17.238,6.731,0.560,16.302,8.513,-6.595,9.624,5.927,8.244,9.655,5.384
Mon Dec 02 21:05:54 2024,590,-25.840,-25.840,4.263,4.263,-2.475,17.264,6.670,0.534,16.209,8.401,-6.586,9.598,5.885,8.242,9.602,5.348
Mon Dec 02 21:05:54 2024,595,-25.837,-25.837,4.307,4.307,-2.451,17.278,6.637,0.513,16.153,8.346,-6.577,9.593,5.871,8.247,9.563,5.330
Mon Dec 02 21:05:54 2024,600,-25.827,-25.827,4.307,4.307,-2.465,17.264,6.676,0.493,16.188,8.443,-6.563,9.651,5.942,8.275,9.554,5.366
Mon Dec 02 21:05:54 2024,605,-25.819,-25.819,4.307,4.307,-2.477,17.252,6.709,0.475,16.217,8.525,-6.552,9.700,6.003,8.299,9.546,5.396
Mon Dec 02 21:05:54 2024,610,-25.838,-25.838,4.339,4.339,-2.485,17.245,6.719,0.410,16.180,8.535,-6.592,9.663,6.018,8.291,9.600,5.439
Mon Dec 02 21:05:54 2024,615,-25.868,-25.868,4.383,4.383,-2.490,17.242,6.716,0.332,16.115,8.511,-6.649,9.592,6.009,8.269,9.673,5.482
Mon Dec 02 21:05:54 2024,620,-25.872,-25.872,4.402,4.402,-2.483,17.268,6.733,0.292,16.108,8.528,-6.656,9.604,6.031,8.288,9.718,5.526
Mon Dec 02 21:05:54 2024,625,-25.820,-25.820,4.372,4.372,-2.451,17.350,6.789,0.330,16.219,8.628,-6.562,9.784,6.115,8.388,9.701,5.569
Mon Dec 02 21:05:54 2024,630,-25.771,-25.771,4.342,4.342,-2.421,17.420,6.839,0.369,16.323,8.721,-6.473,9.950,6.191,8.479,9.679,5.604
Mon Dec 02 21:05:54 2024,635,-25.774,-25.774,4.350,4.350,-2.412,17.430,6.846,0.394,16.299,8.712,-6.464,9.952,6.176,8.448,9.657,5.564
Mon Dec 02 21:05:54 2024,640,-25.791,-25.791,4.367,4.367,-2.407,17.424,6.840,0.417,16.241,8.675,-6.476,9.910,6.138,8.384,9.633,5.505
Mon Dec 02 21:05:54 2024,645,-25.810,-25.810,4.383,4.383,-2.379,17.454,6.838,0.451,16.268,8.684,-6.472,9.910,6.108,8.375,9.596,5.446
Mon Dec 02 21:05:54 2024,650,-25.830,-25.830,4.393,4.393,-2.325,17.527,6.838,0.494,16.407,8.753,-6.446,9.967,6.094,8.442,9.549,5.399
Mon Dec 02 21:05:54 2024,655,-25.852,-25.852,4.403,4.403,-2.279,17.586,6.828,0.531,16.538,8.808,-6.428,10.006,6.068,8.502,9.506,5.352
Mon Dec 02 21:05:54 2024,660,-25.888,-25.888,4.414,4.414,-2.318,17.522,6.744,0.510,16.588,8.731,-6.468,9.880,5.948,8.490,9.519,5.315
Mon Dec 02 21:05:54 2024,665,-25.924,-25.924,4.425,4.425,-2.377,17.428,6.643,0.474,16.616,8.623,-6.521,9.715,5.811,8.460,9.546,5.280
Mon Dec 02 21:05:54 2024,670,-25.942,-25.942,4.428,4.428,-2.388,17.402,6.612,0.459,16.571,8.551,-6.544,9.637,5.752,8.452,9.532,5.269
Mon Dec 02 21:05:54 2024,675,-25.936,-25.936,4.420,4.420,-2.350,17.451,6.653,0.466,16.464,8.528,-6.533,9.658,5.783,8.470,9.481,5.282
Mon Dec 02 21:05:54 2024,680,-25.932,-25.932,4.403,4.403,-2.318,17.492,6.701,0.464,16.357,8.512,-6.521,9.696,5.827,8.499,9.432,5.303
Mon Dec 02 21:05:54 2024,685,-25.938,-25.938,4.345,4.345,-2.364,17.438,6.724,0.406,16.375,8.565,-6.526,9.792,5.905,8.566,9.461,5.350
Mon Dec 02 21:05:54 2024,690,-25.946,-25.946,4.281,4.281,-2.418,17.370,6.745,0.341,16.408,8.626,-6.535,9.893,5.987,8.636,9.498,5.400
Mon Dec 02 21:05:54 2024,695,-25.955,-25.955,4.290,4.290,-2.450,17.325,6.764,0.330,16.422,8.670,-6.546,9.932,6.028,8.657,9.538,5.440
Mon Dec 02 21:05:54 2024,700,-25.965,-25.965,4.360,4.360,-2.459,17.303,6.780,0.366,16.419,8.695,-6.559,9.913,6.030,8.631,9.579,5.465
Mon Dec 02 21:05:54 2024,705,-25.971,-25.971,4.414,4.414,-2.466,17.288,6.790,0.389,16.418,8.712,-6.567,9.901,6.031,8.611,9.615,5.492
Mon Dec 02 21:05:54 2024,710,-25.966,-25.966,4.432,4.432,-2.475,17.313,6.786,0.355,16.421,8.691,-6.561,9.916,6.026,8.606,9.668,5.547
Mon Dec 02 21:05:54 2024,715,-25.960,-25.960,4.445,4.445,-2.482,17.335,6.780,0.321,16.424,8.669,-6.554,9.931,6.022,8.604,9.715,5.597
Mon Dec 02 21:05:54 2024,720,-25.929,-25.929,4.416,4.416,-2.472,17.373,6.843,0.300,16.412,8.707,-6.516,10.066,6.095,8.598,9.763,5.623
Mon Dec 02 21:05:54 2024,725,-25.893,-25.893,4.373,4.373,-2.454,17.412,6.926,0.289,16.395,8.764,-6.471,10.230,6.193,8.592,9.803,5.633
Mon Dec 02 21:05:54 2024,730,-25.852,-25.852,4.329,4.329,-2.422,17.465,7.007,0.288,16.361,8.826,-6.440,10.341,6.269,8.578,9.833,5.630
Mon Dec 02 21:05:54 2024,735,-25.823,-25.823,4.311,4.311,-2.352,17.541,7.017,0.323,16.280,8.862,-6.491,10.159,6.208,8.539,9.801,5.571
Mon Dec 02 21:05:54 2024,740,-25.795,-25.795,4.295,4.295,-2.283,17.615,7.027,0.359,16.201,8.900,-6.541,9.978,6.147,8.502,9.769,5.515
Mon Dec 02 21:05:54 2024,745,-25.807,-25.807,4.344,4.344,-2.284,17.616,7.028,0.394,16.274,8.942,-6.552,9.933,6.110,8.546,9.762,5.540
Mon Dec 02 21:05:54 2024,750,-25.837,-25.837,4.423,4.423,-2.313,17.586,7.024,0.429,16.413,8.990,-6.546,9.944,6.081,8.627,9.763,5.600
Mon Dec 02 21:05:54 2024,755,-25.855,-25.855,4.465,4.465,-2.313,17.582,7.022,0.448,16.510,9.041,-6.545,9.974,6.081,8.683,9.755,5.643
Mon Dec 02 21:05:54 2024,760,-25.847,-25.847,4.428,4.428,-2.256,17.630,7.024,0.428,16.507,9.090,-6.554,10.032,6.138,8.683,9.736,5.641
Mon Dec 02 21:05:54 2024,765,-25.839,-25.839,4.395,4.395,-2.205,17.672,7.025,0.410,16.504,9.134,-6.561,10.085,6.189,8.682,9.719,5.640
Mon Dec 02 21:05:54 2024,770,-25.856,-25.856,4.378,4.378,-2.223,17.658,7.030,0.404,16.498,9.117,-6.516,10.142,6.212,8.660,9.727,5.616
Mon Dec 02 21:05:54 2024,775,-25.880,-25.880,4.372,4.372,-2.268,17.623,7.036,0.404,16.491,9.077,-6.454,10.195,6.220,8.631,9.744,5.585
Mon Dec 02 21:05:54 2024,780,-25.891,-25.891,4.378,4.378,-2.278,17.633,7.062,0.406,16.459,9.032,-6.411,10.239,6.228,8.662,9.707,5.571
Mon Dec 02 21:05:54 2024,785,-25.884,-25.884,4.400,4.400,-2.238,19.221,7.114,0.411,16.397,8.986,-6.397,10.266,6.233,8.771,9.598,5.582
Mon Dec 02 21:05:54 2024,790,-25.874,-25.874,4.419,4.419,-2.198,22.234,7.162,0.419,16.336,8.946,-6.378,10.294,6.241,8.878,9.490,5.590
Mon Dec 02 21:05:54 2024,795,-25.846,-25.846,4.398,4.398,-2.185,22.234,7.154,0.450,16.330,8.974,-6.345,10.308,6.255,8.895,9.466,5.578
Mon Dec 02 21:05:54 2024,800,-25.810,-25.810,4.369,4.369,-2.175,17.751,7.133,0.492,16.334,9.016,-6.305,10.321,6.270,8.897,9.453,5.558
Mon Dec 02 21:05:54 2024,805,-25.792,-25.792,4.370,4.370,-2.154,17.767,7.128,0.524,16.356,9.021,-6.277,10.351,6.254,8.924,9.425,5.515
Mon Dec 02 21:05:54 2024,810,-25.797,-25.797,4.419,4.419,-2.111,17.834,7.144,0.548,16.408,8.969,-6.261,10.411,6.188,8.991,9.369,5.430
Mon Dec 02 21:05:54 2024,815,-25.800,-25.800,4.460,4.460,-2.077,22.113,7.157,0.566,16.476,8.932,-6.251,10.474,6.134,9.057,9.324,5.362
Mon Dec 02 21:05:54 2024,820,-25.787,-25.787,4.440,4.440,-2.116,22.146,7.150,0.541,16.620,8.998,-6.273,10.532,6.173,9.087,9.371,5.425
Mon Dec 02 21:05:54 2024,825,-25.771,-25.771,4.414,4.414,-2.165,22.191,7.140,0.510,16.778,9.078,-6.300,10.588,6.225,9.110,9.430,5.507
Mon Dec 02 21:05:54 2024,830,-25.782,-25.782,4.428,4.428,-2.182,22.206,7.183,0.518,16.876,9.183,-6.289,10.626,6.286,9.136,9.434,5.538
Mon Dec 02 21:05:54 2024,835,-25.813,-25.813,4.477,4.477,-2.175,22.197,7.267,0.557,16.929,9.310,-6.249,10.649,6.354,9.161,9.397,5.532
Mon Dec 02 21:05:54 2024,840,-25.843,-25.843,4.527,4.527,-2.174,22.196,7.334,0.589,16.984,9.436,-6.207,10.689,6.431,9.177,9.378,5.536
Mon Dec 02 21:05:54 2024,845,-25.818,-25.818,4.519,4.519,-2.217,22.249,7.212,0.534,16.976,9.385,-6.203,10.783,6.463,9.108,9.493,5.593
Mon Dec 02 21:05:54 2024,850,-25.790,-25.790,4.510,4.510,-2.267,22.312,7.070,0.469,16.966,9.325,-6.199,10.892,6.501,9.027,9.626,5.661
Mon Dec 02 21:05:54 2024,855,-25.787,-25.787,4.495,4.495,-2.278,22.326,7.035,0.442,16.967,9.307,-6.189,10.922,6.512,9.006,9.678,5.698
Mon Dec 02 21:05:54 2024,860,-25.801,-25.801,4.475,4.475,-2.265,22.310,7.064,0.435,16.976,9.313,-6.174,10.905,6.510,9.020,9.680,5.719
Mon Dec 02 21:05:54 2024,865,-25.809,-25.809,4.461,4.461,-2.242,22.280,7.099,0.450,16.980,9.319,-6.142,10.919,6.513,9.048,9.667,5.729
Mon Dec 02 21:05:54 2024,870,-25.794,-25.794,4.474,4.474,-2.184,22.208,7.151,0.545,16.958,9.318,-6.050,11.042,6.535,9.119,9.601,5.698
Mon Dec 02 21:05:54 2024,875,-25.777,-25.777,4.488,4.488,-2.124,22.136,7.204,0.647,16.932,9.316,-5.953,11.176,6.559,9.196,9.530,5.664
Mon Dec 02 21:05:54 2024,880,-25.778,-25.778,4.467,4.467,-2.139,22.151,7.221,0.673,16.938,9.319,-5.959,11.163,6.548,9.238,9.508,5.679
Mon Dec 02 21:05:54 2024,885,-25.785,-25.785,4.438,4.438,-2.175,22.191,7.224,0.673,16.953,9.323,-5.996,11.108,6.528,9.265,9.505,5.707
Mon Dec 02 21:05:54 2024,890,-25.790,-25.790,4.404,4.404,-2.204,22.223,7.221,0.670,16.960,9.331,-6.023,11.068,6.519,9.294,9.496,5.739
Mon Dec 02 21:05:54 2024,895,-25.779,-25.779,4.332,4.332,-2.180,22.201,7.188,0.651,16.915,9.364,-5.983,11.132,6.580,9.344,9.454,5.790
Mon Dec 02 21:05:54 2024,900,-25.771,-25.771,4.271,4.271,-2.161,22.183,7.160,0.634,16.877,9.391,-5.951,11.186,6.631,9.387,9.419,5.834
Mon Dec 02 21:05:54 2024,905,-25.817,-25.817,4.336,4.336,-2.169,22.192,7.231,0.647,16.919,9.475,-5.934,11.236,6.708,9.445,9.390,5.890
Mon Dec 02 21:05:54 2024,910,-25.871,-25.871,4.425,4.425,-2.185,22.207,7.317,0.667,16.975,9.559,-5.925,11.274,6.777,9.496,9.368,5.938
Mon Dec 02 21:05:54 2024,915,-25.883,-25.883,4.441,4.441,-2.184,22.206,7.363,0.679,17.020,9.622,-5.930,11.275,6.816,9.528,9.360,5.982
Mon Dec 02 21:05:54 2024,920,-25.799,-25.799,4.291,4.291,-2.144,22.173,7.304,0.668,17.021,9.617,-5.965,11.196,6.775,9.508,9.387,6.004
Mon Dec 02 21:05:54 2024,925,-25.737,-25.737,4.179,4.179,-2.115,22.148,7.260,0.660,17.022,9.614,-5.990,11.138,6.744,9.493,9.408,6.021
Mon Dec 02 21:05:54 2024,930,-25.717,-25.717,4.178,4.178,-2.080,22.107,7.255,0.715,17.101,9.640,-6.017,11.090,6.723,9.497,9.375,5.959
Mon Dec 02 21:05:54 2024,935,-25.716,-25.716,4.217,4.217,-2.050,22.068,7.264,0.784,17.192,9.673,-6.041,11.054,6.708,9.506,9.329,5.878
Mon Dec 02 21:05:54 2024,940,-25.715,-25.715,4.226,4.226,-2.039,22.055,7.264,0.799,17.188,9.662,-6.062,11.002,6.680,9.506,9.300,5.819
Mon Dec 02 21:05:54 2024,945,-25.714,-25.714,4.198,4.198,-2.058,22.078,7.253,0.742,17.074,9.601,-6.072,10.952,6.648,9.495,9.304,5.810
Mon Dec 02 21:05:54 2024,950,-25.715,-25.715,4.181,4.181,-2.072,22.096,7.235,0.687,16.964,9.532,-6.078,10.904,6.607,9.486,9.304,5.793
Mon Dec 02 21:05:54 2024,955,-25.731,-25.731,4.250,4.250,-2.050,22.067,7.191,0.693,16.996,9.467,-6.048,10.899,6.532,9.496,9.285,5.738
Mon Dec 02 21:05:54 2024,960,-25.749,-25.749,4.329,4.329,-2.022,22.032,7.145,0.708,17.048,9.405,-6.014,10.902,6.454,9.510,9.264,5.679
Mon Dec 02 21:05:54 2024,965,-25.768,-25.768,4.378,4.378,-2.001,22.009,7.174,0.734,17.072,9.409,-5.973,10.956,6.454,9.545,9.236,5.662
Mon Dec 02 21:05:54 2024,970,-25.782,-25.782,4.392,4.392,-1.991,22.000,7.254,0.762,17.069,9.465,-5.934,11.038,6.515,9.589,9.211,5.680
Mon Dec 02 21:05:54 2024,975,-25.795,-25.795,4.402,4.402,-1.980,21.989,7.341,0.794,17.067,9.528,-5.891,11.133,6.582,9.639,9.184,5.703
Mon Dec 02 21:05:54 2024,980,-25.724,-25.724,4.318,4.318,-1.981,21.988,7.320,0.838,17.140,9.576,-5.866,11.206,6.618,9.666,9.212,5.717
Mon Dec 02 21:05:54 2024,985,-25.667,-25.667,4.251,4.251,-1.982,21.987,7.305,0.874,17.195,9.614,-5.846,11.262,6.645,9.687,9.232,5.729
Mon Dec 02 21:05:54 2024,990,-25.644,-25.644,4.274,4.274,-1.973,21.977,7.315,0.913,17.195,9.637,-5.821,11.338,6.693,9.727,9.232,5.781
Mon Dec 02 21:05:54 2024,995,-25.653,-25.653,4.361,4.361,-1.960,21.962,7.342,0.943,17.150,9.639,-5.799,11.405,6.741,9.770,9.216,5.848
Mon Dec 02 21:05:55 2024,0,-25.660,-25.660,4.423,4.423,-1.953,21.953,7.368,0.977,17.141,9.653,-5.778,11.468,6.785,9.826,9.191,5.907
Mon Dec 02 21:05:55 2024,5,-25.647,-25.647,4.382,4.382,-1.966,21.966,7.388,1.017,17.255,9.701,-5.763,11.509,6.798,9.917,9.144,5.920
Mon Dec 02 21:05:55 2024,10,-25.636,-25.636,4.335,4.335,-1.980,21.980,7.408,1.058,17.372,9.753,-5.747,11.546,6.811,10.009,9.093,5.931
Mon Dec 02 21:05:55 2024,15,-25.643,-25.643,4.324,4.324,-1.979,21.979,7.421,1.076,17.391,9.792,-5.719,11.547,6.842,10.046,9.068,5.966
Mon Dec 02 21:05:55 2024,20,-25.665,-25.665,4.340,4.340,-1.969,21.969,7.431,1.079,17.341,9.824,-5.680,11.519,6.888,10.046,9.062,6.020
Mon Dec 02 21:05:55 2024,25,-25.674,-25.674,4.340,4.340,-1.958,21.960,7.432,1.082,17.296,9.837,-5.645,11.514,6.923,10.052,9.048,6.042
Mon Dec 02 21:05:55 2024,30,-25.650,-25.650,4.311,4.311,-1.953,21.954,7.416,1.084,17.281,9.804,-5.635,11.557,6.917,10.071,9.025,5.987
Mon Dec 02 21:05:55 2024,35,-25.622,-25.622,4.283,4.283,-1.946,21.947,7.402,1.082,17.260,9.770,-5.629,11.599,6.908,10.092,9.002,5.933
Mon Dec 02 21:05:55 2024,40,-25.604,-25.604,4.286,4.286,-1.935,21.935,7.411,1.055,17.232,9.757,-5.643,11.597,6.896,10.099,9.008,5.935
Mon Dec 02 21:05:55 2024,45,-25.587,-25.587,4.310,4.310,-1.919,21.918,7.438,1.005,17.192,9.756,-5.673,11.566,6.877,10.100,9.034,5.973
Mon Dec 02 21:05:55 2024,50,-25.582,-25.582,4.326,4.326,-1.911,21.910,7.445,0.975,17.187,9.761,-5.705,11.528,6.863,10.081,9.060,5.988
Mon Dec 02 21:05:55 2024,55,-25.594,-25.594,4.327,4.327,-1.916,21.917,7.424,0.981,17.232,9.774,-5.729,11.492,6.858,10.043,9.078,5.965
Mon Dec 02 21:05:55 2024,60,-25.609,-25.609,4.327,4.327,-1.921,21.928,7.399,0.987,17.286,9.789,-5.756,11.449,6.852,9.997,9.098,5.939
Mon Dec 02 21:05:55 2024,65,-25.601,-25.601,4.289,4.289,-1.888,21.890,7.419,0.995,17.303,9.805,-5.723,11.466,6.849,10.065,9.032,5.913
Mon Dec 02 21:05:55 2024,70,-25.589,-25.589,4.245,4.245,-1.851,21.850,7.446,1.003,17.313,9.819,-5.680,11.491,6.846,10.150,8.955,5.889
Mon Dec 02 21:05:55 2024,75,-25.577,-25.577,4.226,4.226,-1.838,21.838,7.431,1.013,17.318,9.809,-5.658,11.494,6.828,10.175,8.929,5.869
Mon Dec 02 21:05:55 2024,80,-25.566,-25.566,4.246,4.246,-1.864,21.864,7.348,1.023,17.319,9.758,-5.668,11.459,6.786,10.103,8.988,5.855
Mon Dec 02 21:05:55 2024,85,-25.559,-25.559,4.257,4.257,-1.882,21.885,7.301,1.033,17.314,9.730,-5.672,11.445,6.768,10.065,9.017,5.846
Mon Dec 02 21:05:55 2024,90,-25.558,-25.558,4.237,4.237,-1.884,21.889,7.353,1.054,17.275,9.768,-5.647,11.496,6.821,10.115,8.963,5.839
Mon Dec 02 21:05:55 2024,95,-25.559,-25.559,4.208,4.208,-1.879,21.885,7.442,1.076,17.226,9.830,-5.614,11.570,6.901,10.199,8.879,5.833
Mon Dec 02 21:05:55 2024,100,-25.561,-25.561,4.212,4.212,-1.884,21.887,7.478,1.076,17.254,9.877,-5.595,11.640,6.956,10.273,8.844,5.876
Mon Dec 02 21:05:55 2024,105,-25.562,-25.562,4.249,4.249,-1.898,21.898,7.446,1.052,17.346,9.888,-5.600,11.675,6.964,10.306,8.872,5.950
Mon Dec 02 21:05:55 2024,110,-25.559,-25.559,4.271,4.271,-1.909,21.908,7.419,1.041,17.416,9.910,-5.604,11.696,6.973,10.327,8.892,6.009
Mon Dec 02 21:05:55 2024,115,-25.535,-25.535,4.231,4.231,-1.907,21.906,7.414,1.074,17.407,9.968,-5.605,11.669,6.989,10.310,8.886,6.012
Mon Dec 02 21:05:55 2024,120,-25.510,-25.510,4.185,4.185,-1.903,21.904,7.413,1.112,17.383,10.027,-5.605,11.634,7.005,10.287,8.876,6.003
Mon Dec 02 21:05:55 2024,125,-25.514,-25.514,4.138,4.138,-1.887,21.889,7.429,1.114,17.347,10.020,-5.610,11.607,6.982,10.281,8.853,5.964
Mon Dec 02 21:05:55 2024,130,-25.545,-25.545,4.096,4.096,-1.862,21.863,7.457,1.082,17.305,9.952,-5.618,11.591,6.928,10.293,8.822,5.901
Mon Dec 02 21:05:55 2024,135,-25.560,-25.560,4.069,4.069,-1.842,21.843,7.465,1.067,17.276,9.898,-5.624,11.578,6.885,10.298,8.804,5.858
Mon Dec 02 21:05:55 2024,140,-25.524,-25.524,4.075,4.075,-1.830,21.833,7.396,1.111,17.279,9.848,-5.625,11.559,6.842,10.286,8.821,5.849
Mon Dec 02 21:05:55 2024,145,-25.486,-25.486,4.086,4.086,-1.821,21.825,7.325,1.157,17.285,9.805,-5.625,11.541,6.805,10.272,8.841,5.847
Mon Dec 02 21:05:55 2024,150,-25.496,-25.496,4.096,4.096,-1.830,21.835,7.342,1.152,17.292,9.820,-5.659,11.482,6.802,10.301,8.822,5.894
Mon Dec 02 21:05:55 2024,155,-25.526,-25.526,4.104,4.104,-1.846,21.852,7.399,1.124,17.296,9.859,-5.703,11.416,6.814,10.343,8.790,5.955
Mon Dec 02 21:05:55 2024,160,-25.553,-25.553,4.108,4.108,-1.858,21.865,7.445,1.102,17.302,9.893,-5.736,11.360,6.829,10.383,8.759,6.015
Mon Dec 02 21:05:55 2024,165,-25.553,-25.553,4.097,4.097,-1.848,21.856,7.436,1.117,17.305,9.893,-5.710,11.369,6.850,10.397,8.749,6.047
Mon Dec 02 21:05:55 2024,170,-25.552,-25.552,4.086,4.086,-1.837,21.846,7.422,1.133,17.306,9.889,-5.681,11.384,6.871,10.408,8.742,6.074
Mon Dec 02 21:05:55 2024,175,-25.519,-25.519,4.075,4.075,-1.791,21.807,7.376,1.164,17.272,9.852,-5.708,11.295,6.800,10.383,8.731,6.023
Mon Dec 02 21:05:55 2024,180,-25.483,-25.483,4.067,4.067,-1.745,21.770,7.329,1.192,17.234,9.812,-5.747,11.193,6.715,10.353,8.720,5.959
Mon Dec 02 21:05:55 2024,185,-25.475,-25.475,4.078,4.078,-1.709,21.742,7.302,1.211,17.205,9.787,-5.774,11.131,6.664,10.336,8.709,5.913
Mon Dec 02 21:05:55 2024,190,-25.548,-25.548,4.136,4.136,-1.721,21.747,7.343,1.196,17.214,9.817,-5.753,11.209,6.727,10.361,8.707,5.937
Mon Dec 02 21:05:55 2024,195,-25.617,-25.617,4.190,4.190,-1.733,21.752,7.381,1.182,17.223,9.846,-5.734,11.283,6.787,10.384,8.705,5.960
Mon Dec 02 21:05:55 2024,200,-25.632,-25.632,4.188,4.188,-1.727,21.747,7.405,1.183,17.200,9.837,-5.734,11.252,6.774,10.381,8.698,5.973
Mon Dec 02 21:05:55 2024,205,-25.630,-25.630,4.170,4.170,-1.715,21.740,7.424,1.188,17.168,9.818,-5.742,11.191,6.740,10.369,8.690,5.982
Mon Dec 02 21:05:55 2024,210,-25.615,-25.615,4.143,4.143,-1.707,21.736,7.438,1.195,17.146,9.812,-5.736,11.152,6.719,10.360,8.683,5.974
Mon Dec 02 21:05:55 2024,215,-25.581,-25.581,4.103,4.103,-1.701,21.740,7.440,1.205,17.136,9.824,-5.709,11.143,6.717,10.354,8.679,5.936
Mon Dec 02 21:05:55 2024,220,-25.550,-25.550,4.068,4.068,-1.697,18.255,7.443,1.213,17.127,9.835,-5.685,11.136,6.716,10.349,8.675,5.904
Mon Dec 02 21:05:55 2024,225,-25.555,-25.555,4.080,4.080,-1.683,21.721,7.437,1.210,17.138,9.807,-5.705,11.179,6.705,10.331,8.680,5.900
Mon Dec 02 21:05:55 2024,230,-25.568,-25.568,4.104,4.104,-1.665,21.691,7.428,1.206,17.156,9.768,-5.736,11.236,6.691,10.310,8.687,5.904
Mon Dec 02 21:05:55 2024,235,-25.578,-25.578,4.117,4.117,-1.645,21.665,7.466,1.210,17.149,9.781,-5.730,11.264,6.721,10.331,8.657,5.923
Mon Dec 02 21:05:55 2024,240,-25.585,-25.585,4.123,4.123,-1.622,21.642,7.537,1.221,17.125,9.830,-5.698,11.270,6.780,10.383,8.603,5.952
Mon Dec 02 21:05:55 2024,245,-25.592,-25.592,4.129,4.129,-1.601,21.622,7.596,1.230,17.103,9.867,-5.666,11.277,6.829,10.436,8.550,5.980
Mon Dec 02 21:05:55 2024,250,-25.593,-25.593,4.139,4.139,-1.611,21.633,7.541,1.223,17.115,9.796,-5.661,11.281,6.770,10.464,8.545,5.988
Mon Dec 02 21:05:55 2024,255,-25.591,-25.591,4.163,4.163,-1.602,21.626,7.493,1.232,17.117,9.732,-5.656,11.284,6.724,10.482,8.536,5.994
Mon Dec 02 21:05:55 2024,260,-25.590,-25.590,4.197,4.197,-1.580,21.602,7.462,1.253,17.111,9.680,-5.648,11.288,6.695,10.499,8.520,6.000
Mon Dec 02 21:05:55 2024,265,-25.588,-25.588,4.251,4.251,-1.527,21.545,7.466,1.300,17.084,9.654,-5.634,11.292,6.704,10.513,8.485,6.007
Mon Dec 02 21:05:55 2024,270,-25.584,-25.584,4.287,4.287,-1.488,21.505,7.478,1.339,17.062,9.650,-5.621,11.299,6.727,10.517,8.459,6.004
Mon Dec 02 21:05:55 2024,275,-25.562,-25.562,4.240,4.240,-1.538,18.420,7.444,1.321,17.092,9.671,-5.616,11.331,6.736,10.495,8.478,5.940
Mon Dec 02 21:05:55 2024,280,-25.543,-25.543,4.193,4.193,-1.590,18.340,7.411,1.298,17.123,9.689,-5.613,11.358,6.740,10.475,8.499,5.884
Mon Dec 02 21:05:55 2024,285,-25.559,-25.559,4.218,4.218,-1.611,18.311,7.408,1.293,17.152,9.698,-5.606,11.386,6.738,10.465,8.527,5.870
Mon Dec 02 21:05:55 2024,290,-25.608,-25.608,4.311,4.311,-1.600,18.338,7.434,1.307,17.176,9.697,-5.593,11.410,6.730,10.465,8.557,5.899
Mon Dec 02 21:05:55 2024,295,-25.644,-25.644,4.380,4.380,-1.593,18.358,7.454,1.318,17.194,9.697,-5.584,11.428,6.724,10.465,8.580,5.920
Mon Dec 02 21:05:55 2024,300,-25.654,-25.654,4.373,4.373,-1.576,18.382,7.417,1.315,17.139,9.634,-5.588,11.427,6.720,10.556,8.520,5.991
Mon Dec 02 21:05:55 2024,305,-25.662,-25.662,4.372,4.372,-1.564,21.601,7.391,1.313,17.100,9.590,-5.591,11.427,6.718,10.622,8.478,6.042
Mon Dec 02 21:05:55 2024,310,-25.676,-25.676,4.380,4.380,-1.556,21.584,7.424,1.298,17.110,9.576,-5.536,11.496,6.722,10.649,8.461,6.018
Mon Dec 02 21:05:55 2024,315,-25.691,-25.691,4.391,4.391,-1.550,21.569,7.475,1.279,17.137,9.575,-5.465,11.584,6.728,10.659,8.454,5.968
Mon Dec 02 21:05:55 2024,320,-25.687,-25.687,4.404,4.404,-1.538,21.552,7.512,1.300,17.119,9.593,-5.423,11.629,6.742,10.676,8.432,5.953
Mon Dec 02 21:05:55 2024,325,-25.659,-25.659,4.416,4.416,-1.520,21.534,7.525,1.365,17.051,9.630,-5.425,11.612,6.762,10.696,8.397,5.981
Mon Dec 02 21:05:55 2024,330,-25.621,-25.621,4.432,4.432,-1.498,21.514,7.534,1.454,16.952,9.680,-5.444,11.571,6.790,10.718,8.354,6.030
Mon Dec 02 21:05:55 2024,335,-25.624,-25.624,4.470,4.470,-1.500,21.527,7.574,1.458,16.910,9.728,-5.456,11.544,6.829,10.669,8.388,6.068
Mon Dec 02 21:05:55 2024,340,-25.638,-25.638,4.515,4.515,-1.508,19.476,7.623,1.446,16.875,9.780,-5.471,11.519,6.874,10.599,8.443,6.107
Mon Dec 02 21:05:55 2024,345,-25.652,-25.652,4.547,4.547,-1.520,18.418,7.653,1.437,16.856,9.814,-5.478,11.502,6.915,10.563,8.470,6.153
Mon Dec 02 21:05:55 2024,350,-25.663,-25.663,4.546,4.546,-1.536,18.404,7.642,1.439,16.866,9.809,-5.473,11.503,6.938,10.592,8.444,6.194
Mon Dec 02 21:05:55 2024,355,-25.676,-25.676,4.545,4.545,-1.555,18.388,7.629,1.441,16.877,9.805,-5.468,11.505,6.962,10.623,8.416,6.238
Mon Dec 02 21:05:55 2024,360,-25.639,-25.639,4.533,4.533,-1.514,18.409,7.592,1.474,16.781,9.756,-5.430,11.493,6.944,10.575,8.461,6.259
Mon Dec 02 21:05:55 2024,365,-25.599,-25.599,4.520,4.520,-1.469,18.430,7.558,1.506,16.684,9.709,-5.395,11.481,6.920,10.521,8.512,6.268
Mon Dec 02 21:05:55 2024,370,-25.583,-25.583,4.526,4.526,-1.460,18.436,7.536,1.519,16.705,9.676,-5.361,11.506,6.895,10.474,8.568,6.242
Mon Dec 02 21:05:55 2024,375,-25.594,-25.594,4.554,4.554,-1.492,18.425,7.528,1.509,16.859,9.663,-5.331,11.572,6.871,10.440,8.627,6.176
Mon Dec 02 21:05:55 2024,380,-25.606,-25.606,4.579,4.579,-1.524,18.411,7.524,1.497,17.004,9.654,-5.307,11.634,6.851,10.413,8.676,6.115
Mon Dec 02 21:05:55 2024,385,-25.651,-25.651,4.683,4.683,-1.468,18.466,7.495,1.541,16.961,9.626,-5.264,11.664,6.869,10.364,8.709,6.127
Mon Dec 02 21:05:55 2024,390,-25.696,-25.696,4.785,4.785,-1.408,18.523,7.467,1.586,16.902,9.598,-5.223,11.689,6.890,10.317,8.737,6.147
Mon Dec 02 21:05:55 2024,395,-25.744,-25.744,4.875,4.875,-1.384,18.555,7.433,1.578,16.862,9.533,-5.213,11.682,6.884,10.272,8.809,6.198
Mon Dec 02 21:05:55 2024,400,-25.780,-25.780,4.929,4.929,-1.398,18.554,7.405,1.526,16.848,9.456,-5.233,11.651,6.858,10.241,8.898,6.263
Mon Dec 02 21:05:55 2024,405,-25.832,-25.832,5.001,5.001,-1.425,21.460,7.370,1.480,16.852,9.381,-5.248,11.630,6.832,10.215,8.988,6.330
Mon Dec 02 21:05:55 2024,410,-25.914,-25.914,5.082,5.082,-1.497,21.532,7.345,1.539,16.974,9.423,-5.210,11.702,6.844,10.254,8.971,6.321
Mon Dec 02 21:05:55 2024,415,-25.960,-25.960,5.103,5.103,-1.544,21.577,7.342,1.573,17.044,9.458,-5.171,11.801,6.880,10.274,8.971,6.320
Mon Dec 02 21:05:55 2024,420,-25.997,-25.997,5.108,5.108,-1.584,21.614,7.344,1.598,17.098,9.489,-5.133,11.903,6.919,10.287,8.978,6.323
Mon Dec 02 21:05:55 2024,425,-25.983,-25.983,5.013,5.013,-1.592,21.614,7.381,1.576,17.083,9.504,-5.084,12.071,7.005,10.264,9.031,6.352
Mon Dec 02 21:05:55 2024,430,-25.967,-25.967,4.932,4.932,-1.591,21.608,7.412,1.555,17.060,9.511,-5.050,12.194,7.070,10.242,9.075,6.375
Mon Dec 02 21:05:55 2024,435,-26.015,-26.015,4.962,4.962,-1.657,21.675,7.380,1.565,17.137,9.550,-5.096,12.076,7.010,10.202,9.109,6.304
Mon Dec 02 21:05:55 2024,440,-26.054,-26.054,4.983,4.983,-1.710,21.729,7.355,1.572,17.197,9.582,-5.133,11.985,6.965,10.168,9.139,6.247
Mon Dec 02 21:05:55 2024,445,-26.080,-26.080,4.969,4.969,-1.749,21.754,7.353,1.558,17.328,9.622,-5.104,12.093,6.977,10.187,9.139,6.232
Mon Dec 02 21:05:55 2024,450,-26.096,-26.096,4.937,4.937,-1.778,21.778,7.362,1.531,17.484,9.663,-5.041,12.298,7.019,10.232,9.122,6.242
Mon Dec 02 21:05:55 2024,455,-26.106,-26.106,4.899,4.899,-1.795,21.805,7.364,1.524,17.602,9.696,-4.994,12.455,7.041,10.253,9.119,6.227
Mon Dec 02 21:05:55 2024,460,-26.090,-26.090,4.835,4.835,-1.766,21.778,7.338,1.590,17.584,9.708,-5.000,12.443,6.993,10.181,9.175,6.118
Mon Dec 02 21:05:55 2024,465,-26.079,-26.079,4.776,4.776,-1.743,21.757,7.320,1.645,17.571,9.724,-5.001,12.439,6.956,10.120,9.221,6.029
Mon Dec 02 21:05:55 2024,470,-26.098,-26.098,4.686,4.686,-1.752,21.769,7.359,1.648,17.602,9.807,-4.958,12.518,6.999,10.109,9.234,6.035
Mon Dec 02 21:05:55 2024,475,-26.128,-26.128,4.596,4.596,-1.772,21.794,7.417,1.631,17.649,9.907,-4.902,12.623,7.068,10.120,9.231,6.078
Mon Dec 02 21:05:55 2024,480,-26.148,-26.148,4.498,4.498,-1.770,21.800,7.450,1.632,17.670,9.978,-4.857,12.703,7.119,10.124,9.246,6.119
Mon Dec 02 21:05:55 2024,485,-26.139,-26.139,4.397,4.397,-1.713,21.753,7.417,1.677,17.629,9.963,-4.842,12.712,7.117,10.108,9.300,6.146
Mon Dec 02 21:05:55 2024,490,-26.133,-26.133,4.303,4.303,-1.662,21.715,7.388,1.717,17.592,9.951,-4.831,12.717,7.116,10.091,9.350,6.168
Mon Dec 02 21:05:55 2024,495,-26.166,-26.166,4.252,4.252,-1.684,21.750,7.402,1.706,17.619,9.992,-4.849,12.707,7.126,10.052,9.378,6.150
Mon Dec 02 21:05:55 2024,500,-26.207,-26.207,4.213,4.213,-1.722,21.802,7.425,1.683,17.660,10.044,-4.874,12.693,7.137,10.007,9.401,6.122
Mon Dec 02 21:05:55 2024,505,-26.217,-26.217,4.103,4.103,-1.734,21.842,7.433,1.679,17.723,10.116,-4.880,12.703,7.170,9.990,9.425,6.125
Mon Dec 02 21:05:55 2024,510,-26.183,-26.183,3.919,3.919,-1.711,21.865,7.420,1.697,17.801,10.206,-4.862,12.742,7.227,10.011,9.445,6.166
Mon Dec 02 21:05:55 2024,515,-26.151,-26.151,3.742,3.742,-1.689,21.895,7.408,1.715,17.871,10.292,-4.845,12.779,7.280,10.030,9.462,6.207
Mon Dec 02 21:05:55 2024,520,-26.174,-26.174,3.702,3.702,-1.704,21.891,7.375,1.679,17.850,10.255,-4.930,12.660,7.224,9.892,9.583,6.143
Mon Dec 02 21:05:55 2024,525,-26.209,-26.209,3.689,3.689,-1.727,21.882,7.337,1.634,17.806,10.192,-5.037,12.511,7.146,9.722,9.722,6.060
Mon Dec 02 21:05:55 2024,530,-26.234,-26.234,3.670,3.670,-1.739,21.902,7.310,1.619,17.819,10.156,-5.076,12.461,7.099,9.638,9.785,5.986
Mon Dec 02 21:05:55 2024,535,-26.250,-26.250,3.642,3.642,-1.741,21.963,7.293,1.643,17.906,10.144,-5.038,12.525,7.083,9.647,9.766,5.912
Mon Dec 02 21:05:55 2024,540,-26.266,-26.266,3.612,3.612,-1.741,22.035,7.277,1.670,17.987,10.136,-4.994,12.598,7.070,9.664,9.741,5.838
Mon Dec 02 21:05:55 2024,545,-26.234,-26.234,3.515,3.515,-1.771,22.065,7.341,1.693,17.975,10.234,-4.968,12.633,7.142,9.700,9.728,5.873
Mon Dec 02 21:05:55 2024,550,-26.200,-26.200,3.409,3.409,-1.804,22.097,7.411,1.718,17.962,10.344,-4.940,12.672,7.221,9.739,9.714,5.912
Mon Dec 02 21:05:55 2024,555,-26.192,-26.192,3.393,3.393,-1.805,22.144,7.468,1.710,17.960,10.336,-4.905,12.771,7.250,9.769,9.707,5.908
Mon Dec 02 21:05:55 2024,560,-26.213,-26.213,3.478,3.478,-1.772,22.231,7.524,1.662,17.967,10.196,-4.853,12.965,7.230,9.796,9.705,5.856
Mon Dec 02 21:05:55 2024,565,-26.231,-26.231,3.548,3.548,-1.745,22.312,7.572,1.621,17.972,10.081,-4.808,13.127,7.214,9.819,9.704,5.813
Mon Dec 02 21:05:55 2024,570,-26.245,-26.245,3.600,3.600,-1.725,22.379,7.608,1.592,17.974,9.995,-4.775,13.245,7.202,9.837,9.702,5.781
Mon Dec 02 21:05:55 2024,575,-26.252,-26.252,3.626,3.626,-1.714,22.415,7.627,1.576,17.974,9.952,-4.758,13.305,7.196,9.846,9.701,5.765
Mon Dec 02 21:05:55 2024,580,-26.143,-26.143,3.316,3.316,-1.802,22.439,7.421,1.698,18.026,10.110,-4.832,13.174,7.211,9.773,9.800,5.774
Mon Dec 02 21:05:55 2024,585,-26.116,-26.116,3.243,3.243,-1.820,22.481,7.374,1.722,18.038,10.118,-4.838,13.191,7.210,9.758,9.830,5.761
Mon Dec 02 21:05:55 2024,590,-26.078,-26.078,3.185,3.185,-1.820,22.493,7.329,1.759,18.029,10.127,-4.833,13.196,7.201,9.757,9.835,5.740
Mon Dec 02 21:05:55 2024,595,-26.026,-26.026,3.215,3.215,-1.754,22.390,7.321,1.822,17.958,10.137,-4.785,13.153,7.171,9.804,9.749,5.703
Mon Dec 02 21:05:55 2024,600,-25.981,-25.981,3.241,3.241,-1.699,22.303,7.314,1.875,17.898,10.145,-4.745,13.115,7.145,9.843,9.675,5.673
Mon Dec 02 21:05:55 2024,605,-25.960,-25.960,3.250,3.250,-1.678,22.278,7.344,1.890,17.893,10.192,-4.774,13.084,7.137,9.852,9.653,5.653
Mon Dec 02 21:05:55 2024,610,-25.956,-25.956,3.248,3.248,-1.682,22.292,7.389,1.879,17.920,10.250,-4.837,13.064,7.143,9.840,9.666,5.645
Mon Dec 02 21:05:55 2024,615,-25.962,-25.962,3.253,3.253,-1.690,22.292,7.410,1.849,17.948,10.294,-4.900,13.030,7.164,9.831,9.676,5.645
Mon Dec 02 21:05:55 2024,620,-25.990,-25.990,3.273,3.273,-1.708,22.262,7.378,1.785,17.974,10.297,-4.951,12.978,7.214,9.829,9.675,5.662
Mon Dec 02 21:05:55 2024,625,-26.019,-26.019,3.293,3.293,-1.726,22.232,7.344,1.718,17.997,10.301,-5.005,12.924,7.266,9.827,9.674,5.679
Mon Dec 02 21:05:55 2024,630,-25.996,-25.996,3.252,3.252,-1.671,22.236,7.369,1.734,17.966,10.260,-5.019,12.903,7.230,9.834,9.661,5.657
Mon Dec 02 21:05:55 2024,635,-25.954,-25.954,3.191,3.191,-1.591,22.259,7.413,1.778,17.918,10.206,-5.019,12.896,7.162,9.845,9.644,5.620
Mon Dec 02 21:05:55 2024,640,-25.924,-25.924,3.187,3.187,-1.542,22.295,7.466,1.789,17.891,10.165,-5.016,12.910,7.124,9.859,9.631,5.589
Mon Dec 02 21:05:55 2024,645,-25.914,-25.914,3.261,3.261,-1.540,22.334,7.521,1.754,17.896,10.148,-5.008,12.952,7.132,9.875,9.626,5.572
Mon Dec 02 21:05:55 2024,650,-25.906,-25.906,3.343,3.343,-1.542,22.375,7.579,1.716,17.901,10.132,-5.000,12.996,7.143,9.891,9.622,5.555
Mon Dec 02 21:05:55 2024,655,-25.899,-25.899,3.408,3.408,-1.542,22.410,7.626,1.685,17.904,10.118,-4.994,13.031,7.152,9.904,9.618,5.541
Mon Dec 02 21:05:55 2024,660,-25.896,-25.896,3.446,3.446,-1.543,22.428,7.652,1.668,17.904,10.110,-4.990,13.052,7.157,9.911,9.616,5.534
Mon Dec 02 21:05:55 2024,665,-25.851,-25.851,3.358,3.358,-1.474,22.329,7.603,1.785,17.867,10.237,-4.983,13.019,7.176,9.908,9.579,5.489
Mon Dec 02 21:05:55 2024,670,-25.833,-25.833,3.359,3.359,-1.451,22.311,7.607,1.811,17.856,10.274,-4.978,13.024,7.186,9.912,9.565,5.468
Mon Dec 02 21:05:55 2024,675,-25.817,-25.817,3.359,3.359,-1.431,22.295,7.610,1.833,17.845,10.305,-4.974,13.029,7.195,9.916,9.553,5.450
Mon Dec 02 21:05:55 2024,680,-25.812,-25.812,3.388,3.388,-1.408,22.332,7.701,1.814,17.918,10.439,-5.012,12.987,7.232,9.952,9.544,5.566
Mon Dec 02 21:05:55 2024,685,-25.812,-25.812,3.414,3.414,-1.394,22.369,7.778,1.793,17.983,10.547,-5.047,12.949,7.262,9.983,9.539,5.673
Mon Dec 02 21:05:55 2024,690,-25.794,-25.794,3.434,3.434,-1.380,22.372,7.843,1.784,18.011,10.604,-5.051,12.970,7.290,10.005,9.507,5.704
Mon Dec 02 21:05:55 2024,695,-25.760,-25.760,3.444,3.444,-1.366,22.335,7.886,1.790,17.998,10.597,-5.019,13.051,7.312,10.015,9.448,5.647
Mon Dec 02 21:05:55 2024,700,-25.725,-25.725,3.446,3.446,-1.346,22.309,7.922,1.795,17.981,10.601,-4.999,13.105,7.331,10.021,9.400,5.606
Mon Dec 02 21:05:55 2024,705,-25.688,-25.688,3.431,3.431,-1.316,22.304,7.943,1.796,17.955,10.625,-4.998,13.104,7.345,10.021,9.378,5.596
Mon Dec 02 21:05:55 2024,710,-25.657,-25.657,3.412,3.412,-1.285,22.308,7.955,1.793,17.928,10.652,-5.005,13.080,7.355,10.017,9.371,5.600
Mon Dec 02 21:05:55 2024,715,-25.616,-25.616,3.395,3.395,-1.251,22.306,7.996,1.781,17.913,10.666,-4.993,13.125,7.374,10.086,9.291,5.596
Mon Dec 02 21:05:55 2024,720,-25.559,-25.559,3.376,3.376,-1.207,22.297,8.069,1.757,17.904,10.669,-4.960,13.239,7.404,10.231,9.134,5.586
Mon Dec 02 21:05:55 2024,725,-25.510,-25.510,3.380,3.380,-1.174,22.288,8.126,1.739,17.891,10.669,-4.946,13.310,7.421,10.344,9.002,5.573
Mon Dec 02 21:05:55 2024,730,-25.502,-25.502,3.456,3.456,-1.180,22.282,8.120,1.746,17.876,10.659,-4.986,13.237,7.392,10.324,8.983,5.553
Mon Dec 02 21:05:55 2024,735,-25.490,-25.490,3.555,3.555,-1.189,22.273,8.114,1.755,17.855,10.646,-5.040,13.140,7.355,10.297,8.957,5.526
Mon Dec 02 21:05:55 2024,740,-25.418,-25.418,3.582,3.582,-1.166,22.268,8.119,1.793,17.866,10.682,-5.027,13.200,7.390,10.354,8.898,5.516
Mon Dec 02 21:05:55 2024,745,-25.322,-25.322,3.580,3.580,-1.130,22.265,8.128,1.844,17.880,10.736,-4.988,13.318,7.454,10.444,8.826,5.512
Mon Dec 02 21:05:55 2024,750,-25.214,-25.214,3.562,3.562,-1.104,22.257,8.137,1.879,17.892,10.790,-4.958,13.412,7.519,10.537,8.748,5.522
Mon Dec 02 21:05:55 2024,755,-25.122,-25.122,3.490,3.490,-1.126,22.236,8.138,1.840,17.898,10.812,-4.971,13.369,7.551,10.594,8.698,5.576
Mon Dec 02 21:05:55 2024,760,-25.019,-25.019,3.411,3.411,-1.150,22.213,8.138,1.798,17.902,10.836,-4.986,13.321,7.586,10.656,8.642,5.635
Mon Dec 02 21:05:55 2024,765,-24.930,-24.930,3.503,3.503,-1.094,22.237,8.167,1.845,17.866,10.786,-4.971,13.364,7.532,10.696,8.570,5.557
Mon Dec 02 21:05:55 2024,770,-24.860,-24.860,3.616,3.616,-1.030,22.270,8.197,1.904,17.828,10.728,-4.953,13.419,7.467,10.724,8.508,5.463
Mon Dec 02 21:05:55 2024,775,-24.773,-24.773,3.706,3.706,-0.988,22.318,8.245,1.956,17.808,10.710,-4.938,13.490,7.429,10.779,8.436,5.384
Mon Dec 02 21:05:55 2024,780,-24.662,-24.662,3.709,3.709,-1.015,22.385,8.325,1.976,17.840,10.799,-4.938,13.582,7.467,10.892,8.359,5.366
Mon Dec 02 21:05:55 2024,785,-24.542,-24.542,3.713,3.713,-1.045,22.458,8.413,1.997,17.869,10.898,-4.937,13.682,7.510,11.016,8.272,5.345
Mon Dec 02 21:05:55 2024,790,-24.391,-24.391,3.713,3.713,-0.980,22.509,8.526,2.060,17.855,11.049,-4.899,13.804,7.641,11.173,8.154,5.501
Mon Dec 02 21:05:55 2024,795,-24.268,-24.268,3.713,3.713,-0.912,22.549,8.619,2.116,17.830,11.178,-4.863,13.904,7.760,11.302,8.054,5.654
Mon Dec 02 21:05:55 2024,800,-24.155,-24.155,3.748,3.748,-0.867,22.611,8.701,2.170,17.804,11.337,-4.850,13.981,7.878,11.421,7.970,5.817
Mon Dec 02 21:05:55 2024,805,-24.109,-24.109,3.841,3.841,-0.884,22.689,8.725,2.202,17.792,11.497,-4.886,13.981,7.949,11.472,7.952,5.936
Mon Dec 02 21:05:55 2024,810,-24.060,-24.060,3.923,3.923,-0.897,22.767,8.754,2.230,17.770,11.650,-4.925,13.982,8.020,11.517,7.933,6.045
Mon Dec 02 21:05:55 2024,815,-24.000,-24.000,3.891,3.891,-0.872,22.816,8.814,2.222,17.778,11.702,-4.966,13.992,8.061,11.501,7.926,6.045
Mon Dec 02 21:05:55 2024,820,-23.938,-23.938,3.832,3.832,-0.838,22.862,8.883,2.207,17.794,11.735,-5.008,14.001,8.097,11.470,7.921,6.021
Mon Dec 02 21:05:55 2024,825,-23.896,-23.896,3.800,3.800,-0.794,22.887,8.930,2.220,17.781,11.770,-5.002,14.036,8.127,11.514,7.876,6.018
Mon Dec 02 21:05:55 2024,830,-23.886,-23.886,3.800,3.800,-0.756,22.886,8.944,2.252,17.748,11.796,-4.955,14.083,8.142,11.608,7.811,6.036
Mon Dec 02 21:05:55 2024,835,-23.875,-23.875,3.811,3.811,-0.711,22.888,8.964,2.297,17.703,11.834,-4.894,14.153,8.168,11.728,7.726,6.062
Mon Dec 02 21:05:55 2024,840,-23.876,-23.876,3.904,3.904,-0.732,22.912,9.006,2.336,17.656,11.891,-4.853,14.278,8.242,11.798,7.680,6.116
Mon Dec 02 21:05:55 2024,845,-23.876,-23.876,3.998,3.998,-0.756,22.937,9.048,2.375,17.604,11.948,-4.812,14.401,8.316,11.869,7.634,6.172
Mon Dec 02 21:05:55 2024,850,-23.834,-23.834,4.018,4.018,-0.712,22.950,9.034,2.394,17.587,11.944,-4.810,14.401,8.316,11.882,7.634,6.195
Mon Dec 02 21:05:55 2024,855,-23.771,-23.771,4.011,4.011,-0.647,22.965,9.008,2.405,17.583,11.923,-4.828,14.356,8.295,11.879,7.652,6.219
Mon Dec 02 21:05:55 2024,860,-23.726,-23.726,4.034,4.034,-0.614,22.991,9.016,2.422,17.568,11.935,-4.842,14.360,8.316,11.906,7.652,6.272
Mon Dec 02 21:05:55 2024,865,-23.681,-23.681,4.056,4.056,-0.581,23.017,9.024,2.438,17.552,11.947,-4.856,14.363,8.337,11.932,7.653,6.324
Mon Dec 02 21:05:55 2024,870,-23.642,-23.642,4.112,4.112,-0.564,23.041,9.053,2.455,17.533,11.976,-4.857,14.402,8.381,11.969,7.644,6.382
Mon Dec 02 21:05:55 2024,875,-23.579,-23.579,4.215,4.215,-0.526,23.020,9.070,2.457,17.532,11.975,-4.828,14.459,8.396,11.967,7.656,6.377
Mon Dec 02 21:05:55 2024,880,-23.518,-23.518,4.311,4.311,-0.480,22.984,9.071,2.453,17.539,11.956,-4.792,14.503,8.388,11.944,7.678,6.343
Mon Dec 02 21:05:55 2024,885,-23.442,-23.442,4.441,4.441,-0.412,22.954,9.094,2.453,17.542,11.940,-4.745,14.555,8.381,11.922,7.700,6.312
Mon Dec 02 21:05:55 2024,890,-23.372,-23.372,4.597,4.597,-0.343,23.018,9.230,2.490,17.503,12.001,-4.717,14.628,8.446,11.990,7.670,6.417
Mon Dec 02 21:05:55 2024,895,-23.313,-23.313,4.742,4.742,-0.278,23.080,9.360,2.526,17.465,12.060,-4.692,14.694,8.509,12.054,7.639,6.518
Mon Dec 02 21:05:55 2024,900,-23.275,-23.275,5.310,5.310,-0.244,23.080,9.472,2.564,17.421,12.082,-4.621,14.754,8.526,12.179,7.533,6.614
Mon Dec 02 21:05:55 2024,905,-23.263,-23.263,5.852,5.852,-0.233,23.056,9.542,2.592,17.390,12.082,-4.557,14.791,8.519,12.286,7.433,6.676
Mon Dec 02 21:05:55 2024,910,-23.268,-23.268,6.627,6.627,-0.232,22.980,9.648,2.571,17.409,12.070,-4.522,14.814,8.524,12.365,7.365,6.772
Mon Dec 02 21:05:55 2024,915,-23.297,-23.297,7.626,7.626,-0.249,22.832,9.791,2.475,17.513,12.038,-4.546,14.808,8.544,12.378,7.368,6.902
Mon Dec 02 21:05:55 2024,920,-23.351,-23.351,8.726,8.726,-0.268,22.662,9.948,2.356,17.637,12.000,-4.585,14.796,8.570,12.376,7.388,7.046
Mon Dec 02 21:05:55 2024,925,-23.468,-23.468,9.968,9.968,-0.268,22.598,10.137,2.293,17.703,11.995,-4.608,14.806,8.638,12.354,7.404,7.133
Mon Dec 02 21:05:55 2024,930,-23.662,-23.662,11.482,11.482,-0.245,22.649,10.379,2.289,17.707,12.025,-4.613,14.844,8.763,12.310,7.415,7.161
Mon Dec 02 21:05:55 2024,935,-23.842,-23.842,12.741,12.741,-0.234,22.582,10.558,2.287,17.711,12.054,-4.614,14.834,8.836,12.317,7.395,7.259
Mon Dec 02 21:05:55 2024,940,-24.044,-24.044,14.059,14.059,-0.226,22.452,10.732,2.296,17.704,12.092,-4.609,14.801,8.895,12.353,7.352,7.402
Mon Dec 02 21:05:55 2024,945,-24.303,-24.303,15.581,15.581,-0.228,22.255,10.920,2.312,17.689,12.139,-4.597,14.740,8.951,12.424,7.278,7.600
Mon Dec 02 21:05:55 2024,950,-24.587,-24.587,16.894,16.894,-0.273,22.058,11.073,2.310,17.688,12.157,-4.572,14.675,8.995,12.539,7.162,7.793
Mon Dec 02 21:05:55 2024,955,-24.934,-24.934,18.398,18.398,-0.341,21.826,11.244,2.302,17.692,12.171,-4.540,14.594,9.044,12.688,7.013,8.019
Mon Dec 02 21:05:55 2024,960,-25.196,-25.196,19.673,19.673,-0.381,21.704,11.314,2.310,17.686,12.196,-4.554,14.532,9.026,12.837,6.886,8.180
Mon Dec 02 21:05:55 2024,965,-25.432,-25.432,20.941,20.941,-0.410,21.626,11.336,2.328,17.671,12.228,-4.595,14.478,8.970,13.001,6.759,8.319
Mon Dec 02 21:05:55 2024,970,-25.643,-25.643,22.073,22.073,-0.433,21.569,11.344,2.344,17.639,12.260,-4.639,14.432,8.911,13.149,6.644,8.437
Mon Dec 02 21:05:55 2024,975,-25.685,-25.685,23.593,23.593,-0.488,21.571,11.387,2.349,17.625,12.142,-4.588,14.446,8.839,13.294,6.496,8.464
Mon Dec 02 21:05:55 2024,980,-25.722,-25.722,24.884,24.884,-0.535,21.576,11.425,2.352,17.611,12.040,-4.541,14.458,8.777,13.414,6.372,8.485
Mon Dec 02 21:05:55 2024,985,-25.522,-25.522,26.426,26.426,-0.652,21.478,11.368,2.300,17.656,12.048,-4.518,14.386,8.802,13.435,6.348,8.569
Mon Dec 02 21:05:55 2024,990,-25.056,-25.056,28.194,28.194,-0.810,21.291,11.234,2.187,17.767,12.154,-4.516,14.208,8.903,13.375,6.407,8.729
Mon Dec 02 21:05:55 2024,995,-24.478,-24.478,29.285,29.285,-0.829,21.104,11.167,2.061,17.914,12.237,-4.534,13.954,8.980,13.340,6.451,8.927
Mon Dec 02 21:05:56 2024,0,-23.899,-23.899,30.376,30.376,-0.848,20.916,11.099,1.935,18.062,12.321,-4.552,13.700,9.058,13.305,6.496,9.125
Mon Dec 02 21:05:56 2024,5,-23.047,23.047,31.024,31.024,-0.660,20.662,11.134,1.769,18.054,12.353,-4.590,13.260,9.097,13.340,6.486,9.431
Mon Dec 02 21:05:56 2024,10,-22.607,22.607,31.474,31.474,-0.621,19.148,11.229,1.775,17.837,12.554,-4.605,12.787,9.114,13.398,6.421,9.675
Mon Dec 02 21:05:56 2024,15,-22.392,22.392,31.840,31.840,-0.646,18.680,11.345,1.851,17.598,12.814,-4.610,12.312,9.126,13.464,6.336,9.883
Mon Dec 02 21:05:56 2024,20,-22.262,22.262,32.286,32.286,-0.660,18.147,11.466,1.940,17.342,13.117,-4.609,11.806,9.163,13.534,6.240,10.116
Mon Dec 02 21:05:56 2024,25,-22.440,22.440,32.976,32.976,-0.611,17.637,11.588,2.093,17.117,13.630,-4.578,11.278,9.335,13.619,6.104,10.478
Mon Dec 02 21:05:56 2024,30,-22.718,22.718,33.727,33.727,-0.562,17.105,11.713,2.248,16.888,14.152,-4.546,10.729,9.512,13.707,5.958,10.844
Mon Dec 02 21:05:56 2024,35,-22.560,22.560,34.176,34.176,-0.434,16.526,11.640,2.324,16.354,14.134,-4.468,10.356,9.643,13.767,5.830,11.057
Mon Dec 02 21:05:56 2024,40,-22.153,22.153,34.582,34.582,-0.239,15.810,11.454,2.381,15.494,13.840,-4.349,10.009,9.773,13.827,5.676,11.227
Mon Dec 02 21:05:56 2024,45,-22.112,22.112,35.102,35.102,-0.143,15.419,11.390,2.416,14.956,13.651,-4.226,9.937,9.918,13.956,5.491,11.345
Mon Dec 02 21:05:56 2024,50,-22.735,22.735,35.870,35.870,-0.216,15.626,11.566,2.390,15.064,13.622,-4.079,10.425,10.128,14.240,5.224,11.378
Mon Dec 02 21:05:56 2024,55,-23.476,23.476,36.782,36.782,-0.304,15.837,11.734,2.356,15.174,13.580,-3.914,10.954,10.364,14.546,4.928,11.404
Mon Dec 02 21:05:56 2024,60,-23.629,23.629,37.376,37.376,-0.378,15.687,11.416,2.300,15.068,13.389,-3.860,10.927,10.379,14.549,4.866,11.264
Mon Dec 02 21:05:56 2024,65,-23.641,23.641,37.874,37.874,-0.447,15.431,10.959,2.239,14.894,13.156,-3.838,10.737,10.328,14.462,4.868,11.078
Mon Dec 02 21:05:56 2024,70,-23.752,23.752,38.269,38.269,-0.517,15.188,10.521,2.197,14.771,12.933,-3.815,10.630,10.272,14.441,4.839,10.882
Mon Dec 02 21:05:56 2024,75,-24.020,24.020,38.234,38.234,-0.572,15.048,10.265,2.222,14.843,12.806,-3.798,10.798,10.220,14.618,4.749,10.718
Mon Dec 02 21:05:56 2024,80,-24.362,24.362,38.159,38.159,-0.631,14.938,10.036,2.234,14.925,12.688,-3.790,10.976,10.176,14.794,4.652,10.567
Mon Dec 02 21:05:56 2024,85,-25.014,25.014,37.688,37.688,-0.721,15.034,9.992,2.164,15.101,12.616,-3.853,11.241,10.201,14.999,4.526,10.494
Mon Dec 02 21:05:56 2024,90,-25.831,25.831,37.085,37.085,-0.830,15.180,9.982,2.069,15.316,12.547,-3.937,11.548,10.243,15.231,4.374,10.431
Mon Dec 02 21:05:56 2024,95,-26.581,26.581,36.392,36.392,-0.942,15.292,9.968,1.979,15.530,12.549,-3.988,11.796,10.339,15.398,4.257,10.393
Mon Dec 02 21:05:56 2024,100,-27.581,27.581,35.180,35.180,-1.118,15.400,9.943,1.853,15.851,12.674,-4.006,12.078,10.576,15.539,4.150,10.382
Mon Dec 02 21:05:56 2024,105,-28.302,28.302,34.233,34.233,-1.232,15.480,9.928,1.763,16.058,12.747,-4.019,12.277,10.736,15.640,4.068,10.356
Mon Dec 02 21:05:56 2024,110,-28.692,28.692,32.951,32.951,-1.229,15.598,9.939,1.685,16.046,12.675,-4.024,12.429,10.781,15.718,3.969,10.195
Mon Dec 02 21:05:56 2024,115,-29.017,29.017,31.530,31.530,-1.193,15.730,9.957,1.609,15.971,12.562,-4.026,12.571,10.792,15.790,3.863,9.994
Mon Dec 02 21:05:56 2024,120,-29.242,29.242,30.083,30.083,-1.116,15.891,9.981,1.526,15.926,12.523,-3.982,12.674,10.831,15.858,3.766,9.864
Mon Dec 02 21:05:56 2024,125,-29.316,29.316,29.059,29.059,-1.031,16.026,10.002,1.462,15.922,12.556,-3.912,12.713,10.880,15.902,3.706,9.830
Mon Dec 02 21:05:56 2024,130,-29.338,29.338,28.005,28.005,-0.961,16.191,10.032,1.388,15.984,12.609,-3.858,12.774,10.917,15.954,3.646,9.773
Mon Dec 02 21:05:56 2024,135,-29.157,29.157,27.005,27.005,-0.950,16.440,10.088,1.285,16.264,12.725,-3.858,12.903,10.911,16.027,3.592,9.646
Mon Dec 02 21:05:56 2024,140,-28.963,28.963,26.078,26.078,-0.953,16.690,10.147,1.183,16.577,12.847,-3.871,13.037,10.895,16.100,3.543,9.511
Mon Dec 02 21:05:56 2024,145,-28.806,28.806,25.040,25.040,-0.978,16.974,10.198,1.065,16.939,13.022,-3.892,13.220,10.961,16.196,3.496,9.471
Mon Dec 02 21:05:56 2024,150,-28.735,28.735,24.268,24.268,-1.007,17.185,10.228,0.975,17.215,13.174,-3.911,13.371,11.057,16.276,3.462,9.503
Mon Dec 02 21:05:56 2024,155,-28.635,28.635,23.416,23.416,-1.037,17.401,10.289,0.880,17.480,13.354,-3.921,13.549,11.178,16.358,3.424,9.539
Mon Dec 02 21:05:56 2024,160,-28.380,28.380,22.872,22.872,-1.047,17.498,10.444,0.841,17.494,13.516,-3.884,13.720,11.316,16.381,3.416,9.562
Mon Dec 02 21:05:56 2024,165,-28.178,28.178,22.396,22.396,-1.055,17.580,10.578,0.809,17.505,13.658,-3.853,13.867,11.435,16.402,3.409,9.583
Mon Dec 02 21:05:56 2024,170,-27.950,27.950,21.752,21.752,-1.054,17.694,10.632,0.768,17.568,13.751,-3.853,13.974,11.480,16.371,3.446,9.525
Mon Dec 02 21:05:56 2024,175,-27.771,27.771,21.153,21.153,-1.048,17.799,10.623,0.732,17.648,13.793,-3.873,14.030,11.469,16.317,3.502,9.433
Mon Dec 02 21:05:56 2024,180,-27.586,27.586,20.598,20.598,-1.046,17.920,10.618,0.696,17.752,13.818,-3.897,14.084,11.440,16.282,3.538,9.340
Mon Dec 02 21:05:56 2024,185,-27.310,27.310,20.286,20.286,-1.059,18.108,10.632,0.669,17.952,13.770,-3.936,14.126,11.343,16.334,3.488,9.247
Mon Dec 02 21:05:56 2024,190,-27.064,27.064,19.990,19.990,-1.071,18.273,10.644,0.643,18.137,13.726,-3.973,14.164,11.254,16.383,3.440,9.161
Mon Dec 02 21:05:56 2024,195,-26.841,26.841,19.631,19.631,-1.066,18.402,10.568,0.583,18.198,13.574,-4.000,14.182,11.148,16.351,3.484,9.138
Mon Dec 02 21:05:56 2024,200,-26.673,26.673,19.312,19.312,-1.057,18.496,10.474,0.522,18.206,13.413,-4.019,14.191,11.056,16.298,3.550,9.141
Mon Dec 02 21:05:56 2024,205,-26.542,26.542,18.997,18.997,-1.080,18.547,10.403,0.471,18.255,13.326,-4.042,14.209,11.008,16.243,3.616,9.130
Mon Dec 02 21:05:56 2024,210,-26.441,26.441,18.546,18.546,-1.201,18.502,10.360,0.418,18.449,13.400,-4.086,14.260,11.061,16.154,3.712,9.077
Mon Dec 02 21:05:56 2024,215,-26.356,26.356,18.105,18.105,-1.320,18.448,10.317,0.366,18.639,13.471,-4.129,14.308,11.113,16.067,3.806,9.025
Mon Dec 02 21:05:56 2024,220,-26.299,26.299,17.965,17.965,-1.339,18.405,10.294,0.357,18.701,13.488,-4.150,14.287,11.100,16.068,3.823,9.056
Mon Dec 02 21:05:56 2024,225,-26.248,26.248,17.865,17.865,-1.345,18.365,10.275,0.353,18.746,13.499,-4.168,14.258,11.078,16.080,3.829,9.099
Mon Dec 02 21:05:56 2024,230,8.672,26.146,17.703,17.703,-1.347,18.381,10.249,0.362,18.802,13.517,-4.178,14.261,11.065,16.078,3.841,9.120
Mon Dec 02 21:05:56 2024,235,26.003,26.003,17.513,17.513,-1.343,18.477,10.227,0.388,18.851,13.539,-4.169,14.317,11.071,16.056,3.861,9.093
Mon Dec 02 21:05:56 2024,240,25.880,25.880,17.341,17.341,-1.339,18.550,10.208,0.414,18.893,13.560,-4.161,14.367,11.076,16.036,3.878,9.068
Mon Dec 02 21:05:56 2024,245,25.867,25.867,17.372,17.372,-1.335,18.582,10.215,0.397,18.927,13.581,-4.155,14.443,11.098,15.969,3.939,9.035
Mon Dec 02 21:05:56 2024,250,25.873,25.873,17.428,17.428,-1.330,18.606,10.226,0.376,18.957,13.601,-4.150,14.516,11.122,15.901,4.002,9.003
Mon Dec 02 21:05:56 2024,255,25.830,25.830,17.504,17.504,-1.348,18.602,10.266,0.352,18.998,13.640,-4.140,14.593,11.159,15.859,4.046,9.026
Mon Dec 02 21:05:56 2024,260,25.698,25.698,17.610,17.610,-1.405,18.550,10.358,0.322,19.055,13.710,-4.124,14.673,11.216,15.868,4.054,9.146
Mon Dec 02 21:05:56 2024,265,25.604,25.604,17.691,17.691,-1.438,19.995,10.426,0.307,19.086,13.756,-4.102,14.735,11.256,15.875,4.057,9.234
Mon Dec 02 21:05:56 2024,270,25.626,25.626,17.696,17.696,-1.372,21.402,10.422,0.358,18.999,13.720,-4.047,14.752,11.249,15.895,4.032,9.228
Mon Dec 02 21:05:56 2024,275,25.670,25.670,17.690,17.690,-1.289,21.312,10.407,0.421,18.892,13.669,-3.986,14.758,11.234,15.916,4.002,9.206
Mon Dec 02 21:05:56 2024,280,25.730,25.730,17.790,17.790,-1.244,21.267,10.426,0.509,18.818,13.670,-3.946,14.730,11.208,15.929,3.979,9.177
Mon Dec 02 21:05:56 2024,285,25.811,25.811,18.028,18.028,-1.247,18.717,10.490,0.627,18.782,13.738,-3.932,14.656,11.174,15.933,3.965,9.140
Mon Dec 02 21:05:56 2024,290,25.878,25.878,18.245,18.245,-1.247,18.702,10.531,0.710,18.745,13.762,-3.900,14.638,11.139,15.924,3.961,9.075
Mon Dec 02 21:05:56 2024,295,25.918,25.918,18.467,18.467,-1.241,18.687,10.519,0.718,18.731,13.670,-3.804,14.781,11.094,15.872,3.987,8.910
Mon Dec 02 21:05:56 2024,300,25.954,25.954,18.666,18.666,-1.235,18.672,10.500,0.714,18.721,13.571,-3.710,14.932,11.052,15.820,4.011,8.749
Mon Dec 02 21:05:56 2024,305,-26.025,26.025,19.131,19.131,-1.191,18.683,10.554,0.781,18.636,13.525,-3.629,15.048,11.052,15.898,3.920,8.747
Mon Dec 02 21:05:56 2024,310,-26.102,26.102,19.633,19.633,-1.133,18.707,10.640,0.876,18.524,13.529,-3.583,15.106,11.079,16.041,3.778,8.855
Mon Dec 02 21:05:56 2024,315,-26.167,26.167,20.031,20.031,-1.087,18.723,10.709,0.951,18.435,13.532,-3.547,15.150,11.100,16.155,3.667,8.941
Mon Dec 02 21:05:56 2024,320,-26.226,26.226,20.321,20.321,-1.038,18.712,10.751,1.019,18.265,13.525,-3.555,15.082,11.101,16.175,3.622,8.970
Mon Dec 02 21:05:56 2024,325,-26.290,26.290,20.592,20.592,-0.993,18.696,10.790,1.081,18.109,13.518,-3.561,15.021,11.102,16.196,3.577,8.999
Mon Dec 02 21:05:56 2024,330,-26.352,26.352,20.954,20.954,-0.947,18.677,10.834,1.155,17.983,13.529,-3.558,14.955,11.102,16.210,3.535,9.000
Mon Dec 02 21:05:56 2024,335,-26.437,26.437,21.716,21.716,-0.876,18.653,10.909,1.295,17.871,13.589,-3.530,14.844,11.099,16.217,3.478,8.934
Mon Dec 02 21:05:56 2024,340,-26.524,26.524,22.215,22.215,-0.826,18.626,10.960,1.388,17.778,13.623,-3.514,14.766,11.098,16.224,3.435,8.900
Mon Dec 02 21:05:56 2024,345,-26.612,26.612,22.640,22.640,-0.785,18.600,11.003,1.468,17.699,13.652,-3.502,14.697,11.097,16.229,3.397,8.871
Mon Dec 02 21:05:56 2024,350,-26.654,26.654,22.826,22.826,-0.767,18.588,11.022,1.502,17.664,13.666,-3.498,14.666,11.097,16.232,3.380,8.858
Mon Dec 02 21:05:56 2024,355,-26.578,26.578,25.828,25.828,-0.581,18.449,11.772,1.831,17.086,13.709,-3.461,14.605,11.287,16.474,2.966,9.285
Mon Dec 02 21:05:56 2024,360,-26.703,26.703,26.809,26.809,-0.514,18.383,11.992,1.952,16.896,13.734,-3.447,14.558,11.338,16.540,2.830,9.388
Mon Dec 02 21:05:56 2024,365,-26.916,26.916,28.235,28.235,-0.482,18.252,12.152,2.101,16.694,13.738,-3.467,14.460,11.343,16.629,2.655,9.473
Mon Dec 02 21:05:56 2024,370,-27.212,27.212,30.141,30.141,-0.539,18.031,12.119,2.260,16.537,13.694,-3.558,14.286,11.241,16.737,2.454,9.483
Mon Dec 02 21:05:56 2024,375,-27.546,27.546,31.895,31.895,-0.596,17.824,12.079,2.408,16.394,13.653,-3.646,14.123,11.142,16.836,2.267,9.486
Mon Dec 02 21:05:56 2024,380,-26.859,26.859,34.167,34.167,-0.624,17.386,11.826,2.497,16.148,13.354,-3.868,13.621,10.759,16.840,2.050,9.391
Mon Dec 02 21:05:56 2024,385,-26.212,26.212,36.028,36.028,-0.640,17.001,11.590,2.555,15.934,13.073,-4.068,13.163,10.408,16.828,1.856,9.296
Mon Dec 02 21:05:56 2024,390,-25.575,25.575,37.291,37.291,-0.632,16.771,11.493,2.587,15.776,12.911,-4.241,12.675,10.109,16.707,1.700,9.161
Mon Dec 02 21:05:56 2024,395,-24.893,24.893,37.631,37.631,-0.581,16.795,11.617,2.577,15.712,12.940,-4.378,12.122,9.889,16.399,1.601,8.953
Mon Dec 02 21:05:56 2024,400,-24.309,24.309,37.866,37.866,-0.524,16.793,11.722,2.562,15.642,12.956,-4.522,11.594,9.680,16.097,1.498,8.771
Mon Dec 02 21:05:56 2024,405,-23.125,23.125,37.069,37.069,-0.381,16.466,11.681,2.484,15.422,12.799,-4.815,10.922,9.346,15.704,1.623,8.726
Mon Dec 02 21:05:56 2024,410,-22.154,22.154,36.274,36.274,-0.249,16.136,11.621,2.409,15.207,12.642,-5.079,10.353,9.057,15.372,1.758,8.714
Mon Dec 02 21:05:56 2024,415,-21.345,21.345,34.290,34.290,-0.241,16.237,11.761,2.317,15.441,12.724,-5.348,9.993,8.788,15.118,2.052,8.681
Mon Dec 02 21:05:56 2024,420,-20.986,20.986,32.332,32.332,-0.339,16.649,12.002,2.255,15.935,12.969,-5.497,9.966,8.660,15.046,2.345,8.644
Mon Dec 02 21:05:56 2024,425,-20.615,20.615,30.288,30.288,-0.449,17.110,12.274,2.187,16.474,13.250,-5.665,9.935,8.520,14.970,2.665,8.602
Mon Dec 02 21:05:56 2024,430,-20.208,20.208,27.052,27.052,-0.337,18.379,12.419,2.084,17.121,12.779,-5.757,10.856,8.292,14.973,2.865,7.866
Mon Dec 02 21:05:56 2024,435,-19.999,19.999,24.827,24.827,-0.240,19.320,12.527,2.016,17.541,12.419,-5.811,11.512,8.126,14.984,2.999,7.309
Mon Dec 02 21:05:56 2024,440,-19.944,19.944,21.164,21.164,-0.088,20.623,12.352,2.145,17.736,12.338,-5.693,12.350,8.143,14.945,3.266,6.712
Mon Dec 02 21:05:56 2024,445,-20.001,20.001,17.458,17.458,0.052,21.723,11.997,2.392,17.603,12.507,-5.477,13.077,8.302,14.881,3.548,6.271
Mon Dec 02 21:05:56 2024,450,-20.074,20.074,14.008,14.008,0.192,22.793,11.650,2.633,17.341,12.672,-5.264,13.740,8.460,14.826,3.804,5.850
Mon Dec 02 21:05:56 2024,455,-20.414,20.414,9.964,9.964,0.184,22.988,11.472,2.832,17.145,12.533,-5.174,13.953,8.332,14.803,3.890,5.526
Mon Dec 02 21:05:56 2024,460,-20.703,20.703,6.358,6.358,0.194,23.270,11.291,3.021,16.949,12.442,-5.077,14.192,8.246,14.780,3.985,5.220
Mon Dec 02 21:05:56 2024,465,-20.818,20.818,3.809,3.809,0.201,23.538,10.949,3.000,16.941,12.219,-4.997,14.431,8.111,14.847,4.026,5.066
Mon Dec 02 21:05:56 2024,470,-20.876,20.876,-2.080,2.080,0.204,23.763,10.593,2.900,23.005,11.976,-4.936,14.625,7.975,14.940,4.036,4.994
Mon Dec 02 21:05:56 2024,475,-20.941,20.941,-0.892,0.292,0.220,24.023,10.242,2.834,23.008,11.761,-4.850,14.842,7.870,15.055,4.029,4.922
Mon Dec 02 21:05:56 2024,480,-20.893,20.893,-1.309,-1.309,0.287,24.340,10.047,2.940,23.204,11.754,-4.683,15.129,7.939,15.221,3.967,4.872
Mon Dec 02 21:05:56 2024,485,-20.892,20.892,-2.168,-2.168,0.348,24.629,9.866,3.035,23.393,11.745,-4.530,15.369,8.001,15.373,3.904,4.826
Mon Dec 02 21:05:56 2024,490,-20.919,20.919,-2.882,-2.882,0.306,24.774,9.730,3.018,23.432,11.746,-4.528,24.599,8.044,15.451,3.907,4.892
Mon Dec 02 21:05:56 2024,495,-20.983,-20.983,-3.371,-3.371,0.240,24.842,9.637,2.968,23.414,11.749,-4.574,24.636,8.072,15.488,3.928,4.980
Mon Dec 02 21:05:56 2024,500,-21.057,-21.057,-3.841,-3.841,0.187,24.863,9.562,2.946,23.409,11.767,-4.613,24.677,8.089,15.519,3.928,5.046
Mon Dec 02 21:05:56 2024,505,-21.090,-21.090,-4.453,-4.453,0.152,24.708,9.527,3.018,23.449,11.846,-4.643,15.250,8.070,15.542,3.858,5.054
Mon Dec 02 21:05:56 2024,510,-21.145,-21.145,-4.915,-4.915,0.124,24.593,9.499,3.070,23.479,11.905,-4.667,15.188,8.058,15.560,3.804,5.063
Mon Dec 02 21:05:56 2024,515,-21.036,-21.036,-5.258,-5.258,0.076,24.542,9.447,3.029,23.414,11.990,-4.714,15.116,8.052,15.484,3.832,5.034
Mon Dec 02 21:05:56 2024,520,-20.853,-20.853,-5.500,-5.500,-0.066,24.539,9.380,2.921,23.281,12.092,-4.775,15.040,8.052,15.340,3.915,4.978
Mon Dec 02 21:05:56 2024,525,-20.739,-20.739,-5.640,-5.640,-0.105,24.540,9.365,2.856,23.184,12.136,-4.822,14.980,8.038,15.228,3.969,4.908
Mon Dec 02 21:05:56 2024,530,-20.560,-20.560,-5.678,-5.678,-0.138,24.556,9.426,2.817,23.086,12.104,-4.873,14.918,7.994,15.096,4.014,4.774
Mon Dec 02 21:05:56 2024,535,-20.448,-20.448,-5.714,-5.714,-0.170,24.569,9.477,2.784,23.005,12.078,-4.915,14.866,7.958,14.984,4.049,4.664
Mon Dec 02 21:05:56 2024,540,-20.172,-20.172,-5.844,-5.844,-0.161,24.645,9.546,2.737,22.923,12.076,-4.844,14.939,7.967,14.944,4.071,4.648
Mon Dec 02 21:05:56 2024,545,-19.958,-19.958,-5.958,-5.958,-0.148,24.713,9.599,2.701,22.864,12.080,-4.770,15.017,7.982,14.931,4.084,4.658
Mon Dec 02 21:05:56 2024,550,-19.676,-19.676,-6.120,-6.120,-0.201,24.800,9.664,2.661,22.823,12.083,-4.762,15.032,7.969,14.907,4.103,4.614
Mon Dec 02 21:05:56 2024,555,-19.372,-19.372,-6.307,-6.307,-0.314,24.895,9.734,2.623,22.808,12.086,-4.818,14.983,7.931,14.876,4.124,4.526
Mon Dec 02 21:05:56 2024,560,-19.091,-19.091,-6.488,-6.488,-0.431,24.987,9.801,2.589,22.800,12.088,-4.884,14.925,7.891,14.844,4.144,4.435
Mon Dec 02 21:05:56 2024,565,-18.834,-18.834,-6.671,-6.671,-0.464,25.038,9.785,2.606,22.817,12.104,-4.797,15.015,7.927,14.883,4.121,4.420
Mon Dec 02 21:05:56 2024,570,-18.596,-18.596,-6.851,-6.851,-0.495,25.088,9.770,2.623,22.834,12.120,-4.710,15.104,7.962,14.922,4.098,4.404
Mon Dec 02 21:05:56 2024,575,-18.389,-18.389,-7.050,-7.050,-0.534,25.170,9.827,2.621,22.824,12.150,-4.624,15.205,8.022,14.990,4.052,4.432
Mon Dec 02 21:05:56 2024,580,-18.292,-18.292,-7.230,-7.230,-0.575,25.292,10.022,2.577,22.758,12.202,-4.560,15.304,8.115,15.099,3.976,4.544
Mon Dec 02 21:05:56 2024,585,-18.222,-18.222,-7.374,-7.374,-0.621,25.406,10.153,2.555,22.731,12.240,-4.500,15.388,8.186,15.189,3.907,4.614
Mon Dec 02 21:05:56 2024,590,-18.197,-18.197,-7.407,-7.407,-0.694,25.530,10.152,2.583,22.806,12.246,-4.450,15.446,8.207,15.251,3.846,4.598
Mon Dec 02 21:05:56 2024,595,-18.185,-18.185,-7.429,-7.429,-0.774,25.662,10.134,2.619,22.903,12.248,-4.400,15.505,8.223,15.312,3.781,4.569
Mon Dec 02 21:05:56 2024,600,-18.165,-18.165,-7.558,-7.558,-0.844,25.726,10.129,2.643,22.949,12.274,-4.370,15.534,8.233,15.336,3.782,4.580
Mon Dec 02 21:05:56 2024,605,-18.131,-18.131,-7.823,-7.823,-0.932,25.762,10.132,2.668,22.968,12.330,-4.345,15.550,8.240,15.342,3.836,4.629
Mon Dec 02 21:05:56 2024,610,-18.117,-18.117,-8.002,-8.002,-0.994,25.789,10.133,2.686,22.984,12.368,-4.326,15.562,8.246,15.346,3.870,4.661
Mon Dec 02 21:05:56 2024,615,-18.210,-18.210,-8.063,-8.063,-1.010,25.835,10.162,2.701,22.982,12.323,-4.353,15.531,8.232,15.321,3.864,4.633
Mon Dec 02 21:05:56 2024,620,-18.303,-18.303,-8.117,-8.117,-1.024,25.875,10.188,2.714,22.980,12.283,-4.377,15.503,8.220,15.298,3.859,4.608
Mon Dec 02 21:05:56 2024,625,-18.346,-18.346,-8.182,-8.182,-1.063,25.940,10.222,2.770,23.060,12.334,-4.357,15.534,8.258,15.350,3.819,4.628
Mon Dec 02 21:05:56 2024,630,-18.367,-18.367,-8.260,-8.260,-1.121,26.024,10.264,2.854,23.195,12.439,-4.311,15.599,8.328,15.449,3.754,4.675
Mon Dec 02 21:05:56 2024,635,-18.415,-18.415,-8.295,-8.295,-1.161,26.101,10.326,2.941,23.325,12.541,-4.277,15.643,8.391,15.522,3.709,4.742
Mon Dec 02 21:05:56 2024,640,-18.511,-18.511,-8.249,-8.249,-1.171,26.168,10.424,3.035,23.445,12.636,-4.265,15.651,8.440,15.549,3.698,4.849
Mon Dec 02 21:05:56 2024,645,-18.600,-18.600,-8.208,-8.208,-1.179,26.227,10.510,3.117,23.551,12.720,-4.255,15.658,8.484,15.571,3.688,4.943
Mon Dec 02 21:05:56 2024,650,-18.638,-18.638,-8.224,-8.224,-1.218,26.263,10.539,3.169,23.620,12.770,-4.214,15.699,8.510,15.553,3.685,4.908
Mon Dec 02 21:05:56 2024,655,-18.638,-18.638,-8.273,-8.273,-1.270,26.278,10.525,3.191,23.652,12.788,-4.161,15.753,8.519,15.511,3.686,4.796
Mon Dec 02 21:05:56 2024,660,-18.660,-18.660,-8.306,-8.306,-1.303,26.312,10.542,3.226,23.704,12.822,-4.125,15.790,8.538,15.498,3.678,4.734
Mon Dec 02 21:05:56 2024,665,-18.740,-18.740,-8.311,-8.311,-1.288,26.405,10.643,3.298,23.815,12.899,-4.136,15.786,8.586,15.563,3.643,4.790
Mon Dec 02 21:05:56 2024,670,-18.811,-18.811,-8.315,-8.315,-1.277,26.480,10.724,3.356,23.904,12.961,-4.144,20.001,8.624,15.614,3.614,4.834
Mon Dec 02 21:05:56 2024,675,-18.841,-18.841,-8.262,-8.262,-1.300,26.515,10.815,3.396,23.995,13.068,-4.128,24.188,8.692,15.605,3.630,4.904
Mon Dec 02 21:05:56 2024,680,-18.866,-18.866,-8.197,-8.197,-1.329,26.544,10.912,3.436,24.091,13.189,-4.107,24.152,8.766,15.584,3.655,4.983
Mon Dec 02 21:05:56 2024,685,-18.878,-18.878,-8.158,-8.158,-1.336,26.583,10.982,3.495,24.194,13.272,-4.073,24.110,8.815,15.576,3.652,5.006
Mon Dec 02 21:05:56 2024,690,-18.859,-18.859,-8.171,-8.171,-1.288,26.650,11.008,3.613,24.332,13.287,-4.004,24.035,8.817,15.595,3.582,4.902
Mon Dec 02 21:05:56 2024,695,-18.849,-18.849,-8.177,-8.177,-1.252,26.705,11.034,3.709,24.448,13.306,-3.946,23.974,8.822,15.608,3.528,4.824
Mon Dec 02 21:05:56 2024,700,-18.908,-18.908,-8.162,-8.162,-1.360,26.641,11.012,3.745,24.563,13.390,-3.934,23.952,8.862,15.637,3.523,4.869
Mon Dec 02 21:05:56 2024,705,-18.959,-18.959,-8.149,-8.149,-1.451,26.589,10.992,3.771,24.656,13.458,-3.927,23.938,8.895,15.659,3.521,4.909
Mon Dec 02 21:05:56 2024,710,-19.021,-19.021,-8.100,-8.100,-1.509,26.533,10.984,3.800,24.720,13.501,-3.910,23.919,8.922,15.661,3.534,4.962
Mon Dec 02 21:05:56 2024,715,-19.088,-19.088,-8.014,-8.014,-1.516,26.482,10.989,3.829,24.738,13.504,-3.884,23.895,8.936,15.636,3.563,5.023
Mon Dec 02 21:05:56 2024,720,-19.143,-19.143,-7.942,-7.942,-1.515,26.456,11.013,3.836,24.723,13.506,-3.873,23.884,8.954,15.629,3.570,5.070
Mon Dec 02 21:05:56 2024,725,-19.203,-19.203,-7.863,-7.863,-1.497,26.460,11.080,3.812,24.646,13.507,-3.878,23.892,8.984,15.651,3.546,5.115
Mon Dec 02 21:05:56 2024,730,-19.254,-19.254,-7.796,-7.796,-1.474,26.477,11.156,3.776,24.554,13.507,-3.891,23.907,9.013,15.682,3.509,5.149
Mon Dec 02 21:05:56 2024,735,-19.242,-19.242,-7.751,-7.751,-1.465,26.463,11.152,3.780,24.555,13.516,-3.867,23.884,9.026,15.696,3.474,5.111
Mon Dec 02 21:05:56 2024,740,-19.184,-19.184,-7.742,-7.742,-1.471,26.428,11.085,3.815,24.628,13.528,-3.824,23.840,9.021,15.690,3.454,5.031
Mon Dec 02 21:05:56 2024,745,-19.140,-19.140,-7.705,-7.705,-1.465,26.390,11.038,3.865,24.713,13.552,-3.786,23.801,9.027,15.689,3.437,4.982
Mon Dec 02 21:05:56 2024,750,-19.143,-19.143,-7.614,-7.614,-1.437,26.354,11.047,3.934,24.796,13.596,-3.772,23.788,9.059,15.700,3.435,5.020
Mon Dec 02 21:05:56 2024,755,-19.156,-19.156,-7.509,-7.509,-1.403,26.318,11.068,4.009,24.880,13.645,-3.763,23.779,9.098,15.714,3.435,5.079
Mon Dec 02 21:05:56 2024,760,-19.179,-19.179,-7.397,-7.397,-1.368,26.286,11.111,4.029,24.839,13.657,-3.778,23.810,9.091,15.716,3.399,5.103
Mon Dec 02 21:05:56 2024,765,-19.206,-19.206,-7.290,-7.290,-1.334,26.258,11.164,4.021,24.742,13.648,-3.804,19.987,9.063,15.711,3.347,5.110
Mon Dec 02 21:05:56 2024,770,-19.213,-19.213,-7.221,-7.221,-1.312,26.236,11.194,4.025,24.694,13.655,-3.831,16.077,9.043,15.709,3.316,5.119
Mon Dec 02 21:05:56 2024,775,-19.181,-19.181,-7.211,-7.211,-1.308,26.218,11.190,4.053,24.733,13.692,-3.865,16.041,9.035,15.716,3.321,5.138
Mon Dec 02 21:05:56 2024,780,-19.150,-19.150,-7.209,-7.209,-1.306,26.203,11.182,4.081,24.775,13.727,-3.896,16.011,9.029,15.722,3.329,5.155
Mon Dec 02 21:05:56 2024,785,-19.116,-19.116,-7.184,-7.184,-1.300,26.208,11.189,4.087,24.793,13.752,-3.893,16.364,9.050,15.732,3.325,5.169
Mon Dec 02 21:05:56 2024,790,-19.089,-19.089,-7.153,-7.153,-1.293,26.221,11.201,4.083,24.798,13.766,-3.875,16.818,9.078,15.743,3.316,5.178
Mon Dec 02 21:05:56 2024,795,-19.062,-19.062,-7.122,-7.122,-1.286,26.233,11.212,4.078,24.802,13.779,-3.857,17.272,9.106,15.753,3.306,5.187
Mon Dec 02 21:05:56 2024,800,-19.034,-19.034,-7.092,-7.092,-1.278,26.246,11.224,4.073,24.806,13.793,-3.839,17.727,9.134,15.763,3.297,5.196
Mon Dec 02 21:05:56 2024,805,-19.007,-19.007,-7.061,-7.061,-1.271,26.259,11.236,4.069,24.810,13.807,-3.822,18.181,9.162,15.773,3.288,5.205
Mon Dec 02 21:05:56 2024,810,-18.980,-18.980,-7.031,-7.031,-1.264,26.271,11.248,4.064,24.815,13.821,-3.804,18.636,9.190,15.784,3.279,5.214
Mon Dec 02 21:05:56 2024,815,-18.952,-18.952,-7.000,-7.000,-1.256,26.284,11.260,4.059,24.819,13.834,-3.786,19.090,9.218,15.794,3.270,5.224
Mon Dec 02 21:05:56 2024,820,-18.925,-18.925,-6.969,-6.969,-1.249,26.296,11.272,4.055,24.823,13.848,-3.768,19.544,9.247,15.804,3.261,5.233
Mon Dec 02 21:05:56 2024,825,-18.898,-18.898,-6.939,-6.939,-1.242,26.309,11.284,4.050,24.827,13.862,-3.750,19.999,9.275,15.815,3.252,5.242
Mon Dec 02 21:05:56 2024,830,-18.870,-18.870,-6.908,-6.908,-1.234,26.322,11.296,4.045,24.831,13.876,-3.733,20.453,9.303,15.825,3.243,5.251
Mon Dec 02 21:05:56 2024,835,-18.843,-18.843,-6.878,-6.878,-1.227,26.334,11.308,4.041,24.836,13.890,-3.715,20.908,9.331,15.835,3.234,5.260
Mon Dec 02 21:05:56 2024,840,-18.816,-18.816,-6.847,-6.847,-1.220,26.347,11.320,4.036,24.840,13.903,-3.697,21.362,9.359,15.846,3.225,5.269
Mon Dec 02 21:05:56 2024,845,-18.788,-18.788,-6.816,-6.816,-1.212,26.360,11.332,4.032,24.844,13.917,-3.679,21.816,9.387,15.856,3.215,5.278
Mon Dec 02 21:05:56 2024,850,-18.761,-18.761,-6.786,-6.786,-1.205,26.372,11.344,4.027,24.848,13.931,-3.661,22.271,9.416,15.866,3.206,5.287
Mon Dec 02 21:05:56 2024,855,-18.734,-18.734,-6.755,-6.755,-1.198,26.385,11.356,4.022,24.853,13.944,-3.644,22.725,9.444,15.876,3.197,5.296
Mon Dec 02 21:05:56 2024,860,-18.706,-18.706,-6.725,-6.725,-1.190,26.397,11.368,4.018,24.857,13.958,-3.626,23.180,9.472,15.887,3.188,5.305
Mon Dec 02 21:05:56 2024,865,-18.679,-18.679,-6.694,-6.694,-1.183,26.410,11.380,4.013,24.861,13.972,-3.608,23.634,9.500,15.897,3.179,5.314
Mon Dec 02 21:05:56 2024,870,-18.632,-18.632,-6.654,-6.654,-1.163,26.433,11.407,3.975,24.836,14.026,-3.572,23.591,9.575,15.849,3.240,5.344
Mon Dec 02 21:05:56 2024,875,-18.530,-18.530,-6.740,-6.740,-1.140,26.406,11.426,3.949,24.837,14.152,-3.543,23.558,9.665,15.799,3.316,5.422
Mon Dec 02 21:05:56 2024,880,-18.442,-18.442,-6.810,-6.810,-1.115,26.388,11.452,3.933,24.848,14.271,-3.509,23.520,9.751,15.747,3.388,5.489
Mon Dec 02 21:05:56 2024,885,-18.442,-18.442,-6.725,-6.725,-1.019,26.483,11.615,4.036,25.014,14.475,-3.346,23.351,9.879,15.595,3.495,5.478
Mon Dec 02 21:05:56 2024,890,-18.441,-18.441,-6.655,-6.655,-0.938,26.564,11.751,4.124,25.154,14.645,-3.210,23.211,9.988,15.468,3.584,5.470
Mon Dec 02 21:05:56 2024,895,-18.420,-18.420,-6.593,-6.593,-0.767,26.758,12.014,4.192,25.269,14.759,-3.067,23.066,10.088,15.416,3.647,5.495
Mon Dec 02 21:05:56 2024,900,-18.383,-18.383,-6.543,-6.543,-0.535,27.046,12.369,4.236,25.349,14.808,-2.934,22.958,10.173,15.440,3.678,5.547
Mon Dec 02 21:05:56 2024,905,-18.360,-18.360,-6.489,-6.489,-0.302,27.352,12.740,4.286,25.427,14.876,-2.824,22.896,10.246,15.447,3.706,5.588
Mon Dec 02 21:05:56 2024,910,-18.405,-18.405,-6.391,-6.391,0.276,27.883,13.373,4.390,25.527,15.073,-2.788,22.859,10.298,15.361,3.736,5.581
Mon Dec 02 21:05:56 2024,915,-18.441,-18.441,-6.312,-6.312,0.639,28.337,13.895,4.475,25.609,15.235,-2.758,22.829,10.341,15.291,3.761,5.576
Mon Dec 02 21:05:56 2024,920,-18.520,-18.520,-6.128,-6.128,1.295,29.118,14.693,4.584,25.600,15.248,-2.734,22.808,10.284,15.139,3.819,5.512
Mon Dec 02 21:05:56 2024,925,-18.611,-18.611,-5.917,-5.917,2.027,30.007,15.560,4.695,25.566,15.202,-2.714,22.792,10.192,14.965,3.884,5.432
Mon Dec 02 21:05:56 2024,930,-18.695,-18.695,-5.725,-5.725,2.762,31.079,16.720,4.861,25.616,15.187,-2.720,22.802,10.100,14.784,3.940,5.341
Mon Dec 02 21:05:56 2024,935,-18.765,-18.765,-5.580,-5.580,3.506,32.569,18.657,5.173,25.863,15.249,-2.790,22.879,10.005,14.583,3.982,5.225
Mon Dec 02 21:05:56 2024,940,-18.838,-18.838,-5.429,-5.429,4.303,34.157,20.748,5.496,26.125,15.314,-2.864,22.959,9.907,14.372,4.018,5.105
Mon Dec 02 21:05:56 2024,945,-18.855,-18.855,-5.333,-5.333,4.661,35.540,22.942,5.764,26.310,15.246,-2.943,23.018,9.839,14.152,4.112,5.044
Mon Dec 02 21:05:56 2024,950,-18.862,-18.862,-5.235,-5.235,4.981,37.096,25.561,6.058,26.514,15.140,-3.034,23.087,9.768,13.899,4.227,4.989
Mon Dec 02 21:05:56 2024,955,-18.828,-18.828,-5.167,-5.167,5.238,38.992,28.417,6.273,26.645,15.048,-3.175,23.192,9.642,13.604,4.383,4.834
Mon Dec 02 21:05:56 2024,960,-18.757,-18.757,-5.155,-5.155,5.332,40.613,30.544,6.326,26.641,15.003,-3.326,23.323,9.496,13.363,4.537,4.616
Mon Dec 02 21:05:56 2024,965,-18.679,-18.679,-5.142,-5.142,5.448,42.442,32.979,6.385,26.643,14.953,-3.494,23.504,9.334,13.094,4.705,4.375
Mon Dec 02 21:05:56 2024,970,-18.666,-18.666,-5.086,-5.086,5.275,44.377,35.813,6.465,26.743,14.959,-3.588,23.607,9.336,12.922,4.920,4.298
Mon Dec 02 21:05:56 2024,975,-18.663,-18.663,-5.030,-5.030,5.092,46.150,38.513,6.539,26.848,14.971,-3.662,23.688,9.360,12.780,5.119,4.249
Mon Dec 02 21:05:56 2024,980,-18.482,-18.482,-5.070,-5.070,5.137,48.736,42.800,6.676,26.993,14.979,-3.661,23.704,9.342,12.618,5.289,4.146
Mon Dec 02 21:05:56 2024,985,-18.133,-18.133,-5.220,-5.220,5.486,51.618,48.188,6.851,27.146,14.977,-3.570,16.358,9.275,12.480,5.374,4.004
Mon Dec 02 21:05:56 2024,990,-17.751,-17.751,-5.383,-5.383,6.038,54.922,54.602,7.019,27.301,14.971,-3.471,16.427,9.200,12.327,5.466,3.851
Mon Dec 02 21:05:56 2024,995,-17.349,-17.349,-5.529,-5.529,7.753,59.805,63.217,6.928,27.337,14.905,-3.357,23.382,9.113,12.155,5.560,3.715
Mon Dec 02 21:05:57 2024,0,-16.962,-16.962,-5.681,-5.681,9.735,64.825,72.582,6.847,27.399,14.841,-3.239,23.236,9.029,11.987,5.652,3.584
Mon Dec 02 21:05:57 2024,5,-16.842,-16.842,-5.874,-5.874,10.777,67.530,78.636,6.740,27.270,15.031,-3.351,23.354,8.933,11.800,5.686,3.603
Mon Dec 02 21:05:57 2024,10,-16.900,-16.900,-6.075,-6.075,11.058,68.605,82.309,6.622,27.034,15.361,-3.594,16.335,8.837,11.614,5.674,3.710
Mon Dec 02 21:05:57 2024,15,-16.959,-16.959,-6.240,-6.240,11.303,69.512,85.338,6.526,26.848,15.634,-3.793,16.033,8.759,11.463,5.657,3.799
Mon Dec 02 21:05:57 2024,20,-16.867,-16.867,-6.047,-6.047,12.230,69.901,87.980,6.598,26.869,16.216,-3.937,15.806,9.052,11.211,5.682,3.985
Mon Dec 02 21:05:57 2024,25,-16.773,-16.773,-5.852,-5.852,13.212,70.295,90.530,6.674,26.898,16.805,-4.079,15.570,9.351,10.957,5.698,4.173
Mon Dec 02 21:05:57 2024,30,-16.721,-16.721,-5.768,-5.768,13.702,71.533,92.644,6.667,26.973,17.058,-4.122,15.594,9.476,10.760,5.878,4.171
Mon Dec 02 21:05:57 2024,35,-16.687,-16.687,-5.734,-5.734,13.989,73.085,94.434,6.626,27.090,17.167,-4.122,15.705,9.525,10.593,6.122,4.091
Mon Dec 02 21:05:57 2024,40,-16.664,-16.664,-5.700,-5.700,14.342,75.034,96.418,6.603,27.303,17.310,-4.095,15.826,9.594,10.406,6.406,4.017
Mon Dec 02 21:05:57 2024,45,-16.706,-16.706,-5.697,-5.697,14.381,76.028,97.123,6.669,27.497,17.395,-4.009,15.930,9.647,10.365,6.494,4.047
Mon Dec 02 21:05:57 2024,50,-16.763,-16.763,-5.694,-5.694,14.469,77.364,98.007,6.755,27.768,17.514,-3.893,23.935,9.720,10.312,6.611,4.086
Mon Dec 02 21:05:57 2024,55,-16.746,-16.746,-5.742,-5.742,14.612,78.261,98.547,6.848,28.013,17.610,-3.698,23.705,9.847,10.302,6.703,4.108
Mon Dec 02 21:05:57 2024,60,-16.702,-16.702,-5.810,-5.810,14.789,79.092,99.016,6.951,28.274,17.708,-3.460,23.460,10.006,10.305,6.794,4.126
Mon Dec 02 21:05:57 2024,65,-16.662,-16.662,-5.860,-5.860,15.026,79.946,99.419,7.040,28.522,17.792,-3.261,23.297,10.118,10.306,6.879,4.127
Mon Dec 02 21:05:57 2024,70,-16.625,-16.625,-5.855,-5.855,15.570,81.219,99.741,7.101,28.792,17.844,-3.149,23.218,10.061,10.297,6.975,4.051
Mon Dec 02 21:05:57 2024,75,-16.587,-16.587,-5.849,-5.849,16.168,82.537,100.039,7.165,29.082,17.899,-3.033,23.149,10.003,10.288,7.072,3.972
Mon Dec 02 21:05:57 2024,80,-16.562,-16.562,-5.706,-5.706,16.562,83.435,100.038,7.242,29.422,17.965,-2.815,23.038,10.074,10.300,7.152,3.956
Mon Dec 02 21:05:57 2024,85,-16.541,-16.541,-5.554,-5.554,16.883,84.160,99.976,7.314,29.742,18.026,-2.600,22.966,10.165,10.314,7.220,3.952
Mon Dec 02 21:05:57 2024,90,-16.535,-16.535,-5.380,-5.380,17.316,85.017,99.938,7.424,30.171,18.196,-2.404,22.898,10.228,10.250,7.320,3.891
Mon Dec 02 21:05:57 2024,95,-16.555,-16.555,-5.278,-5.278,17.636,85.543,99.967,7.526,30.493,18.424,-2.357,22.827,10.213,10.107,7.408,3.781
Mon Dec 02 21:05:57 2024,100,-16.582,-16.582,-5.134,-5.134,18.106,86.283,99.980,7.671,30.966,18.745,-2.290,22.736,10.198,9.912,7.533,3.632
Mon Dec 02 21:05:57 2024,105,-16.598,-16.598,-4.982,-4.982,18.613,86.929,99.828,7.804,31.519,19.011,-2.229,22.752,10.250,9.796,7.661,3.551
Mon Dec 02 21:05:57 2024,110,-16.615,-16.615,-4.820,-4.820,19.174,87.605,99.633,7.946,32.139,19.288,-2.162,22.795,10.318,9.686,7.801,3.477
Mon Dec 02 21:05:57 2024,115,-16.625,-16.625,-4.659,-4.659,19.757,88.409,99.487,8.079,32.816,19.565,-2.088,22.947,10.393,9.569,7.949,3.373
Mon Dec 02 21:05:57 2024,120,-16.626,-16.626,-4.548,-4.548,20.191,89.119,99.438,8.161,33.352,19.758,-2.025,23.189,10.452,9.480,8.062,3.266
Mon Dec 02 21:05:57 2024,125,-16.629,-16.629,-4.439,-4.439,20.627,89.809,99.383,8.244,33.884,19.950,-1.963,23.450,10.512,9.393,8.173,3.163
Mon Dec 02 21:05:57 2024,130,-16.698,-16.698,-4.310,-4.310,20.926,90.286,99.270,8.326,34.268,20.214,-1.868,23.592,10.628,9.237,8.282,3.125
Mon Dec 02 21:05:57 2024,135,-16.772,-16.772,-4.173,-4.173,21.253,90.794,99.145,8.416,34.684,20.501,-1.764,23.756,10.755,9.070,8.399,3.086
Mon Dec 02 21:05:57 2024,140,-16.746,-16.746,-4.148,-4.148,21.539,91.191,99.016,8.531,35.052,20.679,-1.674,23.984,10.805,9.009,8.494,3.012
Mon Dec 02 21:05:57 2024,145,-16.664,-16.664,-4.188,-4.188,21.780,91.494,98.895,8.652,35.365,20.781,-1.596,24.239,10.806,9.017,8.571,2.922
Mon Dec 02 21:05:57 2024,150,-16.577,-16.577,-4.231,-4.231,22.050,91.828,98.760,8.787,35.709,20.895,-1.510,24.529,10.809,9.025,8.653,2.823
Mon Dec 02 21:05:57 2024,155,-16.613,-16.613,-4.113,-4.113,22.415,92.146,98.623,8.927,35.870,21.104,-1.367,24.709,10.875,8.965,8.663,2.737
Mon Dec 02 21:05:57 2024,160,-16.643,-16.643,-4.017,-4.017,22.718,92.408,98.509,9.043,36.004,21.276,-1.249,24.864,10.929,8.916,8.670,2.667
Mon Dec 02 21:05:57 2024,165,-16.736,-16.736,-3.942,-3.942,23.006,92.676,98.348,9.123,36.179,21.476,-1.186,24.994,10.960,8.770,8.799,2.563
Mon Dec 02 21:05:57 2024,170,-16.878,-16.878,-3.900,-3.900,23.231,92.905,98.167,9.154,36.368,21.672,-1.188,25.074,10.963,8.554,9.025,2.441
Mon Dec 02 21:05:57 2024,175,-16.994,-16.994,-3.851,-3.851,23.448,93.112,98.027,9.207,36.546,21.850,-1.182,25.129,10.988,8.377,9.198,2.363
Mon Dec 02 21:05:57 2024,180,-17.091,-17.091,-3.736,-3.736,23.775,93.374,97.956,9.379,36.802,22.082,-1.137,25.125,11.122,8.238,9.278,2.403
Mon Dec 02 21:05:57 2024,185,-17.213,-17.213,-3.596,-3.596,24.187,93.700,97.865,9.595,37.123,22.374,-1.082,25.122,11.292,8.064,9.376,2.454
Mon Dec 02 21:05:57 2024,190,-17.282,-17.282,-3.557,-3.557,24.497,93.893,97.768,9.787,37.454,22.662,-0.962,25.347,11.443,8.019,9.415,2.421
Mon Dec 02 21:05:57 2024,195,-17.336,-17.336,-3.549,-3.549,24.791,94.053,97.661,9.983,37.809,22.969,-0.815,25.671,11.598,8.017,9.435,2.357
Mon Dec 02 21:05:57 2024,200,-17.397,-17.397,-3.523,-3.523,25.214,94.335,97.563,10.219,38.256,23.379,-0.678,26.020,11.777,7.997,9.492,2.304
Mon Dec 02 21:05:57 2024,205,-17.423,-17.423,-3.474,-3.474,25.592,94.683,97.570,10.349,38.549,23.689,-0.686,26.114,11.860,7.951,9.592,2.324
Mon Dec 02 21:05:57 2024,210,-17.453,-17.453,-3.420,-3.420,26.028,95.078,97.575,10.498,38.884,24.045,-0.696,26.222,11.955,7.898,9.707,2.347
Mon Dec 02 21:05:57 2024,215,-17.433,-17.433,-3.417,-3.417,26.116,95.079,97.447,10.579,39.065,24.305,-0.688,26.327,11.962,7.868,9.762,2.285
Mon Dec 02 21:05:57 2024,220,-17.392,-17.392,-3.435,-3.435,26.074,94.925,97.256,10.640,39.200,24.546,-0.674,26.437,11.934,7.846,9.798,2.185
Mon Dec 02 21:05:57 2024,225,-17.366,-17.366,-3.440,-3.440,26.132,94.903,97.143,10.712,39.339,24.748,-0.647,26.522,11.949,7.811,9.845,2.129
Mon Dec 02 21:05:57 2024,230,-17.364,-17.364,-3.417,-3.417,26.382,95.119,97.155,10.814,39.508,24.909,-0.590,26.575,12.048,7.750,9.919,2.141
Mon Dec 02 21:05:57 2024,235,-17.362,-17.362,-3.396,-3.396,26.621,95.323,97.165,10.912,39.669,25.062,-0.536,26.625,12.142,7.691,9.988,2.152
Mon Dec 02 21:05:57 2024,240,-17.382,-17.382,-3.346,-3.346,26.772,95.380,97.220,10.980,39.746,25.142,-0.466,26.722,12.164,7.663,10.006,2.109
Mon Dec 02 21:05:57 2024,245,-17.402,-17.402,-3.302,-3.302,26.864,95.386,97.271,11.023,39.783,25.184,-0.411,26.806,12.163,7.651,10.006,2.064
Mon Dec 02 21:05:57 2024,250,-17.402,-17.402,-3.286,-3.286,26.914,95.410,97.298,11.062,39.836,25.248,-0.386,26.852,12.201,7.620,10.026,2.064
Mon Dec 02 21:05:57 2024,255,-17.374,-17.374,-3.304,-3.304,26.914,95.452,97.294,11.096,39.908,25.340,-0.400,26.851,12.288,7.566,10.072,2.124
Mon Dec 02 21:05:57 2024,260,-17.344,-17.344,-3.327,-3.327,26.920,95.486,97.296,11.125,39.976,25.434,-0.417,26.853,12.372,7.512,10.117,2.176
Mon Dec 02 21:05:57 2024,265,-17.284,-17.284,-3.378,-3.378,27.012,95.410,97.355,11.095,39.957,25.524,-0.440,26.889,12.396,7.465,10.144,2.128
Mon Dec 02 21:05:57 2024,270,-17.226,-17.226,-3.431,-3.431,27.111,95.323,97.417,11.058,39.926,25.606,-0.462,26.928,12.408,7.423,10.165,2.069
Mon Dec 02 21:05:57 2024,275,-17.190,-17.190,-3.446,-3.446,27.093,95.236,97.454,11.060,39.886,25.627,-0.454,26.964,12.460,7.398,10.168,2.058
Mon Dec 02 21:05:57 2024,280,-17.186,-17.186,-3.409,-3.409,26.924,95.157,97.455,11.111,39.836,25.567,-0.407,26.993,12.554,7.395,10.145,2.110
Mon Dec 02 21:05:57 2024,285,-17.183,-17.183,-3.373,-3.373,26.753,95.077,97.455,11.162,39.786,25.506,-0.360,27.023,12.650,7.392,10.121,2.162
Mon Dec 02 21:05:57 2024,290,-17.160,-17.160,-3.320,-3.320,26.290,94.817,97.561,11.096,39.722,25.335,-0.386,27.022,12.701,7.337,10.140,2.229
Mon Dec 02 21:05:57 2024,295,-17.140,-17.140,-3.276,-3.276,25.892,94.591,97.649,11.041,39.666,25.187,-0.408,27.021,12.747,7.290,10.154,2.288
Mon Dec 02 21:05:57 2024,300,-17.044,-17.044,-3.294,-3.294,25.386,94.196,97.674,10.954,39.528,24.955,-0.446,26.991,12.782,7.208,10.164,2.333
Mon Dec 02 21:05:57 2024,305,-16.886,-16.886,-3.375,-3.375,24.844,93.687,97.629,10.848,39.326,24.670,-0.494,26.935,12.803,7.102,10.166,2.357
Mon Dec 02 21:05:57 2024,310,-16.749,-16.749,-3.458,-3.458,24.217,93.158,97.569,10.727,39.093,24.384,-0.545,26.903,12.850,7.024,10.157,2.402
Mon Dec 02 21:05:57 2024,315,-16.648,-16.648,-3.567,-3.567,23.092,92.412,97.442,10.516,38.676,24.015,-0.617,26.950,13.004,7.026,10.111,2.537
Mon Dec 02 21:05:57 2024,320,-16.546,-16.546,-3.682,-3.682,21.978,91.648,97.295,10.303,38.252,23.641,-0.692,26.999,13.161,7.028,10.064,2.677
Mon Dec 02 21:05:57 2024,325,-16.391,-16.391,-3.850,-3.850,20.748,90.596,97.154,10.055,37.915,23.211,-0.833,26.893,13.158,7.101,10.116,2.779
Mon Dec 02 21:05:57 2024,330,-16.258,-16.258,-3.997,-3.997,19.824,89.713,97.042,9.861,37.707,22.879,-0.961,26.757,13.090,7.182,10.191,2.838
Mon Dec 02 21:05:57 2024,335,-16.105,-16.105,-4.176,-4.176,18.749,88.645,96.948,9.571,37.348,22.412,-1.096,26.604,13.028,7.238,10.258,2.931
Mon Dec 02 21:05:57 2024,340,-16.030,-16.030,-4.276,-4.276,18.121,88.003,97.086,9.220,36.805,21.923,-1.119,26.537,13.055,7.149,10.234,3.049
Mon Dec 02 21:05:57 2024,345,-15.981,-15.981,-4.358,-4.358,17.517,87.279,97.178,8.896,36.268,21.468,-1.157,26.457,13.078,7.071,10.213,3.163
Mon Dec 02 21:05:57 2024,350,-15.992,-15.992,-4.401,-4.401,16.891,86.300,97.171,8.598,35.691,21.037,-1.238,26.338,13.100,7.017,10.201,3.279
Mon Dec 02 21:05:57 2024,355,-16.054,-16.054,-4.399,-4.399,16.428,85.351,97.062,8.403,35.234,20.746,-1.336,26.219,13.113,6.998,10.202,3.366
Mon Dec 02 21:05:57 2024,360,-16.081,-16.081,-4.365,-4.365,15.894,84.057,96.765,8.134,34.681,20.321,-1.529,26.074,13.025,6.908,10.250,3.416
Mon Dec 02 21:05:57 2024,365,-16.004,-16.004,-4.285,-4.285,15.599,83.012,96.299,7.905,34.347,19.922,-1.786,25.993,12.781,6.730,10.370,3.345
Mon Dec 02 21:05:57 2024,370,-15.912,-15.912,-4.185,-4.185,15.283,81.741,95.680,7.624,33.943,19.447,-2.101,25.917,12.486,6.512,10.515,3.257
Mon Dec 02 21:05:57 2024,375,-15.905,-15.905,-3.935,-3.935,15.005,79.981,93.992,7.401,33.432,18.965,-2.441,25.680,12.198,6.236,10.503,3.150
Mon Dec 02 21:05:57 2024,380,-15.914,-15.914,-3.656,-3.656,14.819,78.144,91.925,7.186,32.901,18.489,-2.787,25.455,11.914,5.947,10.446,3.041
Mon Dec 02 21:05:57 2024,385,-15.927,-15.927,-3.511,-3.511,14.283,76.464,89.073,6.894,32.368,17.714,-3.024,25.365,11.556,5.727,10.442,2.843
Mon Dec 02 21:05:57 2024,390,-15.937,-15.937,-3.628,-3.628,13.502,75.904,86.927,6.662,32.126,16.961,-2.980,25.447,11.296,5.721,10.529,2.638
Mon Dec 02 21:05:57 2024,395,-15.950,-15.950,-3.763,-3.763,12.669,75.290,84.481,6.406,31.858,16.132,-2.932,25.542,11.007,5.715,10.626,2.413
Mon Dec 02 21:05:57 2024,400,-15.863,-15.863,-3.593,-3.593,11.185,73.657,78.473,6.479,32.087,15.484,-2.803,25.744,10.626,5.790,10.897,2.068
Mon Dec 02 21:05:57 2024,405,-15.776,-15.776,-3.403,-3.403,9.980,72.205,72.778,6.592,32.356,14.980,-2.687,25.939,10.298,5.863,11.142,1.765
Mon Dec 02 21:05:57 2024,410,-15.913,-15.913,-3.179,-3.179,8.164,68.466,63.867,6.582,32.275,14.580,-2.867,25.815,9.891,5.868,11.344,1.670
Mon Dec 02 21:05:57 2024,415,-16.309,-16.309,-2.973,-2.973,6.244,62.942,53.704,6.428,31.772,14.422,-3.361,25.390,9.503,5.788,11.448,1.866
Mon Dec 02 21:05:57 2024,420,-16.711,-16.711,-2.779,-2.779,4.707,57.755,45.146,6.283,31.282,14.269,-3.834,25.105,9.137,5.708,11.551,2.064
Mon Dec 02 21:05:57 2024,425,-16.872,-16.872,-2.726,-2.726,4.109,53.826,39.228,5.866,30.420,13.874,-3.810,25.008,8.975,5.881,11.409,2.239
Mon Dec 02 21:05:57 2024,430,-17.016,-17.016,-2.678,-2.678,3.705,50.317,34.283,5.491,29.642,13.512,-3.786,24.920,8.830,6.039,11.279,2.400
Mon Dec 02 21:05:57 2024,435,-17.006,-17.006,-2.671,-2.671,3.302,47.134,30.206,5.231,29.024,13.253,-3.528,24.732,8.738,6.484,11.042,2.606
Mon Dec 02 21:05:57 2024,440,-16.891,-16.891,-2.694,-2.694,2.949,44.839,27.400,5.106,28.651,13.118,-3.161,24.530,8.700,7.033,10.762,2.801
Mon Dec 02 21:05:57 2024,445,-16.775,-16.775,-2.721,-2.721,2.622,42.535,24.705,4.980,28.276,12.980,-2.791,24.352,8.662,7.587,10.452,3.001
Mon Dec 02 21:05:57 2024,450,-16.740,-16.740,-2.899,-2.899,2.441,40.747,22.448,4.797,27.896,13.020,-2.515,24.183,8.705,7.884,10.241,3.084
Mon Dec 02 21:05:57 2024,455,-16.710,-16.710,-3.084,-3.084,2.282,39.031,20.318,4.614,27.520,13.067,-2.248,24.026,8.750,8.166,10.034,3.162
Mon Dec 02 21:05:57 2024,460,-16.647,-16.647,-3.230,-3.230,2.102,37.758,18.696,4.476,27.273,13.003,-2.071,23.881,8.785,8.343,9.943,3.221
Mon Dec 02 21:05:57 2024,465,-16.553,-16.553,-3.368,-3.368,1.878,36.639,17.213,4.356,27.086,12.850,-1.935,23.719,8.817,8.468,9.924,3.274
Mon Dec 02 21:05:57 2024,470,-16.472,-16.472,-3.488,-3.488,1.690,35.691,15.978,4.252,26.926,12.719,-1.817,23.580,8.844,8.575,9.905,3.321
Mon Dec 02 21:05:57 2024,475,-16.506,-16.506,-3.585,-3.585,1.354,34.752,15.198,4.032,26.471,12.717,-1.738,23.517,9.032,8.316,10.168,3.434
Mon Dec 02 21:05:57 2024,480,-16.529,-16.529,-3.688,-3.688,1.030,33.786,14.357,3.816,26.028,12.701,-1.650,23.444,9.212,8.086,10.413,3.546
Mon Dec 02 21:05:57 2024,485,-16.530,-16.530,-3.795,-3.795,0.749,33.076,13.660,3.703,25.853,12.617,-1.633,23.392,9.286,7.911,10.677,3.591
Mon Dec 02 21:05:57 2024,490,-16.524,-16.524,-3.909,-3.909,0.500,32.408,12.972,3.613,25.744,12.510,-1.633,23.343,9.334,7.743,10.957,3.622
Mon Dec 02 21:05:57 2024,495,-16.519,-16.519,-4.018,-4.018,0.372,31.782,12.329,3.527,25.640,12.408,-1.634,23.297,9.381,7.585,11.221,3.651
Mon Dec 02 21:05:57 2024,500,-16.524,-16.524,-4.060,-4.060,-0.479,31.075,11.790,3.396,25.415,12.293,-1.523,23.308,9.458,7.441,11.409,3.701
Mon Dec 02 21:05:57 2024,505,-16.526,-16.526,-4.096,-4.096,-0.655,30.591,11.403,3.308,25.267,12.213,-1.453,23.313,9.510,7.339,11.549,3.736
Mon Dec 02 21:05:57 2024,510,-16.512,-16.512,-4.178,-4.178,-0.926,29.957,10.893,3.144,25.013,12.014,-1.439,23.262,9.494,7.246,11.714,3.729
Mon Dec 02 21:05:57 2024,515,-16.497,-16.497,-4.244,-4.244,-1.122,29.530,10.546,3.019,24.823,11.850,-1.453,23.210,9.459,7.195,11.819,3.709
Mon Dec 02 21:05:57 2024,520,-16.459,-16.459,-4.321,-4.321,-1.395,29.009,10.127,2.863,24.580,11.658,-1.442,23.162,9.443,7.147,11.965,3.725
Mon Dec 02 21:05:57 2024,525,-16.394,-16.394,-4.350,-4.350,-1.592,28.726,9.920,2.781,24.434,11.580,-1.371,23.172,9.500,7.152,12.075,3.827
Mon Dec 02 21:05:57 2024,530,-16.325,-16.325,-4.382,-4.382,-1.805,28.431,9.698,2.693,24.277,11.495,-1.295,23.185,9.561,7.157,12.186,3.938
Mon Dec 02 21:05:57 2024,535,-16.288,-16.288,-4.521,-4.521,-2.067,28.065,9.445,2.618,24.089,11.478,-1.271,23.092,9.605,7.132,12.295,4.033
Mon Dec 02 21:05:57 2024,540,-16.265,-16.265,-4.680,-4.680,-2.314,27.732,9.216,2.555,23.913,11.487,-1.270,22.973,9.639,7.099,12.389,4.112
Mon Dec 02 21:05:57 2024,545,-16.254,-16.254,-4.773,-4.773,-2.543,27.439,9.015,2.496,23.758,11.454,-1.276,22.861,9.628,7.061,12.464,4.149
Mon Dec 02 21:05:57 2024,550,-16.259,-16.259,-4.779,-4.779,-2.833,27.091,8.784,2.419,23.581,11.324,-1.301,22.717,9.530,7.000,12.539,4.121
Mon Dec 02 21:05:57 2024,555,-16.265,-16.265,-4.785,-4.785,-3.123,26.778,8.556,2.342,23.406,11.195,-1.326,22.579,9.432,6.940,12.614,4.094
Mon Dec 02 21:05:57 2024,560,-16.194,-16.194,-4.816,-4.816,-3.297,26.544,8.423,2.300,23.237,11.124,-1.227,22.443,9.400,6.876,12.688,4.070
Mon Dec 02 21:05:57 2024,565,-16.104,-16.104,-4.855,-4.855,-3.497,26.293,8.275,2.252,23.041,11.044,-1.099,22.283,9.368,6.799,12.777,4.044
Mon Dec 02 21:05:57 2024,570,-16.072,-16.072,-4.888,-4.888,-3.676,26.115,8.185,2.175,22.798,10.948,-1.053,22.172,9.338,6.722,12.873,4.055
Mon Dec 02 21:05:57 2024,575,-16.094,-16.094,-4.919,-4.919,-3.858,25.976,8.142,2.055,22.480,10.824,-1.084,22.098,9.306,6.633,12.990,4.107
Mon Dec 02 21:05:57 2024,580,-16.114,-16.114,-4.949,-4.949,-4.033,25.863,8.100,1.942,22.202,10.707,-1.111,22.028,9.275,6.549,13.100,4.155
Mon Dec 02 21:05:57 2024,585,-16.128,-16.128,-4.895,-4.895,-4.169,25.802,8.054,1.965,22.174,10.633,-1.041,21.961,9.244,6.372,13.259,4.132
Mon Dec 02 21:05:57 2024,590,-16.136,-16.136,-4.853,-4.853,-4.247,25.775,8.025,1.995,22.186,10.593,-0.987,21.921,9.225,6.253,13.361,4.110
Mon Dec 02 21:05:57 2024,595,-16.115,-16.115,-4.875,-4.875,-4.349,25.731,7.948,2.005,22.157,10.504,-0.946,21.854,9.162,6.144,13.466,4.073
Mon Dec 02 21:05:57 2024,600,-16.057,-16.057,-4.988,-4.988,-4.452,25.677,7.825,1.983,22.079,10.368,-0.937,21.766,9.055,6.086,13.543,4.028
Mon Dec 02 21:05:57 2024,605,-16.012,-16.012,-5.079,-5.079,-4.552,25.640,7.720,1.961,22.018,10.256,-0.939,21.686,8.965,6.026,13.619,3.992
Mon Dec 02 21:05:57 2024,610,-16.002,-16.002,-5.115,-5.115,-4.682,25.625,7.646,1.931,18.039,10.195,-0.986,21.608,8.912,5.936,13.725,3.980
Mon Dec 02 21:05:57 2024,615,-15.994,-15.994,-5.148,-5.148,-4.822,25.624,7.571,1.898,18.091,10.137,-1.038,21.536,8.859,5.837,13.839,3.969
Mon Dec 02 21:05:57 2024,620,-15.984,-15.984,-5.124,-5.124,-4.911,25.611,7.549,1.934,18.059,10.142,-1.002,21.495,8.864,5.776,13.917,4.020
Mon Dec 02 21:05:57 2024,625,-15.971,-15.971,-5.076,-5.076,-4.980,25.594,7.548,2.001,17.993,10.176,-0.927,21.468,8.894,5.728,13.980,4.099
Mon Dec 02 21:05:57 2024,630,-15.962,-15.962,-5.030,-5.030,-5.059,25.588,7.538,2.039,17.957,10.182,-0.882,21.422,8.897,5.659,14.055,4.152
Mon Dec 02 21:05:57 2024,635,-15.968,-15.968,-5.008,-5.008,-5.157,25.612,7.495,1.972,18.028,10.088,-0.950,21.325,8.800,5.531,14.156,4.100
Mon Dec 02 21:05:57 2024,640,-15.973,-15.973,-4.986,-4.986,-5.252,25.641,7.454,1.908,18.080,9.998,-1.016,21.258,8.707,5.410,14.251,4.049
Mon Dec 02 21:05:57 2024,645,-15.979,-15.979,-4.964,-4.964,-5.346,25.676,7.414,1.842,18.117,9.909,-1.083,21.219,8.614,5.289,14.344,4.000
Mon Dec 02 21:05:57 2024,650,-16.020,-16.020,-4.794,-4.794,-5.411,25.700,7.439,1.774,18.170,9.936,-1.113,21.258,8.684,5.266,14.386,4.159
Mon Dec 02 21:05:57 2024,655,-16.018,-16.018,-4.725,-4.725,-5.484,25.729,7.423,1.740,18.175,9.902,-1.152,21.253,8.653,5.208,14.433,4.182
Mon Dec 02 21:05:57 2024,660,-15.940,-15.940,-4.774,-4.774,-5.554,25.752,7.363,1.794,18.094,9.818,-1.183,21.215,8.513,5.153,14.442,4.052
Mon Dec 02 21:05:57 2024,665,-15.869,-15.869,-4.818,-4.818,-5.619,25.778,7.309,1.842,18.019,9.742,-1.211,21.213,8.385,5.102,14.448,3.934
Mon Dec 02 21:05:57 2024,670,-15.899,-15.899,-4.792,-4.792,-5.692,25.822,7.302,1.808,18.002,9.710,-1.232,21.232,8.428,5.123,14.454,4.031
Mon Dec 02 21:05:57 2024,675,-15.960,-15.960,-4.747,-4.747,-5.762,25.869,7.312,1.749,17.994,9.693,-1.250,21.250,8.524,5.166,14.456,4.191
Mon Dec 02 21:05:57 2024,680,-16.011,-16.011,-4.708,-4.708,-5.822,25.912,7.320,1.700,17.980,9.680,-1.264,21.266,8.607,5.202,14.457,4.329
Mon Dec 02 21:05:57 2024,685,-16.026,-16.026,-4.704,-4.704,-5.853,25.932,7.158,1.715,17.974,9.557,-1.302,18.673,8.366,5.264,14.374,4.193
Mon Dec 02 21:05:57 2024,690,-16.042,-16.042,-4.697,-4.697,-5.880,25.952,7.060,1.718,17.968,9.480,-1.328,18.620,8.230,5.307,14.323,4.128
Mon Dec 02 21:05:57 2024,695,-16.053,-16.053,-4.704,-4.704,-5.884,25.950,7.103,1.674,17.929,9.495,-1.431,18.474,8.202,5.386,14.241,4.173
Mon Dec 02 21:05:57 2024,700,-16.062,-16.062,-4.716,-4.716,-5.880,25.943,7.180,1.622,17.872,9.533,-1.549,18.303,8.204,5.469,14.156,4.244
Mon Dec 02 21:05:57 2024,705,-16.043,-16.043,-4.746,-4.746,-5.846,25.908,7.236,1.567,17.789,9.564,-1.650,18.140,8.235,5.548,14.080,4.338
Mon Dec 02 21:05:57 2024,710,-15.985,-15.985,-4.806,-4.806,-5.766,25.829,7.284,1.494,17.648,9.595,-1.756,17.941,8.310,5.639,13.996,4.483
Mon Dec 02 21:05:57 2024,715,-15.924,-15.924,-4.870,-4.870,-5.681,25.746,7.335,1.417,17.476,9.628,-1.869,17.721,8.390,5.737,13.907,4.638
Mon Dec 02 21:05:57 2024,720,-15.878,-15.878,-4.919,-4.919,-5.618,25.684,7.372,1.360,17.335,9.653,-1.954,17.553,8.449,5.809,13.840,4.755
Mon Dec 02 21:05:57 2024,725,-15.853,-15.853,-4.946,-4.946,-5.583,25.649,7.393,1.328,17.252,9.668,-2.001,17.457,8.483,5.850,13.803,4.820
Mon Dec 02 21:05:57 2024,730,-16.175,-16.175,-4.920,-4.920,-5.595,25.660,7.350,1.191,17.180,9.425,-2.399,16.656,8.020,5.880,13.550,4.533
Mon Dec 02 21:05:57 2024,735,-16.254,-16.254,-4.933,-4.933,-5.572,25.637,7.352,1.124,17.083,9.362,-2.558,16.326,7.904,5.921,13.434,4.496
Mon Dec 02 21:05:57 2024,740,-16.338,-16.338,-4.947,-4.947,-5.548,25.613,7.355,1.054,16.978,9.295,-2.726,15.974,7.782,5.966,13.308,4.458
Mon Dec 02 21:05:57 2024,745,-16.392,-16.392,-4.913,-4.913,-5.460,25.528,7.369,1.013,16.863,9.295,-2.918,15.484,7.658,6.090,13.107,4.478
Mon Dec 02 21:05:57 2024,750,-16.431,-16.431,-4.879,-4.879,-5.381,25.452,7.383,0.985,16.768,9.304,-3.075,15.066,7.558,6.202,12.934,4.502
Mon Dec 02 21:05:57 2024,755,-16.434,-16.434,-4.872,-4.872,-5.306,25.375,7.430,0.941,16.569,9.246,-3.169,14.816,7.496,6.314,12.761,4.541
Mon Dec 02 21:05:57 2024,760,-16.416,-16.416,-4.879,-4.879,-5.232,25.295,7.501,0.887,16.300,9.146,-3.226,14.667,7.455,6.427,12.585,4.590
Mon Dec 02 21:05:57 2024,765,-16.400,-16.400,-4.886,-4.886,-5.168,25.226,7.562,0.840,16.062,9.061,-3.275,14.537,7.420,6.527,12.431,4.633
Mon Dec 02 21:05:57 2024,770,-16.472,-16.472,-4.940,-4.940,-5.118,25.170,7.540,0.804,15.820,9.084,-3.341,14.241,7.421,6.429,12.432,4.640
Mon Dec 02 21:05:57 2024,775,-16.535,-16.535,-4.989,-4.989,-5.069,25.115,7.527,0.769,15.586,9.100,-3.403,13.967,7.419,6.351,12.416,4.649
Mon Dec 02 21:05:57 2024,780,-16.563,-16.563,-4.930,-4.930,-4.965,25.016,7.539,0.782,15.518,9.074,-3.375,13.894,7.407,6.343,12.375,4.623
Mon Dec 02 21:05:57 2024,785,-16.580,-16.580,-4.798,-4.798,-4.808,24.874,7.568,0.823,15.528,9.021,-3.292,13.916,7.386,6.373,12.312,4.572
Mon Dec 02 21:05:57 2024,790,-16.600,-16.600,-4.700,-4.700,-4.687,24.769,7.589,0.863,15.537,8.981,-3.234,13.926,7.364,6.393,12.272,4.533
Mon Dec 02 21:05:57 2024,795,-16.654,-16.654,-4.720,-4.720,-4.685,24.777,7.587,0.911,15.552,8.988,-3.275,13.876,7.324,6.375,12.322,4.530
Mon Dec 02 21:05:57 2024,800,-16.701,-16.701,-4.738,-4.738,-4.684,24.785,7.585,0.954,15.565,8.993,-3.312,13.833,7.289,6.360,12.365,4.526
Mon Dec 02 21:05:57 2024,805,-16.698,-16.698,-4.788,-4.788,-4.602,24.713,7.521,1.123,15.565,9.028,-3.220,13.805,7.307,6.305,12.326,4.487
Mon Dec 02 21:05:57 2024,810,-16.677,-16.677,-4.834,-4.834,-4.515,24.633,7.451,1.291,15.554,9.064,-3.107,13.788,7.340,6.251,12.263,4.446
Mon Dec 02 21:05:57 2024,815,-16.659,-16.659,-4.875,-4.875,-4.438,24.563,7.390,1.439,15.539,9.096,-3.007,13.770,7.369,6.203,12.204,4.410
Mon Dec 02 21:05:57 2024,820,-16.624,-16.624,-4.839,-4.839,-4.448,24.578,7.409,1.590,15.694,9.097,-2.981,13.797,7.248,6.294,12.122,4.249
Mon Dec 02 21:05:57 2024,825,-16.595,-16.595,-4.816,-4.816,-4.444,24.581,7.415,1.737,15.807,9.102,-2.945,13.816,7.153,6.360,12.046,4.114
Mon Dec 02 21:05:57 2024,830,-16.560,-16.560,-4.779,-4.779,-4.448,24.572,7.437,1.875,15.846,9.158,-2.815,13.861,7.146,6.457,11.926,4.099
Mon Dec 02 21:05:57 2024,835,-16.523,-16.523,-4.737,-4.737,-4.454,24.560,7.464,2.012,15.861,9.229,-2.658,13.911,7.163,6.564,11.792,4.118
Mon Dec 02 21:05:57 2024,840,-16.494,-16.494,-4.702,-4.702,-4.475,24.562,7.480,2.170,15.947,9.305,-2.533,13.957,7.156,6.652,11.684,4.101
Mon Dec 02 21:05:57 2024,845,-16.478,-16.478,-4.680,-4.680,-4.518,24.585,7.475,2.341,16.122,9.382,-2.472,13.994,7.110,6.701,11.628,4.031
Mon Dec 02 21:05:57 2024,850,-16.456,-16.456,-4.670,-4.670,-4.562,24.619,7.488,2.571,16.278,9.502,-2.370,14.105,7.108,6.762,11.547,3.964
Mon Dec 02 21:05:57 2024,855,-16.433,-16.433,-4.674,-4.674,-4.599,24.659,7.518,2.835,16.406,9.652,-2.238,14.280,7.152,6.828,11.451,3.910
Mon Dec 02 21:05:57 2024,860,-16.403,-16.403,-4.693,-4.693,-4.637,24.709,7.570,3.171,16.431,9.855,-2.054,14.546,7.251,6.910,11.325,3.859
Mon Dec 02 21:05:57 2024,865,-16.380,-16.380,-4.708,-4.708,-4.666,24.751,7.612,3.436,16.364,10.014,-1.908,14.758,7.331,6.975,11.225,3.817
Mon Dec 02 21:05:57 2024,870,-16.352,-16.352,-4.671,-4.671,-4.758,24.840,7.709,3.856,16.128,10.291,-1.813,14.883,7.328,6.973,11.061,3.687
Mon Dec 02 21:05:57 2024,875,-16.328,-16.328,-4.650,-4.650,-4.825,24.908,7.783,4.194,15.796,10.506,-1.716,15.014,7.344,6.987,10.927,3.591
Mon Dec 02 21:05:57 2024,880,-16.309,-16.309,-4.634,-4.634,-4.880,24.964,7.842,4.464,15.460,10.676,-1.638,15.118,7.357,6.996,10.818,3.514
Mon Dec 02 21:05:57 2024,885,-16.240,-16.240,-4.634,-4.634,-5.028,25.090,7.736,5.079,25.612,11.308,-1.600,15.369,7.454,6.924,10.523,3.339
Mon Dec 02 21:05:57 2024,890,-16.220,-16.220,-4.610,-4.610,-5.078,25.140,7.731,5.476,26.437,11.672,-1.497,15.637,7.542,6.888,10.376,3.244
Mon Dec 02 21:05:57 2024,895,-16.269,-16.269,-4.534,-4.534,-4.977,25.072,7.797,5.739,27.125,11.936,-1.260,16.156,7.708,6.854,10.411,3.239
Mon Dec 02 21:05:57 2024,900,-16.303,-16.303,-4.473,-4.473,-4.912,25.037,7.845,6.000,27.827,12.192,-1.068,16.589,7.849,6.821,10.408,3.217
Mon Dec 02 21:05:57 2024,905,-16.283,-16.283,-4.409,-4.409,-4.985,25.087,7.821,6.155,28.237,12.328,-0.936,16.847,7.900,6.622,10.414,3.127
Mon Dec 02 21:05:57 2024,910,-16.268,-16.268,-4.348,-4.348,-5.045,25.130,7.803,6.311,28.661,12.465,-0.806,17.108,7.956,6.444,10.412,3.046
Mon Dec 02 21:05:57 2024,915,-16.255,-16.255,-4.298,-4.298,-5.094,25.168,7.788,6.440,29.017,12.579,-0.698,17.323,8.002,6.295,10.407,2.980
Mon Dec 02 21:05:57 2024,920,-16.258,-16.258,-4.263,-4.263,-5.143,25.194,7.593,6.535,29.672,12.763,-0.382,17.929,8.037,5.953,10.537,2.817
Mon Dec 02 21:05:57 2024,925,-16.248,-16.248,-4.235,-4.235,-5.191,25.225,7.419,6.611,30.340,12.944,-0.077,18.507,8.055,5.656,10.662,2.671
Mon Dec 02 21:05:57 2024,930,-16.199,-16.199,-4.224,-4.224,-5.236,25.260,7.370,6.643,30.846,13.085,0.130,18.879,8.030,5.568,10.747,2.594
Mon Dec 02 21:05:57 2024,935,-16.145,-16.145,-4.210,-4.210,-5.286,25.299,7.316,6.678,31.405,13.238,0.351,19.213,8.002,5.471,10.839,2.512
Mon Dec 02 21:05:57 2024,940,-16.059,-16.059,-4.177,-4.177,-5.222,25.230,7.170,6.822,32.281,13.584,0.607,19.339,8.038,5.454,10.934,2.470
Mon Dec 02 21:05:57 2024,945,-15.948,-15.948,-4.131,-4.131,-5.093,25.098,6.964,7.027,33.388,14.055,0.896,20.932,8.111,5.478,11.035,2.445
Mon Dec 02 21:05:57 2024,950,-15.844,-15.844,-4.111,-4.111,-5.008,25.010,6.792,7.133,34.217,14.428,1.102,21.296,8.148,5.478,11.110,2.412
Mon Dec 02 21:05:57 2024,955,-15.674,-15.674,-4.147,-4.147,-4.975,24.973,6.569,7.074,34.959,14.850,1.256,21.745,8.122,5.413,11.183,2.332
Mon Dec 02 21:05:57 2024,960,-15.518,-15.518,-4.180,-4.180,-4.944,24.940,6.364,7.014,35.650,15.244,1.394,22.196,8.095,5.353,11.248,2.270
Mon Dec 02 21:05:57 2024,965,-15.390,-15.390,-4.133,-4.133,-4.720,24.717,6.189,6.922,36.339,15.945,1.539,22.673,8.055,5.395,11.282,2.272
Mon Dec 02 21:05:57 2024,970,-15.283,-15.283,-4.062,-4.062,-4.448,24.446,6.040,6.822,36.982,16.718,1.672,23.121,8.012,5.467,11.302,2.309
Mon Dec 02 21:05:57 2024,975,-15.150,-15.150,-4.016,-4.016,-4.113,24.116,5.898,6.835,37.922,17.695,1.808,23.609,7.995,5.539,11.317,2.374
Mon Dec 02 21:05:57 2024,980,-15.004,-15.004,-4.042,-4.042,-3.746,23.772,5.822,7.107,39.201,18.775,1.909,24.020,8.042,5.587,11.317,2.445
Mon Dec 02 21:05:57 2024,985,-14.876,-14.876,-4.064,-4.064,-3.424,23.488,5.757,7.338,40.342,19.747,1.994,24.385,8.084,5.630,11.318,2.509
Mon Dec 02 21:05:57 2024,990,-14.766,-14.766,-3.999,-3.999,-3.292,23.362,5.583,7.604,41.568,20.806,2.076,24.745,8.053,5.571,11.293,2.471
Mon Dec 02 21:05:57 2024,995,-14.670,-14.670,-3.923,-3.923,-3.209,23.275,5.407,7.851,42.689,21.778,2.150,25.070,8.011,5.499,11.265,2.431
Mon Dec 02 21:05:58 2024,0,-14.606,-14.606,-3.846,-3.846,-3.088,23.137,5.236,8.041,43.778,22.799,2.267,25.469,7.963,5.437,11.184,2.401
Mon Dec 02 21:05:58 2024,5,-14.614,-14.614,-3.775,-3.775,-2.906,22.921,5.097,8.087,44.652,23.788,2.454,25.962,7.905,5.406,11.006,2.377
Mon Dec 02 21:05:58 2024,10,-14.621,-14.621,-3.715,-3.715,-2.751,22.752,4.982,8.125,45.394,24.623,2.611,26.377,7.855,5.379,10.852,2.362
Mon Dec 02 21:05:58 2024,15,-14.660,-14.660,-3.605,-3.605,-2.580,22.579,4.948,8.149,45.869,25.031,2.724,26.593,7.676,5.278,10.705,2.329
Mon Dec 02 21:05:58 2024,20,-14.700,-14.700,-3.492,-3.492,-2.404,22.406,4.916,8.174,46.358,25.450,2.841,26.814,7.492,5.174,10.549,2.304
Mon Dec 02 21:05:58 2024,25,-14.739,-14.739,-3.386,-3.386,-2.235,22.243,4.885,8.197,46.828,25.851,2.953,27.027,7.315,5.074,10.393,2.290
Mon Dec 02 21:05:58 2024,30,-15.060,-15.060,-3.274,-3.274,-2.216,22.222,4.935,8.086,47.112,26.185,3.114,27.090,7.169,5.067,10.071,2.282
Mon Dec 02 21:05:58 2024,35,-15.223,-15.223,-3.196,-3.196,-2.170,22.176,4.952,8.037,47.353,26.435,3.216,27.168,7.061,5.041,9.875,2.277
Mon Dec 02 21:05:58 2024,40,-15.299,-15.299,-3.063,-3.063,-2.081,22.130,4.939,7.833,47.424,26.949,3.339,27.287,6.786,5.133,9.570,2.303
Mon Dec 02 21:05:58 2024,45,-15.350,-15.350,-2.948,-2.948,-2.004,17.872,4.925,7.650,47.466,27.400,3.440,27.388,6.545,5.221,9.310,2.347
Mon Dec 02 21:05:58 2024,50,-15.430,-15.430,-2.824,-2.824,-1.980,17.820,4.996,7.396,47.453,27.683,3.518,27.620,6.402,5.182,8.993,2.410
Mon Dec 02 21:05:58 2024,55,-15.548,-15.548,-2.670,-2.670,-1.994,17.724,5.149,7.037,47.394,27.878,3.588,28.001,6.312,5.029,8.564,2.513
Mon Dec 02 21:05:58 2024,60,-15.657,-15.657,-2.532,-2.532,-2.007,17.629,5.286,6.712,47.346,28.056,3.652,28.344,6.231,4.890,8.166,2.629
Mon Dec 02 21:05:58 2024,65,-15.846,-15.846,-2.293,-2.293,-2.009,17.443,5.372,6.061,46.767,28.108,3.655,29.106,6.310,4.736,7.698,2.605
Mon Dec 02 21:05:58 2024,70,-16.008,-16.008,-2.093,-2.093,-2.012,17.265,5.456,5.501,46.299,28.150,3.661,29.754,6.363,4.599,7.269,2.612
Mon Dec 02 21:05:58 2024,75,-16.146,-16.146,-1.863,-1.863,-2.156,16.734,5.608,4.689,45.605,27.877,3.541,30.354,6.459,4.518,6.795,2.542
Mon Dec 02 21:05:58 2024,80,-16.231,-16.231,-1.695,-1.695,-2.317,16.203,5.741,4.021,45.033,27.526,3.405,30.753,6.543,4.488,6.448,2.463
Mon Dec 02 21:05:58 2024,85,-16.335,-16.335,-1.499,-1.499,-2.515,15.537,5.904,3.210,44.341,27.048,3.237,31.246,6.644,4.452,6.017,2.377
Mon Dec 02 21:05:58 2024,90,-16.482,-16.482,-1.187,-1.187,-2.142,15.447,6.251,2.737,43.113,26.094,2.853,31.537,6.720,4.464,5.543,2.253
Mon Dec 02 21:05:58 2024,95,-16.604,-16.604,-0.972,-0.972,-1.899,15.272,6.519,2.305,42.124,25.228,2.558,31.812,6.783,4.472,5.149,2.157
Mon Dec 02 21:05:58 2024,100,-16.735,-16.735,-0.830,-0.830,-1.725,15.142,6.694,2.594,41.116,24.574,2.134,32.075,7.014,4.416,4.893,2.031
Mon Dec 02 21:05:58 2024,105,-16.855,-16.855,-0.768,0.768,-1.623,15.071,6.781,3.388,40.295,24.174,1.698,32.297,7.317,4.327,4.766,1.912
Mon Dec 02 21:05:58 2024,110,-16.960,-16.960,-0.746,0.746,-1.510,15.109,6.863,4.124,39.602,23.812,1.326,32.457,7.594,4.227,4.677,1.850
Mon Dec 02 21:05:58 2024,115,-17.026,-17.026,-0.744,0.744,-1.364,15.371,6.938,4.679,39.071,23.570,1.055,32.484,7.839,4.093,4.662,1.891
Mon Dec 02 21:05:58 2024,120,-17.106,-17.106,-0.762,0.762,-1.198,15.672,7.024,5.336,38.489,23.272,0.758,32.522,8.125,3.938,4.642,1.945
Mon Dec 02 21:05:58 2024,125,-17.226,-17.226,-0.835,0.835,-1.080,15.863,7.069,6.216,37.845,22.673,0.553,32.369,8.262,3.718,4.377,2.023
Mon Dec 02 21:05:58 2024,130,-17.385,-17.385,-0.992,0.992,-0.949,16.064,7.111,7.342,37.148,21.861,0.390,32.139,8.393,3.438,3.984,2.127
Mon Dec 02 21:05:58 2024,135,-17.504,-17.504,-1.138,1.138,-0.854,16.211,7.142,8.177,36.722,21.253,-0.378,31.972,8.490,3.232,3.685,2.206
Mon Dec 02 21:05:58 2024,140,-17.542,-17.542,-1.136,1.136,-1.352,16.747,7.306,11.624,36.319,19.554,-0.710,31.942,9.027,2.748,3.884,2.056
Mon Dec 02 21:05:58 2024,145,-17.593,-17.593,-1.178,1.178,-1.658,17.044,7.418,13.940,36.744,18.430,-1.060,31.901,9.407,2.388,3.941,1.981
Mon Dec 02 21:05:58 2024,150,-17.646,-17.646,-1.266,1.266,-1.930,17.383,7.642,16.383,37.682,17.292,-1.515,31.823,9.978,1.812,3.777,1.908
Mon Dec 02 21:05:58 2024,155,-17.698,-17.698,-1.379,1.379,-2.142,17.596,7.888,18.467,1.060,16.433,-1.964,31.751,10.574,1.244,3.508,1.850
Mon Dec 02 21:05:58 2024,160,-17.742,-17.742,-1.480,1.480,-2.302,20.004,8.072,19.983,-0.128,15.927,-2.318,31.711,11.038,0.902,3.286,1.806
Mon Dec 02 21:05:58 2024,165,-17.896,-17.896,1.746,1.746,-2.262,22.310,8.158,20.789,-1.031,16.172,-2.946,32.321,11.261,0.796,2.930,1.897
Mon Dec 02 21:05:58 2024,170,-17.998,-17.998,1.932,1.932,-2.278,22.295,8.254,21.606,-1.842,16.199,-3.402,32.688,11.508,-0.878,2.660,1.942
Mon Dec 02 21:05:58 2024,175,-18.166,-18.166,2.223,2.223,-2.360,22.359,8.224,21.692,-1.998,16.271,-3.589,33.155,11.500,-0.971,2.617,2.193
Mon Dec 02 21:05:58 2024,180,-18.299,-18.299,2.450,2.450,-2.428,22.432,8.194,21.701,-2.072,16.329,-3.710,33.514,11.475,-1.052,2.600,2.407
Mon Dec 02 21:05:58 2024,185,-18.464,-18.464,2.610,2.610,-2.503,22.527,8.191,21.738,-2.189,16.360,-3.857,33.714,11.440,-1.196,2.479,2.600
Mon Dec 02 21:05:58 2024,190,-18.692,-18.692,2.715,2.715,-2.599,22.659,8.223,21.817,-2.378,16.363,-4.057,33.757,11.390,-1.449,2.214,2.792
Mon Dec 02 21:05:58 2024,195,-18.861,-18.861,2.793,2.793,-2.669,22.765,8.246,21.876,-2.527,16.364,-4.205,33.791,11.353,-1.651,2.014,2.937
Mon Dec 02 21:05:58 2024,200,-19.169,-19.169,2.988,2.988,-2.713,22.843,8.317,22.082,-2.840,16.132,-4.430,33.759,11.186,-1.728,1.733,3.135
Mon Dec 02 21:05:58 2024,205,-19.461,-19.461,3.173,3.173,-2.755,22.924,8.384,22.275,-3.144,15.920,-4.645,33.735,11.031,-1.808,1.463,3.328
Mon Dec 02 21:05:58 2024,210,-19.681,-19.681,-3.289,3.289,-2.798,22.963,8.428,22.281,-3.215,15.816,-4.730,33.630,11.090,-1.862,1.281,3.313
Mon Dec 02 21:05:58 2024,215,-19.859,-19.859,-3.368,3.368,-2.840,22.982,8.458,22.199,-3.171,15.765,-4.750,33.487,11.251,-1.899,1.147,3.198
Mon Dec 02 21:05:58 2024,220,-20.004,-20.004,-3.452,3.452,-2.864,22.989,8.480,22.134,-3.141,15.718,-4.767,33.360,11.371,-1.920,1.044,3.099
Mon Dec 02 21:05:58 2024,225,-20.182,-20.182,-3.717,3.717,-2.798,22.913,8.481,22.081,-3.156,15.602,-4.797,33.122,11.421,-1.872,0.970,2.933
Mon Dec 02 21:05:58 2024,230,-20.351,-20.351,-3.968,3.968,-2.735,22.841,8.483,22.030,43.171,15.493,-4.824,32.896,11.468,-1.826,0.900,2.776
Mon Dec 02 21:05:58 2024,235,-20.499,-20.499,-4.188,4.188,-2.680,22.778,8.486,21.984,43.186,15.398,-4.846,32.698,11.508,-1.786,0.839,2.641
Mon Dec 02 21:05:58 2024,240,-20.581,-20.581,-4.309,4.309,-2.650,22.744,8.489,21.959,43.195,15.347,-4.858,32.591,11.530,-1.764,0.805,2.567
Mon Dec 02 21:05:58 2024,245,-20.610,-20.610,-4.351,4.351,-2.640,22.732,8.490,21.952,43.200,15.331,-4.862,32.554,11.539,-1.756,0.792,2.542
Mon Dec 02 21:05:58 2024,250,-20.591,-20.591,-4.283,4.283,-2.547,22.603,8.494,21.899,43.134,15.445,-4.824,32.427,11.829,-1.813,0.672,2.526
Mon Dec 02 21:05:58 2024,255,-20.643,-20.643,-4.349,4.349,-2.500,22.544,8.498,21.867,43.122,15.443,-4.820,32.315,11.927,-1.813,0.614,2.473
Mon Dec 02 21:05:58 2024,260,-20.687,-20.687,-4.404,4.404,-2.461,22.497,8.500,21.840,43.112,15.441,-4.817,32.224,12.008,-1.813,0.565,2.429
Mon Dec 02 21:05:58 2024,265,-20.700,-20.700,-4.416,4.416,-2.466,22.558,8.622,21.756,43.134,15.496,-4.603,32.008,12.196,-1.676,0.837,2.260
Mon Dec 02 21:05:58 2024,270,-20.703,-20.703,-4.436,4.436,-2.419,22.536,8.696,21.696,43.130,15.518,-4.508,31.881,12.308,-1.601,0.932,2.171
Mon Dec 02 21:05:58 2024,275,-20.651,-20.651,-4.446,4.446,-2.260,22.382,8.790,21.620,43.092,15.525,-4.471,31.795,12.386,-1.513,0.936,2.106
Mon Dec 02 21:05:58 2024,280,-20.614,-20.614,-4.452,4.452,-2.146,22.273,8.858,21.565,43.065,15.530,-4.444,31.734,12.442,-1.453,0.938,2.060
Mon Dec 02 21:05:58 2024,285,-20.526,-20.526,4.513,4.513,-1.958,22.143,8.954,21.526,43.069,15.694,-4.308,31.710,12.604,-1.362,0.958,2.052
Mon Dec 02 21:05:58 2024,290,-20.432,-20.432,4.586,4.586,-1.772,22.047,9.047,21.498,43.085,15.894,-4.151,31.707,12.782,-1.278,0.983,2.061
Mon Dec 02 21:05:58 2024,295,-20.349,-20.349,4.644,4.644,-1.601,21.964,9.134,21.443,43.078,16.093,-4.013,31.719,12.967,-1.203,1.030,2.063
Mon Dec 02 21:05:58 2024,300,-20.288,-20.288,4.666,4.666,-1.450,21.834,9.214,21.289,42.994,16.318,-3.917,31.770,13.202,-1.122,1.166,2.038
Mon Dec 02 21:05:58 2024,305,-20.228,-20.228,4.692,4.692,-1.308,21.726,9.290,21.158,42.926,16.526,-3.824,31.814,13.415,-1.060,1.280,2.024
Mon Dec 02 21:05:58 2024,310,-20.183,-20.183,4.686,4.686,-1.185,21.638,9.329,21.075,42.880,16.659,-3.729,31.790,13.538,-1.018,1.359,2.014
Mon Dec 02 21:05:58 2024,315,-20.132,-20.132,4.620,4.620,-1.024,21.525,9.322,21.032,42.846,16.735,-3.567,31.618,13.567,0.984,1.426,1.999
Mon Dec 02 21:05:58 2024,320,-20.073,-20.073,4.583,4.583,-0.877,21.452,9.357,21.022,42.891,16.860,-3.489,31.611,13.664,0.979,1.509,2.002
Mon Dec 02 21:05:58 2024,325,-20.001,-20.001,4.554,4.554,-0.728,21.422,9.418,21.070,43.034,17.012,-3.478,31.724,13.795,0.972,1.604,2.013
Mon Dec 02 21:05:58 2024,330,-19.930,-19.930,4.524,4.524,-0.580,21.402,9.479,21.115,43.171,17.163,-3.463,31.831,13.923,0.965,1.697,2.024
Mon Dec 02 21:05:58 2024,335,-19.920,-19.920,4.484,4.484,-0.458,21.693,9.595,21.182,43.386,17.486,-3.409,32.111,14.166,0.967,1.819,2.029
Mon Dec 02 21:05:58 2024,340,-19.909,-19.909,4.452,4.452,-0.355,21.955,9.692,21.238,43.569,17.759,-3.366,32.348,14.371,0.973,1.921,2.036
Mon Dec 02 21:05:58 2024,345,-19.881,-19.881,4.397,4.397,-0.143,22.125,9.787,21.386,43.872,18.075,-3.383,32.503,14.564,0.997,1.992,2.032
Mon Dec 02 21:05:58 2024,350,-19.852,-19.852,4.349,4.349,0.054,22.176,9.842,21.536,44.134,18.294,-3.433,32.540,14.671,1.026,2.014,2.022
Mon Dec 02 21:05:58 2024,355,-19.820,-19.820,4.294,4.294,0.289,22.257,9.905,21.708,44.440,18.550,-3.492,32.583,14.795,1.064,2.040,2.011
Mon Dec 02 21:05:58 2024,360,-19.639,-19.639,4.168,4.168,0.445,22.386,10.027,21.653,44.477,18.862,-3.277,32.657,15.076,1.063,2.170,2.013
Mon Dec 02 21:05:58 2024,365,-19.472,-19.472,4.047,4.047,0.610,22.522,10.144,21.618,44.544,19.176,-3.087,32.734,15.347,1.068,2.290,2.025
Mon Dec 02 21:05:58 2024,370,-19.360,-19.360,3.983,3.983,0.777,22.638,10.215,21.614,44.651,19.471,-2.934,32.800,15.581,1.073,2.396,2.046
Mon Dec 02 21:05:58 2024,375,-19.374,-19.374,4.058,4.058,0.983,22.718,10.178,21.694,44.888,19.764,-2.851,32.842,15.756,1.078,2.480,2.080
Mon Dec 02 21:05:58 2024,380,-19.360,-19.360,4.088,4.088,1.140,22.799,10.170,21.739,45.052,20.004,-2.771,32.882,15.910,1.083,2.553,2.114
Mon Dec 02 21:05:58 2024,385,-19.326,-19.326,4.052,4.052,1.194,22.824,10.177,21.873,45.232,20.023,-2.571,32.778,15.973,1.100,2.678,2.180
Mon Dec 02 21:05:58 2024,390,-19.299,-19.299,4.028,4.028,1.251,22.852,10.182,21.979,45.384,20.062,-2.412,32.707,16.037,1.115,2.778,2.238
Mon Dec 02 21:05:58 2024,395,-19.254,-19.254,4.002,4.002,1.345,22.949,10.228,22.145,45.634,20.204,-2.166,32.732,16.215,1.158,2.886,2.307
Mon Dec 02 21:05:58 2024,400,-19.210,-19.210,3.979,3.979,1.436,23.053,10.282,22.305,45.878,20.358,-1.931,32.789,16.404,1.206,2.980,2.370
Mon Dec 02 21:05:58 2024,405,-19.176,-19.176,3.968,3.968,1.502,23.150,10.322,22.374,46.063,20.487,-1.743,32.825,16.543,1.240,3.038,2.414
Mon Dec 02 21:05:58 2024,410,-19.181,-19.181,3.995,3.995,1.488,23.199,10.312,22.186,46.041,20.515,-1.725,32.782,16.512,1.226,2.993,2.390
Mon Dec 02 21:05:58 2024,415,-19.185,-19.185,4.021,4.021,1.474,23.252,10.304,21.996,46.026,20.548,-1.703,32.739,16.483,1.212,2.947,2.367
Mon Dec 02 21:05:58 2024,420,-19.181,-19.181,4.024,4.024,1.434,23.189,10.268,21.988,46.075,20.516,-1.622,32.658,16.458,1.234,2.962,2.400
Mon Dec 02 21:05:58 2024,425,-19.168,-19.168,4.004,4.004,1.360,22.999,10.196,22.158,46.194,20.412,-1.468,32.520,16.434,1.294,3.040,2.496
Mon Dec 02 21:05:58 2024,430,-19.158,-19.158,3.993,3.993,1.301,22.856,10.139,22.264,46.286,20.336,-1.343,32.407,16.410,1.342,3.096,2.569
Mon Dec 02 21:05:58 2024,435,-19.202,-19.202,3.993,3.993,1.219,22.917,10.102,22.196,46.347,20.334,-1.317,32.470,16.430,1.284,3.069,2.542
Mon Dec 02 21:05:58 2024,440,-19.233,-19.233,3.990,3.990,1.143,22.931,10.059,22.171,46.417,20.314,-1.266,32.491,16.440,1.253,3.062,2.542
Mon Dec 02 21:05:58 2024,445,-19.254,-19.254,3.972,3.972,1.172,22.927,10.050,22.301,46.416,20.299,-1.298,32.380,16.487,1.185,3.017,2.597
Mon Dec 02 21:05:58 2024,450,-19.269,-19.269,3.956,3.956,1.212,22.922,10.048,22.430,46.406,20.289,-1.336,32.272,16.530,1.130,2.974,2.650
Mon Dec 02 21:05:58 2024,455,-6.427,-19.277,3.967,3.967,1.253,22.956,10.073,22.461,46.423,20.332,-1.335,32.246,16.591,1.102,2.962,2.682
Mon Dec 02 21:05:58 2024,460,19.276,-19.276,4.042,4.042,1.313,23.088,10.162,22.300,46.504,20.510,-1.248,32.380,16.715,1.115,3.010,2.680
Mon Dec 02 21:05:58 2024,465,19.275,-19.275,4.109,4.109,1.371,23.206,10.243,22.164,46.579,20.670,-1.173,32.495,16.832,1.122,3.051,2.683
Mon Dec 02 21:05:58 2024,470,19.298,-19.298,4.084,4.084,1.288,23.109,10.193,22.208,46.611,20.606,-1.312,32.374,16.773,1.017,3.060,2.705
Mon Dec 02 21:05:58 2024,475,19.322,-19.322,4.060,4.060,1.208,23.018,10.146,22.250,46.642,20.546,-1.450,32.261,16.718,0.933,3.068,2.726
Mon Dec 02 21:05:58 2024,480,19.334,-19.334,4.076,4.076,1.168,22.982,10.147,22.258,46.644,20.545,-1.539,32.210,16.708,0.898,3.037,2.733
Mon Dec 02 21:05:58 2024,485,19.328,-19.328,4.158,4.158,1.200,23.038,10.234,22.211,46.594,20.647,-1.546,32.264,16.778,0.919,2.940,2.717
Mon Dec 02 21:05:58 2024,490,0.001,-19.325,4.228,4.228,1.220,23.078,10.304,22.172,46.552,20.730,-1.564,32.300,16.833,0.932,2.859,2.704
Mon Dec 02 21:05:58 2024,495,19.301,-19.301,4.197,4.197,1.125,22.971,10.292,22.112,46.607,20.864,-1.608,32.390,16.904,0.928,3.016,2.731
Mon Dec 02 21:05:58 2024,500,19.282,-19.282,4.172,4.172,1.050,22.889,10.280,22.066,46.650,20.966,-1.640,32.457,16.957,0.926,3.138,2.751
Mon Dec 02 21:05:58 2024,505,19.341,-19.341,4.204,4.204,0.958,22.802,10.281,21.858,46.677,21.174,-1.708,32.543,17.026,0.974,3.232,2.793
Mon Dec 02 21:05:58 2024,510,19.472,-19.472,4.294,4.294,0.865,22.728,10.294,21.510,46.683,21.456,-1.801,32.630,17.100,1.084,3.274,2.850
Mon Dec 02 21:05:58 2024,515,19.585,-19.585,4.369,4.369,0.782,22.663,10.304,21.205,46.698,21.705,-1.883,32.709,17.166,1.193,3.316,2.901
Mon Dec 02 21:05:58 2024,520,19.773,-19.773,4.630,4.630,0.548,22.347,10.179,21.283,46.703,21.412,-2.168,32.448,16.848,1.216,3.119,2.771
Mon Dec 02 21:05:58 2024,525,19.942,-19.942,4.860,4.860,0.339,22.080,10.070,21.338,46.708,21.168,-2.422,32.234,16.574,1.242,2.948,2.664
Mon Dec 02 21:05:58 2024,530,20.109,-20.109,4.797,4.797,0.020,21.804,9.975,21.493,46.703,20.913,-2.622,31.942,16.259,1.187,2.556,2.529
Mon Dec 02 21:05:58 2024,535,20.277,-20.277,4.603,4.603,-0.362,21.594,9.888,21.692,46.696,20.652,-2.800,31.619,15.928,1.116,2.060,2.391
Mon Dec 02 21:05:58 2024,540,20.433,-20.433,-4.429,4.429,-0.714,21.505,9.808,21.874,46.689,20.411,-2.967,31.330,15.626,1.078,1.599,2.277
Mon Dec 02 21:05:58 2024,545,20.311,-20.311,-4.220,4.220,-1.198,21.753,9.767,22.892,46.959,20.274,-2.980,30.999,14.747,-1.066,1.148,2.051
Mon Dec 02 21:05:58 2024,550,-20.257,-20.257,-4.056,4.056,-1.574,21.999,9.740,23.570,47.154,20.151,-3.018,30.742,14.135,-1.285,0.775,2.042
Mon Dec 02 21:05:58 2024,555,-19.854,-19.854,-3.648,3.648,-1.861,21.919,9.500,22.740,46.273,20.704,-2.063,29.669,13.694,-1.199,0.568,1.839
Mon Dec 02 21:05:58 2024,560,-19.265,-19.265,-3.090,3.090,-2.169,18.726,9.172,21.222,44.859,21.558,-0.629,28.269,13.273,0.561,0.377,1.529
Mon Dec 02 21:05:58 2024,565,-18.762,-18.762,-2.532,2.532,-2.529,17.016,9.020,18.598,43.249,22.520,0.674,27.622,12.854,1.301,0.103,1.339
Mon Dec 02 21:05:58 2024,570,-18.211,-18.211,-1.697,1.697,-3.193,16.020,9.198,11.491,41.580,24.071,2.042,28.344,12.160,2.031,-0.523,1.435
Mon Dec 02 21:05:58 2024,575,-17.805,-17.805,-1.128,1.128,-3.689,15.277,9.325,6.230,42.384,24.741,3.040,28.962,11.647,2.713,-1.011,1.653
Mon Dec 02 21:05:58 2024,580,-17.602,-17.602,-0.767,0.767,-3.912,15.370,8.921,3.918,42.870,24.470,3.404,29.062,10.946,3.486,-1.009,2.053
Mon Dec 02 21:05:58 2024,585,-17.533,-17.533,-0.722,0.722,-3.953,15.637,8.481,3.357,42.772,24.087,3.442,28.947,10.422,4.044,-0.868,2.370
Mon Dec 02 21:05:58 2024,590,-17.492,-17.492,-0.776,-0.005,-3.941,15.880,7.963,3.094,42.710,23.718,3.454,28.580,9.767,4.784,-0.650,2.672
Mon Dec 02 21:05:58 2024,595,-17.551,-17.551,-0.869,-0.869,-3.805,16.070,7.436,3.705,42.756,23.526,3.386,27.652,9.026,5.709,-0.277,2.794
Mon Dec 02 21:05:58 2024,600,-17.586,-17.586,-0.987,-0.987,-3.718,16.195,7.067,4.077,42.785,23.378,3.346,27.051,8.529,6.343,-0.050,2.900
Mon Dec 02 21:05:58 2024,605,-17.449,-17.449,-1.264,-1.264,-3.530,23.577,6.400,4.375,42.364,22.966,3.260,26.452,8.101,7.360,0.431,2.947
Mon Dec 02 21:05:58 2024,610,-17.263,-17.263,-1.582,-1.582,-3.362,23.380,5.744,4.601,41.822,22.491,3.172,25.933,7.772,8.292,0.870,3.013
Mon Dec 02 21:05:58 2024,615,-17.010,-17.010,-1.877,-1.877,-3.328,23.328,5.256,4.672,41.031,21.786,3.037,25.468,7.588,8.849,1.133,3.085
Mon Dec 02 21:05:58 2024,620,-16.631,-16.631,-2.159,-2.159,-3.475,23.484,4.945,4.532,39.778,20.664,2.809,25.010,7.574,8.965,1.215,3.135
Mon Dec 02 21:05:58 2024,625,-16.296,-16.296,-2.414,-2.414,-3.609,23.654,4.666,4.418,38.674,19.686,2.610,24.603,7.563,9.067,1.288,3.180
Mon Dec 02 21:05:58 2024,630,-15.903,-15.903,-2.617,-2.617,-3.822,23.861,4.734,4.206,36.215,17.654,2.310,24.242,7.624,9.114,1.341,3.009
Mon Dec 02 21:05:58 2024,635,-15.581,-15.581,-2.792,-2.792,-4.001,24.035,4.794,4.037,34.165,15.968,2.058,23.941,7.676,9.152,1.386,2.866
Mon Dec 02 21:05:58 2024,640,-15.022,-15.022,-3.048,-3.048,-4.263,24.270,4.906,3.992,31.980,14.330,1.799,23.577,7.625,9.148,1.402,2.697
Mon Dec 02 21:05:58 2024,645,-14.448,-14.448,-3.295,-3.295,-4.521,24.519,5.031,4.048,30.360,13.232,1.611,23.266,7.500,9.106,1.388,2.557
Mon Dec 02 21:05:58 2024,650,-13.881,-13.881,-3.560,-3.560,-4.800,24.823,5.168,4.086,28.712,12.121,1.410,22.937,7.370,9.060,1.372,2.421
Mon Dec 02 21:05:58 2024,655,-13.526,-13.526,-3.644,-3.644,-4.910,21.630,5.278,4.283,27.687,11.813,1.230,21.816,7.375,8.958,1.262,2.345
Mon Dec 02 21:05:58 2024,660,-13.199,-13.199,-3.744,-3.744,-5.036,14.765,5.391,4.445,26.740,11.454,1.043,18.933,7.364,8.863,1.166,2.283
Mon Dec 02 21:05:58 2024,665,-12.966,-12.966,-4.039,-4.039,-5.262,14.429,5.511,4.732,25.900,11.109,1.155,18.444,7.254,8.822,1.309,2.301
Mon Dec 02 21:05:58 2024,670,-12.820,-12.820,-4.333,-4.333,-5.471,14.129,5.608,4.990,25.464,10.833,1.328,17.514,7.135,8.805,1.491,2.344
