Timestamp,Millis,thumb_tm_aa,thumb_tm_flex,thumb_mcp_aa,thumb_mcp_flex,index_mcp_aa,index_mcp_flex,index_pip,middle_mcp_aa,middle_mcp_flex,middle_pip,ring_mcp_aa,ring_mcp_flex,ring_pip,little_mcp_aa,little_mcp_flex,little_pip
Mon Dec 02 20:47:31 2024,785,-23.402,-23.402,-0.115,0.115,2.172,23.265,10.729,4.786,14.853,13.235,-4.862,11.657,8.478,11.220,7.256,5.900
Mon Dec 02 20:47:31 2024,790,-23.412,-23.412,-0.115,0.115,2.165,23.240,10.650,4.781,14.855,13.180,-4.843,11.672,8.457,11.249,7.252,5.897
Mon Dec 02 20:47:31 2024,795,-23.420,-23.420,-0.117,0.117,2.160,23.220,10.584,4.776,14.857,13.133,-4.827,11.684,8.439,11.273,7.249,5.894
Mon Dec 02 20:47:31 2024,800,-23.433,-23.433,-0.113,0.113,2.110,23.137,10.513,4.746,14.891,13.094,-4.827,11.682,8.413,11.266,7.263,5.861
Mon Dec 02 20:47:31 2024,805,-23.446,-23.446,-0.110,0.110,2.053,23.044,10.441,4.712,14.931,13.055,-4.830,11.677,8.386,11.255,7.280,5.822
Mon Dec 02 20:47:31 2024,810,-23.444,-23.444,-0.107,0.107,2.038,23.046,10.414,4.721,14.944,13.035,-4.818,11.746,8.383,11.250,7.312,5.808
Mon Dec 02 20:47:31 2024,815,-23.434,-23.434,-0.113,0.033,2.047,23.104,10.415,4.756,14.938,13.026,-4.797,11.854,8.394,11.250,7.350,5.809
Mon Dec 02 20:47:31 2024,820,-23.443,-23.443,-0.125,0.125,2.043,23.131,10.406,4.777,14.939,12.998,-4.795,11.904,8.376,11.242,7.380,5.796
Mon Dec 02 20:47:31 2024,825,-23.498,-23.498,-0.124,0.124,2.006,23.073,10.375,4.759,14.956,12.932,-4.837,11.801,8.293,11.220,7.376,5.754
Mon Dec 02 20:47:31 2024,830,-23.552,-23.552,-0.155,0.155,1.970,23.016,10.344,4.740,14.973,12.865,-4.880,11.698,8.210,11.199,7.371,5.712
Mon Dec 02 20:47:31 2024,835,-23.578,-23.578,-0.176,0.176,2.039,23.074,10.339,4.777,14.922,12.827,-4.870,11.636,8.181,11.219,7.371,5.761
Mon Dec 02 20:47:31 2024,840,-23.602,-23.602,-0.201,0.201,2.114,23.139,10.337,4.816,14.868,12.790,-4.858,11.578,8.155,11.241,7.370,5.814
Mon Dec 02 20:47:31 2024,845,-23.592,-23.592,-0.184,0.184,2.156,23.155,10.333,4.838,14.813,12.758,-4.845,11.548,8.153,11.270,7.331,5.796
Mon Dec 02 20:47:31 2024,850,-23.568,-23.568,-0.152,0.152,2.186,23.152,10.328,4.854,14.758,12.725,-4.831,11.528,8.160,11.302,7.276,5.752
Mon Dec 02 20:47:31 2024,855,-23.546,-23.546,-0.133,0.133,2.200,23.144,10.318,4.855,14.723,12.699,-4.824,11.521,8.166,11.332,7.230,5.714
Mon Dec 02 20:47:31 2024,860,-23.543,-23.543,-0.143,0.143,2.177,23.141,10.294,4.827,14.752,12.688,-4.836,11.538,8.160,11.348,7.227,5.719
Mon Dec 02 20:47:31 2024,865,-23.540,-23.540,-0.154,0.154,2.156,23.136,10.267,4.802,14.778,12.676,-4.847,11.553,8.152,11.363,7.225,5.723
Mon Dec 02 20:47:31 2024,870,-23.515,-23.515,-0.148,0.148,2.186,23.100,10.196,4.821,14.736,12.630,-4.827,11.527,8.125,11.351,7.231,5.707
Mon Dec 02 20:47:31 2024,875,-23.491,-23.491,-0.141,0.141,2.218,23.067,10.131,4.845,14.690,12.588,-4.806,11.499,8.101,11.337,7.237,5.690
Mon Dec 02 20:47:31 2024,880,-23.501,-23.501,-0.128,0.128,2.206,23.045,10.102,4.828,14.708,12.556,-4.814,11.489,8.065,11.327,7.230,5.633
Mon Dec 02 20:47:31 2024,885,-23.529,-23.529,-0.124,0.124,2.170,23.032,10.096,4.792,14.756,12.534,-4.837,11.492,8.028,11.321,7.215,5.561
Mon Dec 02 20:47:31 2024,890,-23.550,-23.550,-0.125,0.125,2.149,23.022,10.086,4.774,14.788,12.510,-4.842,11.501,7.997,11.322,7.206,5.519
Mon Dec 02 20:47:31 2024,895,-23.548,-23.548,-0.120,0.120,2.174,23.021,10.069,4.811,14.768,12.488,-4.799,11.526,7.986,11.347,7.217,5.565
Mon Dec 02 20:47:31 2024,900,-23.547,-23.547,-0.120,0.120,2.195,23.021,10.055,4.844,14.749,12.469,-4.762,11.548,7.977,11.369,7.226,5.605
Mon Dec 02 20:47:31 2024,905,-23.563,-23.563,-0.119,0.119,2.161,23.052,10.099,4.794,14.800,12.443,-4.806,11.553,7.956,11.341,7.247,5.597
Mon Dec 02 20:47:31 2024,910,-23.580,-23.580,-0.126,0.126,2.123,23.085,10.147,4.738,14.855,12.420,-4.857,11.554,7.935,11.311,7.265,5.582
Mon Dec 02 20:47:31 2024,915,-23.579,-23.579,-0.128,0.128,2.124,23.125,10.162,4.740,14.863,12.428,-4.848,11.597,7.943,11.325,7.245,5.564
Mon Dec 02 20:47:31 2024,920,-23.569,-23.569,-0.127,0.127,2.145,23.159,10.156,4.772,14.843,12.451,-4.807,11.653,7.964,11.362,7.207,5.548
Mon Dec 02 20:47:31 2024,925,-23.561,-23.561,-0.124,0.124,2.158,23.183,10.151,4.804,14.823,12.481,-4.773,11.697,7.993,11.399,7.181,5.554
Mon Dec 02 20:47:31 2024,930,-23.566,-23.566,-0.118,0.118,2.130,23.156,10.152,4.809,14.821,12.514,-4.786,11.672,8.023,11.413,7.214,5.626
Mon Dec 02 20:47:31 2024,935,-23.572,-23.572,-0.112,0.112,2.103,23.127,10.155,4.813,14.819,12.545,-4.801,11.643,8.052,11.425,7.246,5.697
Mon Dec 02 20:47:31 2024,940,-23.577,-23.577,-0.103,0.103,2.078,23.102,10.156,4.816,14.818,12.573,-4.813,11.618,8.077,11.436,7.274,5.760
Mon Dec 02 20:47:31 2024,945,-23.579,-23.579,-0.103,0.103,2.067,23.091,10.157,4.818,14.817,12.585,-4.819,11.607,8.088,11.441,7.287,5.788
Mon Dec 02 20:47:31 2024,950,-23.659,-23.659,-0.199,0.199,2.074,23.272,10.184,4.715,14.911,12.427,-4.907,11.592,7.910,11.325,7.271,5.537
Mon Dec 02 20:47:31 2024,955,-23.670,-23.670,-0.189,0.189,2.073,23.258,10.228,4.729,14.898,12.498,-4.870,11.663,7.986,11.345,7.255,5.584
Mon Dec 02 20:47:31 2024,960,-23.683,-23.683,-0.188,0.188,2.070,23.257,10.262,4.734,14.893,12.542,-4.849,11.712,8.033,11.353,7.244,5.609
Mon Dec 02 20:47:31 2024,965,-23.696,-23.696,-0.187,0.187,2.068,23.256,10.293,4.738,14.889,12.583,-4.830,11.757,8.076,11.361,7.234,5.632
Mon Dec 02 20:47:31 2024,970,-23.692,-23.692,-0.171,0.171,2.046,23.297,10.325,4.727,14.935,12.641,-4.854,11.773,8.084,11.385,7.211,5.637
Mon Dec 02 20:47:31 2024,975,-23.725,-23.725,-0.192,0.192,2.004,23.217,10.308,4.696,14.956,12.686,-4.891,11.709,8.105,11.377,7.209,5.678
Mon Dec 02 20:47:31 2024,980,-23.766,-23.766,-0.226,0.226,1.964,23.106,10.278,4.667,14.959,12.716,-4.920,11.631,8.130,11.357,7.217,5.725
Mon Dec 02 20:47:31 2024,985,-23.801,-23.801,-0.250,0.250,1.930,23.056,10.316,4.657,14.964,12.804,-4.940,11.596,8.201,11.343,7.215,5.766
Mon Dec 02 20:47:31 2024,990,-23.820,-23.820,-0.257,0.257,1.913,23.068,10.388,4.664,14.967,12.904,-4.949,11.604,8.282,11.339,7.206,5.788
Mon Dec 02 20:47:31 2024,995,-23.840,-23.840,-0.259,0.259,1.894,23.083,10.471,4.675,14.966,13.014,-4.965,11.598,8.369,11.331,7.198,5.820
Mon Dec 02 20:47:32 2024,0,-23.832,-23.832,-0.228,0.228,1.895,23.103,10.512,4.700,14.922,13.043,-5.038,11.464,8.377,11.308,7.221,5.900
Mon Dec 02 20:47:32 2024,5,-23.826,-23.826,-0.201,0.201,1.896,23.120,10.550,4.721,14.885,13.070,-5.100,11.352,8.386,11.288,7.240,5.970
Mon Dec 02 20:47:32 2024,10,-23.841,-23.841,-0.182,0.182,1.878,23.156,10.654,4.688,14.920,13.169,-5.148,11.343,8.444,11.294,7.239,6.008
Mon Dec 02 20:47:32 2024,15,-23.858,-23.858,-0.166,0.166,1.858,23.192,10.765,4.646,14.966,13.276,-5.190,11.354,8.507,11.302,7.234,6.038
Mon Dec 02 20:47:32 2024,20,-23.882,-23.882,-0.147,0.147,1.823,23.179,10.840,4.582,15.057,13.424,-5.261,11.318,8.592,11.290,7.250,6.101
Mon Dec 02 20:47:32 2024,25,-23.900,-23.900,-0.131,0.131,1.792,23.133,10.856,4.528,15.145,13.542,-5.322,11.264,8.657,11.265,7.275,6.163
Mon Dec 02 20:47:32 2024,30,-23.919,-23.919,-0.118,0.118,1.772,23.098,10.882,4.482,15.220,13.654,-5.377,11.214,8.720,11.245,7.292,6.226
Mon Dec 02 20:47:32 2024,35,-23.926,-23.926,-0.126,0.126,1.824,23.148,10.948,4.526,15.170,13.661,-5.360,11.228,8.732,11.270,7.255,6.250
Mon Dec 02 20:47:32 2024,40,-23.932,-23.932,-0.134,0.134,1.878,23.202,11.013,4.574,15.117,13.662,-5.340,11.245,8.741,11.296,7.217,6.273
Mon Dec 02 20:47:32 2024,45,-23.945,-23.945,-0.152,0.152,1.912,23.168,10.977,4.626,15.076,13.735,-5.339,11.170,8.752,11.301,7.161,6.227
Mon Dec 02 20:47:32 2024,50,-23.960,-23.960,-0.170,0.170,1.940,23.120,10.924,4.676,15.040,13.818,-5.343,11.080,8.762,11.301,7.106,6.172
Mon Dec 02 20:47:32 2024,55,-23.980,-23.980,-0.182,0.182,1.975,23.141,10.923,4.676,15.039,13.872,-5.367,11.013,8.777,11.303,7.076,6.150
Mon Dec 02 20:47:32 2024,60,-24.008,-24.008,-0.190,0.190,2.019,23.238,10.982,4.621,15.076,13.892,-5.415,10.974,8.797,11.307,7.077,6.168
Mon Dec 02 20:47:32 2024,65,-24.037,-24.037,-0.196,0.196,2.058,23.328,11.030,4.560,15.116,13.901,-5.465,10.933,8.808,11.299,7.088,6.185
Mon Dec 02 20:47:32 2024,70,-24.055,-24.055,-0.205,0.205,2.037,23.322,10.987,4.511,15.148,13.833,-5.499,10.906,8.768,11.234,7.161,6.189
Mon Dec 02 20:47:32 2024,75,-24.070,-24.070,-0.211,0.211,2.021,23.316,10.953,4.470,15.174,13.778,-5.528,10.883,8.735,11.180,7.220,6.193
Mon Dec 02 20:47:32 2024,80,-24.119,-24.119,-0.210,0.210,2.009,23.234,10.931,4.452,15.219,13.825,-5.566,10.842,8.711,11.155,7.208,6.138
Mon Dec 02 20:47:32 2024,85,-24.163,-24.163,-0.207,0.207,2.001,23.159,10.918,4.442,15.255,13.880,-5.596,10.809,8.696,11.142,7.186,6.087
Mon Dec 02 20:47:32 2024,90,-24.195,-24.195,-0.206,0.206,2.028,23.118,10.910,4.475,15.232,13.911,-5.600,10.741,8.688,11.155,7.155,6.089
Mon Dec 02 20:47:32 2024,95,-24.204,-24.204,-0.206,0.206,2.072,23.124,10.910,4.529,15.170,13.910,-5.580,10.675,8.692,11.184,7.132,6.134
Mon Dec 02 20:47:32 2024,100,-24.220,-24.220,-0.206,0.206,2.117,23.133,10.913,4.581,15.107,13.912,-5.556,10.613,8.704,11.214,7.109,6.186
Mon Dec 02 20:47:32 2024,105,-24.265,-24.265,-0.216,0.216,2.110,23.140,10.928,4.554,15.127,13.940,-5.537,10.673,8.766,11.218,7.121,6.219
Mon Dec 02 20:47:32 2024,110,-24.308,-24.308,-0.225,0.225,2.102,23.146,10.943,4.528,15.145,13.965,-5.520,10.728,8.825,11.221,7.132,6.250
Mon Dec 02 20:47:32 2024,115,-24.374,-24.374,-0.245,0.245,2.089,23.123,10.926,4.566,15.119,13.944,-5.526,10.722,8.797,11.260,7.122,6.248
Mon Dec 02 20:47:32 2024,120,-24.443,-24.443,0.268,0.268,2.074,23.092,10.901,4.619,15.083,13.912,-5.538,10.698,8.747,11.306,7.106,6.237
Mon Dec 02 20:47:32 2024,125,-24.487,-24.487,0.271,0.271,2.079,23.048,10.904,4.634,15.059,13.892,-5.544,10.671,8.717,11.321,7.094,6.232
Mon Dec 02 20:47:32 2024,130,-24.501,-24.501,0.252,0.252,2.104,22.998,10.934,4.609,15.049,13.888,-5.542,10.643,8.711,11.303,7.088,6.233
Mon Dec 02 20:47:32 2024,135,-24.516,-24.516,0.237,0.237,2.128,22.959,10.967,4.589,15.038,13.889,-5.538,10.619,8.708,11.288,7.080,6.235
Mon Dec 02 20:47:32 2024,140,-24.554,-24.554,0.274,0.274,2.150,23.033,11.030,4.620,15.030,13.938,-5.515,10.651,8.750,11.322,7.050,6.251
Mon Dec 02 20:47:32 2024,145,-24.586,-24.586,0.303,0.303,2.168,23.094,11.083,4.646,15.022,13.980,-5.497,10.677,8.785,11.350,7.024,6.264
Mon Dec 02 20:47:32 2024,150,-24.611,-24.611,0.313,0.313,2.189,23.088,11.038,4.664,14.994,13.930,-5.471,10.667,8.738,11.331,7.024,6.244
Mon Dec 02 20:47:32 2024,155,-24.630,-24.630,0.314,0.314,2.207,23.062,10.968,4.676,14.965,13.858,-5.448,10.647,8.672,11.300,7.032,6.218
Mon Dec 02 20:47:32 2024,160,-24.645,-24.645,-0.308,0.308,2.220,23.047,10.939,4.684,14.949,13.816,-5.444,10.633,8.639,11.292,7.047,6.225
Mon Dec 02 20:47:32 2024,165,-24.658,-24.658,0.294,0.294,2.230,23.040,10.944,4.689,14.946,13.799,-5.458,10.624,8.634,11.305,7.070,6.264
Mon Dec 02 20:47:32 2024,170,-24.680,-24.680,0.292,0.292,2.234,23.028,10.950,4.692,14.940,13.781,-5.467,10.616,8.634,11.315,7.096,6.306
Mon Dec 02 20:47:32 2024,175,-24.726,-24.726,0.353,0.353,2.212,23.004,10.958,4.682,14.928,13.774,-5.446,10.616,8.657,11.304,7.122,6.331
Mon Dec 02 20:47:32 2024,180,-24.767,-24.767,0.407,0.407,2.190,22.982,10.965,4.672,14.917,13.767,-5.426,10.616,8.679,11.295,7.146,6.354
Mon Dec 02 20:47:32 2024,185,-24.824,-24.824,0.464,0.464,2.206,23.026,11.032,4.731,14.842,13.763,-5.370,10.681,8.719,11.330,7.108,6.372
Mon Dec 02 20:47:32 2024,190,-24.873,-24.873,0.509,0.509,2.231,23.080,11.103,4.798,14.762,13.759,-5.316,10.752,8.755,11.372,7.059,6.384
Mon Dec 02 20:47:32 2024,195,-24.920,-24.920,0.564,0.564,2.237,23.103,11.152,4.842,14.710,13.745,-5.262,10.828,8.783,11.398,7.032,6.390
Mon Dec 02 20:47:32 2024,200,-24.955,-24.955,0.622,0.622,2.214,23.081,11.165,4.847,14.704,13.718,-5.215,10.897,8.794,11.398,7.038,6.386
Mon Dec 02 20:47:32 2024,205,-24.987,-24.987,0.673,0.673,2.196,23.060,11.170,4.855,14.696,13.693,-5.173,10.957,8.801,11.400,7.045,6.383
Mon Dec 02 20:47:32 2024,210,-25.017,-25.017,0.715,0.715,2.209,23.041,11.060,4.933,14.641,13.632,-5.125,10.982,8.747,11.426,7.057,6.398
Mon Dec 02 20:47:32 2024,215,-25.046,-25.046,0.754,0.754,2.221,23.022,10.956,5.006,14.589,13.576,-5.079,11.006,8.697,11.451,7.068,6.411
Mon Dec 02 20:47:32 2024,220,-25.079,-25.079,0.806,0.806,2.234,23.083,10.934,5.015,14.597,13.523,-5.075,11.027,8.652,11.483,7.053,6.398
Mon Dec 02 20:47:32 2024,225,-25.110,-25.110,0.856,0.856,2.246,23.162,10.942,5.002,14.625,13.476,-5.086,11.046,8.612,11.514,7.032,6.377
Mon Dec 02 20:47:32 2024,230,-25.136,-25.136,0.896,0.896,2.260,23.208,10.940,4.996,14.617,13.442,-5.096,11.045,8.602,11.535,7.015,6.374
Mon Dec 02 20:47:32 2024,235,-25.145,-25.145,0.908,0.908,2.270,23.185,10.926,5.003,14.553,13.430,-5.101,11.012,8.640,11.535,7.013,6.398
Mon Dec 02 20:47:32 2024,240,-25.158,-25.158,0.919,0.919,2.276,23.154,10.910,5.002,14.493,13.408,-5.106,10.980,8.668,11.538,7.007,6.418
Mon Dec 02 20:47:32 2024,245,-25.179,-25.179,0.916,0.916,2.250,23.095,10.895,4.961,14.500,13.344,-5.112,10.970,8.634,11.556,6.990,6.403
Mon Dec 02 20:47:32 2024,250,-25.202,-25.202,0.911,0.911,2.218,23.030,10.881,4.913,14.519,13.271,-5.119,10.962,8.590,11.576,6.969,6.383
Mon Dec 02 20:47:32 2024,255,-25.231,-25.231,0.926,0.926,2.200,23.006,10.816,4.921,14.529,13.194,-5.095,11.032,8.548,11.602,6.970,6.368
Mon Dec 02 20:47:32 2024,260,-25.267,-25.267,0.951,0.951,2.187,23.000,10.724,4.953,14.535,13.108,-5.058,11.143,8.502,11.630,6.980,6.355
Mon Dec 02 20:47:32 2024,265,-25.292,-25.292,0.972,0.972,2.184,23.000,10.689,4.974,14.535,13.070,-5.031,11.198,8.485,11.657,6.965,6.350
Mon Dec 02 20:47:32 2024,270,-25.307,-25.307,0.999,0.999,2.194,23.014,10.733,4.985,14.528,13.096,-5.010,11.188,8.506,11.689,6.903,6.354
Mon Dec 02 20:47:32 2024,275,-25.318,-25.318,1.025,1.025,2.204,23.027,10.762,4.990,14.524,13.111,-4.993,11.184,8.523,11.721,6.849,6.359
Mon Dec 02 20:47:32 2024,280,-25.291,-25.291,1.036,1.036,2.207,23.029,10.712,4.961,14.543,13.068,-5.003,11.218,8.505,11.736,6.852,6.356
Mon Dec 02 20:47:32 2024,285,-25.261,-25.261,1.050,1.050,2.210,23.031,10.653,4.928,14.564,13.020,-5.016,11.257,8.485,11.753,6.855,6.354
Mon Dec 02 20:47:32 2024,290,-25.260,-25.260,1.070,1.070,2.206,23.028,10.666,4.898,14.578,13.047,-5.038,11.208,8.496,11.781,6.841,6.373
Mon Dec 02 20:47:32 2024,295,-25.268,-25.268,1.093,1.093,2.199,23.025,10.702,4.868,14.590,13.099,-5.063,11.132,8.518,11.812,6.822,6.399
Mon Dec 02 20:47:32 2024,300,-25.305,-25.305,1.143,1.143,2.167,23.019,10.741,4.829,14.620,13.127,-5.107,11.070,8.521,11.834,6.820,6.425
Mon Dec 02 20:47:32 2024,305,-25.364,-25.364,1.200,1.200,2.118,23.014,10.759,4.798,14.656,13.101,-5.154,11.067,8.495,11.826,6.846,6.436
Mon Dec 02 20:47:32 2024,310,-25.418,-25.418,1.252,1.252,2.076,23.015,10.778,4.770,14.689,13.078,-5.200,11.060,8.474,11.820,6.866,6.446
Mon Dec 02 20:47:32 2024,315,-25.410,-25.410,1.231,1.231,2.111,23.050,10.788,4.780,14.668,13.090,-5.204,11.024,8.494,11.839,6.833,6.439
Mon Dec 02 20:47:32 2024,320,-25.395,-25.395,1.205,1.205,2.151,23.084,10.796,4.793,14.644,13.103,-5.203,10.990,8.515,11.856,6.797,6.432
Mon Dec 02 20:47:32 2024,325,-25.403,-25.403,1.235,1.235,2.142,23.084,10.807,4.759,14.651,13.085,-5.214,10.978,8.511,11.853,6.800,6.426
Mon Dec 02 20:47:32 2024,330,-25.425,-25.425,1.294,1.294,2.105,23.065,10.817,4.704,14.675,13.050,-5.230,10.984,8.492,11.838,6.824,6.421
Mon Dec 02 20:47:32 2024,335,-25.442,-25.442,1.338,1.338,2.095,23.066,10.849,4.686,14.680,13.056,-5.229,10.992,8.497,11.832,6.838,6.430
Mon Dec 02 20:47:32 2024,340,-25.456,-25.456,1.360,1.360,2.114,23.091,10.900,4.712,14.663,13.105,-5.209,11.004,8.530,11.833,6.838,6.451
Mon Dec 02 20:47:32 2024,345,-25.465,-25.465,1.375,1.375,2.133,23.114,10.945,4.739,14.646,13.151,-5.190,11.013,8.561,11.836,6.837,6.471
Mon Dec 02 20:47:32 2024,350,-25.484,-25.484,1.394,1.394,2.139,23.138,10.942,4.707,14.672,13.134,-5.221,10.982,8.555,11.788,6.884,6.472
Mon Dec 02 20:47:32 2024,355,-25.500,-25.500,1.409,1.409,2.143,23.156,10.934,4.677,14.695,13.115,-5.250,10.955,8.545,11.747,6.924,6.471
Mon Dec 02 20:47:32 2024,360,-25.505,-25.505,1.449,1.449,2.147,23.207,10.942,4.680,14.701,13.095,-5.221,11.023,8.550,11.776,6.918,6.473
Mon Dec 02 20:47:32 2024,365,-25.503,-25.503,1.503,1.503,2.152,23.272,10.960,4.706,14.693,13.078,-5.159,11.142,8.563,11.846,6.882,6.477
Mon Dec 02 20:47:32 2024,370,-25.501,-25.501,1.547,1.547,2.156,23.327,10.974,4.727,14.686,13.064,-5.107,11.244,8.574,11.906,6.851,6.480
Mon Dec 02 20:47:32 2024,375,-25.501,-25.501,1.579,1.579,2.126,23.309,11.037,4.740,14.729,13.191,-5.127,11.286,8.648,11.909,6.863,6.528
Mon Dec 02 20:47:32 2024,380,-25.500,-25.500,1.609,1.609,2.108,23.309,11.081,4.752,14.759,13.283,-5.136,11.324,8.699,11.916,6.869,6.561
Mon Dec 02 20:47:32 2024,385,-25.498,-25.498,1.636,1.636,2.129,23.345,11.073,4.758,14.779,13.326,-5.130,11.308,8.686,11.908,6.883,6.556
Mon Dec 02 20:47:32 2024,390,-25.496,-25.496,1.657,1.657,2.150,23.379,11.060,4.763,14.793,13.354,-5.124,11.289,8.667,11.900,6.895,6.548
Mon Dec 02 20:47:32 2024,395,-25.525,-25.525,1.719,1.719,2.148,23.392,11.095,4.737,14.816,13.362,-5.139,11.291,8.677,11.900,6.907,6.572
Mon Dec 02 20:47:32 2024,400,-25.565,-25.565,1.786,1.786,2.131,23.386,11.151,4.700,14.837,13.355,-5.163,11.306,8.702,11.905,6.915,6.610
Mon Dec 02 20:47:32 2024,405,-25.585,-25.585,1.831,1.831,2.129,23.386,11.199,4.686,14.846,13.385,-5.177,11.312,8.736,11.906,6.919,6.635
Mon Dec 02 20:47:32 2024,410,-25.569,-25.569,1.827,1.827,2.154,23.395,11.226,4.714,14.835,13.471,-5.171,11.299,8.781,11.899,6.914,6.633
Mon Dec 02 20:47:32 2024,415,-25.552,-25.552,1.822,1.822,2.179,23.404,11.253,4.742,14.824,13.558,-5.166,11.286,8.826,11.892,6.910,6.631
Mon Dec 02 20:47:32 2024,420,-25.551,-25.551,1.852,1.852,2.174,23.444,11.246,4.771,14.824,13.564,-5.143,11.354,8.837,11.912,6.923,6.656
Mon Dec 02 20:47:32 2024,425,-25.554,-25.554,1.889,1.889,2.162,23.490,11.232,4.798,14.825,13.551,-5.117,11.438,8.839,11.938,6.939,6.687
Mon Dec 02 20:47:32 2024,430,-25.554,-25.554,1.922,1.922,2.149,23.471,11.253,4.790,14.829,13.559,-5.135,11.421,8.854,11.926,6.945,6.703
Mon Dec 02 20:47:32 2024,435,-25.553,-25.553,1.959,1.959,2.133,23.417,11.294,4.762,14.833,13.580,-5.175,11.353,8.877,11.893,6.946,6.714
Mon Dec 02 20:47:32 2024,440,-25.556,-25.556,1.988,1.988,2.117,23.385,11.323,4.743,14.841,13.596,-5.202,11.317,8.895,11.881,6.942,6.726
Mon Dec 02 20:47:32 2024,445,-25.564,-25.564,1.998,1.998,2.104,23.398,11.324,4.745,14.857,13.600,-5.196,11.347,8.898,11.907,6.932,6.737
Mon Dec 02 20:47:32 2024,450,-25.574,-25.574,2.009,2.009,2.089,23.414,11.325,4.747,14.873,13.604,-5.189,11.381,8.901,11.936,6.921,6.748
Mon Dec 02 20:47:32 2024,455,-25.580,-25.580,2.018,2.018,2.032,23.376,11.310,4.708,14.940,13.636,-5.213,11.380,8.914,11.906,6.978,6.776
Mon Dec 02 20:47:32 2024,460,-25.584,-25.584,2.024,2.024,1.983,23.341,11.297,4.672,14.997,13.665,-5.236,11.376,8.925,11.876,7.030,6.798
Mon Dec 02 20:47:32 2024,465,-25.586,-25.586,2.052,2.052,1.972,23.317,11.317,4.667,14.992,13.676,-5.257,11.333,8.941,11.867,7.047,6.832
Mon Dec 02 20:47:32 2024,470,-25.587,-25.587,2.090,2.090,1.990,23.306,11.355,4.682,14.946,13.673,-5.275,11.272,8.956,11.874,7.037,6.868
Mon Dec 02 20:47:32 2024,475,-25.588,-25.588,2.132,2.132,2.011,23.309,11.388,4.697,14.915,13.678,-5.288,11.233,8.967,11.881,7.025,6.882
Mon Dec 02 20:47:32 2024,480,-25.589,-25.589,2.199,2.199,2.043,23.347,11.416,4.714,14.909,13.701,-5.293,11.234,8.970,11.891,7.004,6.852
Mon Dec 02 20:47:32 2024,485,-25.590,-25.590,2.265,2.265,2.076,23.387,11.443,4.732,14.904,13.725,-5.298,11.238,8.973,11.901,6.984,6.821
Mon Dec 02 20:47:32 2024,490,-25.602,-25.602,2.313,2.313,2.066,23.404,11.458,4.726,14.918,13.734,-5.289,11.288,8.988,11.892,7.015,6.851
Mon Dec 02 20:47:32 2024,495,-25.613,-25.613,2.351,2.351,2.051,23.416,11.471,4.718,14.933,13.740,-5.280,11.338,9.002,11.882,7.049,6.885
Mon Dec 02 20:47:32 2024,500,-25.615,-25.615,2.389,2.389,2.080,23.440,11.470,4.710,14.933,13.732,-5.268,11.335,8.996,11.898,7.035,6.890
Mon Dec 02 20:47:32 2024,505,-25.611,-25.611,2.417,2.417,2.127,23.465,11.463,4.704,14.925,13.717,-5.259,11.301,8.979,11.924,6.996,6.876
Mon Dec 02 20:47:32 2024,510,-25.611,-25.611,2.465,2.465,2.175,23.501,11.462,4.710,14.911,13.701,-5.248,11.287,8.966,11.938,6.975,6.864
Mon Dec 02 20:47:32 2024,515,-25.627,-25.627,2.577,2.577,2.207,23.569,11.487,4.769,14.877,13.682,-5.238,11.363,8.973,11.898,7.033,6.865
Mon Dec 02 20:47:32 2024,520,-25.643,-25.643,2.685,2.685,2.239,23.634,11.512,4.825,14.843,13.664,-5.228,11.436,8.979,11.860,7.088,6.867
Mon Dec 02 20:47:32 2024,525,-25.662,-25.662,2.706,2.706,2.226,23.650,11.500,4.836,14.864,13.682,-5.172,11.562,9.010,11.920,7.066,6.877
Mon Dec 02 20:47:32 2024,530,-25.680,-25.680,2.714,2.714,2.207,23.659,11.484,4.838,14.892,13.705,-5.108,11.696,9.046,11.994,7.031,6.890
Mon Dec 02 20:47:32 2024,535,-25.730,-25.730,2.810,2.810,2.215,23.652,11.484,4.844,14.897,13.720,-5.093,11.693,9.040,12.031,6.994,6.878
Mon Dec 02 20:47:32 2024,540,-25.782,-25.782,2.928,2.928,2.234,23.641,11.493,4.848,14.892,13.727,-5.101,11.630,9.016,12.045,6.963,6.856
Mon Dec 02 20:47:32 2024,545,-25.849,-25.849,3.064,3.064,2.244,23.614,11.508,4.855,14.879,13.738,-5.114,11.569,9.002,12.031,6.961,6.846
Mon Dec 02 20:47:32 2024,550,-25.925,-25.925,3.176,3.176,2.208,23.551,11.528,4.865,14.854,13.755,-5.119,11.594,9.041,11.951,7.054,6.885
Mon Dec 02 20:47:32 2024,555,-25.988,-25.988,3.264,3.264,2.173,23.498,11.545,4.874,14.833,13.770,-5.123,11.622,9.078,11.879,7.138,6.922
Mon Dec 02 20:47:32 2024,560,-26.054,-26.054,3.342,3.342,2.227,23.538,11.558,4.927,14.776,13.748,-5.086,11.644,9.074,11.887,7.121,6.908
Mon Dec 02 20:47:32 2024,565,-26.118,-26.118,3.412,3.412,2.304,23.606,11.570,4.990,14.713,13.717,-5.040,11.661,9.057,11.919,7.074,6.878
Mon Dec 02 20:47:32 2024,570,-26.180,-26.180,3.489,3.489,2.328,23.634,11.587,5.010,14.701,13.697,-5.028,11.683,9.052,11.938,7.065,6.883
Mon Dec 02 20:47:32 2024,575,-26.238,-26.238,3.570,3.570,2.295,23.618,11.608,4.982,14.744,13.692,-5.054,11.709,9.059,11.945,7.095,6.923
Mon Dec 02 20:47:32 2024,580,-26.293,-26.293,3.646,3.646,2.263,23.603,11.628,4.955,14.784,13.687,-5.078,11.734,9.066,11.950,7.123,6.962
Mon Dec 02 20:47:32 2024,585,-26.334,-26.334,3.703,3.703,2.268,23.590,11.617,4.967,14.751,13.610,-5.029,11.786,9.036,11.952,7.130,6.940
Mon Dec 02 20:47:32 2024,590,-26.374,-26.374,3.758,3.758,2.270,23.578,11.608,4.977,14.723,13.539,-4.984,11.835,9.009,11.955,7.137,6.922
Mon Dec 02 20:47:32 2024,595,-26.407,-26.407,3.844,3.844,2.256,23.524,11.607,4.987,14.698,13.527,-4.987,11.803,9.003,11.964,7.124,6.925
Mon Dec 02 20:47:32 2024,600,-26.432,-26.432,3.916,3.916,2.243,23.477,11.606,4.995,14.677,13.525,-4.995,11.767,9.001,11.972,7.111,6.930
Mon Dec 02 20:47:32 2024,605,-26.453,-26.453,3.981,3.981,2.250,23.478,11.602,4.996,14.675,13.525,-4.994,11.761,8.995,11.984,7.107,6.926
Mon Dec 02 20:47:32 2024,610,-26.463,-26.463,4.023,4.023,2.290,23.559,11.593,4.984,14.702,13.525,-4.977,11.804,8.984,12.000,7.120,6.905
Mon Dec 02 20:47:32 2024,615,-26.477,-26.477,4.080,4.080,2.315,23.607,11.587,4.974,14.720,13.522,-4.966,11.834,8.975,12.006,7.133,6.891
Mon Dec 02 20:47:32 2024,620,-26.515,-26.515,4.249,4.249,2.280,23.524,11.597,4.969,14.709,13.508,-4.973,11.819,8.978,11.968,7.158,6.896
Mon Dec 02 20:47:32 2024,625,-26.550,-26.550,4.405,4.405,2.248,23.447,11.606,4.965,14.699,13.494,-4.979,11.805,8.981,11.933,7.181,6.901
Mon Dec 02 20:47:32 2024,630,-26.542,-26.542,4.445,4.445,2.270,23.469,11.609,4.992,14.679,13.500,-4.908,11.889,8.993,11.961,7.186,6.895
Mon Dec 02 20:47:32 2024,635,-26.538,-26.538,4.463,4.463,2.295,23.506,11.611,5.017,14.667,13.501,-4.842,11.970,8.993,11.988,7.191,6.879
Mon Dec 02 20:47:32 2024,640,-26.539,-26.539,4.485,4.485,2.317,23.539,11.614,5.039,14.658,13.500,-4.784,12.043,8.989,12.011,7.198,6.861
Mon Dec 02 20:47:32 2024,645,-26.578,-26.578,4.541,4.541,2.310,23.550,11.623,5.037,14.674,13.477,-4.781,12.061,8.948,11.999,7.224,6.820
Mon Dec 02 20:47:32 2024,650,-26.610,-26.610,4.590,4.590,2.302,23.549,11.626,5.033,14.687,13.455,-4.785,12.068,8.913,11.983,7.249,6.788
Mon Dec 02 20:47:32 2024,655,-26.612,-26.612,4.660,4.660,2.303,23.502,11.577,5.053,14.680,13.431,-4.736,12.119,8.888,11.944,7.306,6.775
Mon Dec 02 20:47:32 2024,660,-26.615,-26.615,4.722,4.722,2.304,23.460,11.535,5.069,14.673,13.408,-4.694,12.166,8.864,11.909,7.353,6.757
Mon Dec 02 20:47:32 2024,665,-26.639,-26.639,4.744,4.744,2.288,23.436,11.530,5.056,14.677,13.372,-4.672,12.200,8.840,11.891,7.358,6.673
Mon Dec 02 20:47:32 2024,670,-26.668,-26.668,4.754,4.754,2.268,23.417,11.536,5.036,14.684,13.334,-4.656,12.229,8.816,11.877,7.350,6.572
Mon Dec 02 20:47:32 2024,675,-26.694,-26.694,4.809,4.809,2.275,23.415,11.555,5.033,14.672,13.318,-4.645,12.231,8.798,11.877,7.339,6.531
Mon Dec 02 20:47:32 2024,680,-26.713,-26.713,4.898,4.898,2.309,23.429,11.584,5.047,14.643,13.324,-4.638,12.209,8.787,11.889,7.326,6.551
Mon Dec 02 20:47:32 2024,685,-26.731,-26.731,4.988,4.988,2.342,23.438,11.609,5.063,14.613,13.333,-4.630,12.184,8.775,11.901,7.312,6.569
Mon Dec 02 20:47:32 2024,690,-26.728,-26.728,5.002,5.002,2.333,23.360,11.556,5.086,14.604,13.370,-4.612,12.138,8.774,11.900,7.301,6.544
Mon Dec 02 20:47:32 2024,695,-26.730,-26.730,5.018,5.018,2.324,23.298,11.514,5.105,14.598,13.397,-4.598,12.108,8.776,11.899,7.295,6.526
Mon Dec 02 20:47:32 2024,700,-26.753,-26.753,5.075,5.075,2.311,23.286,11.495,5.110,14.600,13.378,-4.587,12.154,8.792,11.894,7.315,6.532
Mon Dec 02 20:47:32 2024,705,-26.788,-26.788,5.153,5.153,2.295,23.296,11.487,5.106,14.608,13.337,-4.577,12.236,8.816,11.886,7.348,6.548
Mon Dec 02 20:47:32 2024,710,-26.793,-26.793,5.222,5.222,2.297,23.306,11.446,5.123,14.594,13.276,-4.554,12.302,8.809,11.897,7.352,6.524
Mon Dec 02 20:47:32 2024,715,-26.760,-26.760,5.268,5.268,2.322,23.312,11.370,5.161,14.556,13.199,-4.516,12.340,8.763,11.930,7.321,6.452
Mon Dec 02 20:47:32 2024,720,-26.729,-26.729,5.338,5.338,2.332,23.323,11.306,5.187,14.535,13.130,-4.484,12.390,8.720,11.950,7.310,6.388
Mon Dec 02 20:47:32 2024,725,-26.705,-26.705,5.470,5.470,2.294,23.346,11.277,5.178,14.570,13.086,-4.470,12.473,8.694,11.928,7.355,6.352
Mon Dec 02 20:47:32 2024,730,-26.677,-26.677,5.625,5.625,2.248,23.376,11.246,5.167,14.611,13.037,-4.454,12.571,8.666,11.899,7.412,6.315
Mon Dec 02 20:47:32 2024,735,-26.615,-26.615,5.742,5.742,2.273,23.423,11.242,5.135,14.620,12.992,-4.438,12.588,8.655,11.875,7.423,6.264
Mon Dec 02 20:47:32 2024,740,-26.553,-26.553,5.823,5.823,2.320,23.469,11.250,5.100,14.614,12.957,-4.424,12.572,8.652,11.859,7.416,6.217
Mon Dec 02 20:47:32 2024,745,-26.471,-26.471,5.956,5.956,2.331,23.460,11.225,5.047,14.628,12.883,-4.439,12.520,8.594,11.812,7.432,6.144
Mon Dec 02 20:47:32 2024,750,-26.370,-26.370,6.148,6.148,2.280,23.362,11.152,4.973,14.676,12.758,-4.500,12.419,8.454,11.723,7.483,6.040
Mon Dec 02 20:47:32 2024,755,-26.280,-26.280,6.336,6.336,2.236,23.264,11.073,4.916,14.711,12.647,-4.545,12.343,8.342,11.655,7.518,5.946
Mon Dec 02 20:47:32 2024,760,-26.192,-26.192,6.557,6.557,2.195,23.148,10.961,4.883,14.724,12.537,-4.562,12.301,8.264,11.613,7.531,5.856
Mon Dec 02 20:47:32 2024,765,-26.101,-26.101,6.796,6.796,2.152,23.022,10.837,4.855,14.734,12.423,-4.573,12.264,8.191,11.575,7.538,5.762
Mon Dec 02 20:47:32 2024,770,-26.025,-26.025,7.009,7.009,2.163,23.025,10.834,4.843,14.728,12.410,-4.552,12.285,8.212,11.571,7.534,5.752
Mon Dec 02 20:47:32 2024,775,-25.960,-25.960,7.193,7.193,2.186,23.061,10.862,4.836,14.719,12.424,-4.526,12.318,8.256,11.575,7.528,5.764
Mon Dec 02 20:47:32 2024,780,-25.894,-25.894,7.403,7.403,2.218,23.091,10.863,4.818,14.713,12.394,-4.504,12.305,8.240,11.560,7.523,5.728
Mon Dec 02 20:47:32 2024,785,-25.826,-25.826,7.656,7.656,2.268,23.106,10.800,4.776,14.712,12.268,-4.495,12.188,8.091,11.500,7.521,5.586
Mon Dec 02 20:47:32 2024,790,-25.764,-25.764,7.908,7.908,2.308,23.108,10.732,4.743,14.707,12.150,-4.486,12.082,7.954,11.441,7.523,5.456
Mon Dec 02 20:47:32 2024,795,-25.742,-25.742,8.122,8.122,2.275,23.012,10.642,4.776,14.691,12.114,-4.469,12.083,7.918,11.396,7.554,5.416
Mon Dec 02 20:47:32 2024,800,-25.718,-25.718,8.338,8.338,2.242,22.917,10.550,4.810,14.674,12.077,-4.452,12.084,7.882,11.350,7.586,5.375
Mon Dec 02 20:47:32 2024,805,-25.673,-25.673,8.490,8.490,2.220,22.877,10.509,4.800,14.687,12.037,-4.423,12.110,7.867,11.349,7.583,5.332
Mon Dec 02 20:47:32 2024,810,-25.627,-25.627,8.585,8.585,2.208,22.869,10.498,4.770,14.710,12.003,-4.394,12.144,7.865,11.368,7.564,5.297
Mon Dec 02 20:47:32 2024,815,-25.570,-25.570,8.706,8.706,2.218,22.850,10.446,4.760,14.693,11.930,-4.386,12.102,7.812,11.347,7.556,5.229
Mon Dec 02 20:47:32 2024,820,-25.509,-25.509,8.842,8.842,2.248,22.823,10.353,4.775,14.629,11.820,-4.406,11.976,7.708,11.281,7.561,5.132
Mon Dec 02 20:47:32 2024,825,-25.441,-25.441,9.012,9.012,2.285,22.796,10.252,4.793,14.553,11.693,-4.423,11.832,7.587,11.205,7.567,5.022
Mon Dec 02 20:47:32 2024,830,-25.437,-25.437,9.210,9.210,2.300,22.802,10.274,4.807,14.521,11.650,-4.381,11.789,7.537,11.180,7.595,5.006
Mon Dec 02 20:47:32 2024,835,-25.434,-25.434,9.404,9.404,2.316,22.806,10.295,4.822,14.489,11.606,-4.341,11.746,7.488,11.157,7.623,4.992
Mon Dec 02 20:47:32 2024,840,-25.428,-25.428,9.604,9.604,2.324,22.790,10.245,4.798,14.478,11.488,-4.311,11.736,7.426,11.091,7.655,4.910
Mon Dec 02 20:47:32 2024,845,-25.420,-25.420,9.831,9.831,2.330,22.763,10.157,4.753,14.476,11.322,-4.281,11.740,7.348,11.000,7.692,4.790
Mon Dec 02 20:47:32 2024,850,-25.402,-25.402,10.238,10.238,2.316,22.728,10.085,4.730,14.473,11.212,-4.263,11.710,7.286,10.932,7.716,4.719
Mon Dec 02 20:47:32 2024,855,-25.367,-25.367,10.957,10.957,2.267,22.679,10.041,4.744,14.472,11.200,-4.264,11.625,7.249,10.904,7.719,4.732
Mon Dec 02 20:47:32 2024,860,-25.331,-25.331,11.724,11.724,2.211,22.609,10.018,4.724,14.483,11.171,-4.285,11.530,7.204,10.860,7.731,4.742
Mon Dec 02 20:47:32 2024,865,-25.266,-25.266,13.185,13.185,2.088,22.407,10.069,4.554,14.551,11.061,-4.405,11.334,7.093,10.721,7.784,4.739
Mon Dec 02 20:47:32 2024,870,-25.203,-25.203,14.587,14.587,1.970,22.213,10.127,4.378,14.612,10.949,-4.526,11.146,6.984,10.583,7.834,4.735
Mon Dec 02 20:47:32 2024,875,-25.342,-25.342,16.217,16.217,1.919,22.142,10.345,4.333,14.652,10.985,-4.542,11.082,6.983,10.551,7.770,4.741
Mon Dec 02 20:47:32 2024,880,-25.595,-25.595,17.986,17.986,1.905,22.135,10.650,4.358,14.681,11.101,-4.498,11.084,7.040,10.576,7.643,4.757
Mon Dec 02 20:47:32 2024,885,-25.883,-25.883,19.886,19.886,1.845,22.018,10.889,4.376,14.662,11.195,-4.506,10.943,7.070,10.567,7.527,4.806
Mon Dec 02 20:47:32 2024,890,-26.191,-26.191,21.831,21.831,1.734,21.802,11.038,4.384,14.586,11.257,-4.575,10.642,7.066,10.520,7.428,4.893
Mon Dec 02 20:47:32 2024,895,-26.588,-26.588,24.136,24.136,1.580,20.123,11.245,4.415,14.569,11.433,-4.576,10.379,7.134,10.566,7.275,5.042
Mon Dec 02 20:47:32 2024,900,-27.018,-27.018,26.384,26.384,1.401,18.599,11.485,4.471,14.629,11.719,-4.491,10.222,7.283,10.721,7.091,5.239
Mon Dec 02 20:47:32 2024,905,-27.470,-27.470,28.516,28.516,1.217,18.768,11.733,4.541,14.728,12.066,-4.350,10.145,7.481,10.946,6.895,5.466
Mon Dec 02 20:47:32 2024,910,-27.528,-27.528,30.543,30.543,0.636,18.877,11.738,4.241,14.897,12.293,-4.474,9.741,7.714,11.037,6.916,5.856
Mon Dec 02 20:47:32 2024,915,-27.366,5.408,32.438,32.438,-0.112,18.008,11.596,3.760,15.013,12.431,-4.728,9.176,7.947,11.038,7.060,6.304
Mon Dec 02 20:47:32 2024,920,-27.474,27.474,34.124,34.124,-0.541,17.221,11.561,3.491,14.996,12.564,-4.824,8.791,8.102,11.126,7.030,6.609
Mon Dec 02 20:47:32 2024,925,-28.272,28.272,35.740,35.740,-0.424,16.905,11.753,3.594,14.814,12.716,-4.626,8.690,8.137,11.429,6.620,6.689
Mon Dec 02 20:47:32 2024,930,-29.054,29.054,36.978,36.978,-0.403,16.619,11.906,3.647,14.687,12.826,-4.516,8.595,8.165,11.632,6.328,6.752
Mon Dec 02 20:47:32 2024,935,-29.820,29.820,37.175,37.175,-0.819,16.215,12.035,3.513,14.699,12.848,-4.710,8.463,8.195,11.564,6.310,6.797
Mon Dec 02 20:47:32 2024,940,-30.626,30.626,36.992,36.992,-1.348,15.795,12.138,3.342,14.793,12.835,-4.970,8.376,8.227,11.439,6.375,6.837
Mon Dec 02 20:47:32 2024,945,-31.476,31.476,36.653,36.653,-1.678,15.777,12.177,3.337,15.161,12.793,-4.976,8.718,8.300,11.593,6.344,6.892
Mon Dec 02 20:47:32 2024,950,-32.346,32.346,36.174,36.174,-1.853,16.075,12.168,3.459,15.668,12.726,-4.785,9.396,8.406,11.964,6.226,6.961
Mon Dec 02 20:47:32 2024,955,-33.119,33.119,35.984,35.984,-1.963,16.336,12.152,3.634,15.904,12.706,-4.583,9.959,8.550,12.388,6.016,7.086
Mon Dec 02 20:47:32 2024,960,-33.386,33.386,36.367,36.367,-1.926,16.480,12.128,3.833,15.791,12.779,-4.433,10.118,8.707,12.747,5.757,7.261
Mon Dec 02 20:47:32 2024,965,-33.680,33.680,36.984,36.984,-1.868,16.634,12.075,4.049,15.626,12.850,-4.288,10.243,8.871,13.132,5.461,7.453
Mon Dec 02 20:47:32 2024,970,-33.824,33.824,37.974,37.974,-1.812,16.692,11.886,4.091,15.511,12.775,-4.329,10.142,8.863,13.229,5.356,7.487
Mon Dec 02 20:47:32 2024,975,-33.964,33.964,38.970,38.970,-1.759,16.733,11.687,4.105,15.400,12.681,-4.397,10.013,8.830,13.278,5.285,7.496
Mon Dec 02 20:47:32 2024,980,-34.220,34.220,39.645,39.645,-1.687,16.747,11.519,4.131,15.224,12.616,-4.466,9.848,8.811,13.278,5.193,7.413
Mon Dec 02 20:47:32 2024,985,-34.522,34.522,40.011,40.011,-1.612,16.742,11.394,4.161,15.018,12.580,-4.528,9.684,8.806,13.248,5.097,7.284
Mon Dec 02 20:47:32 2024,990,-34.928,34.928,40.112,40.112,-1.499,16.768,11.351,4.205,14.788,12.580,-4.538,9.534,8.840,13.228,4.983,7.205
Mon Dec 02 20:47:32 2024,995,-35.592,35.592,39.648,39.648,-1.290,16.870,11.487,4.281,14.497,12.665,-4.440,9.402,8.969,13.230,4.825,7.227
Mon Dec 02 20:47:33 2024,0,-36.149,36.149,39.255,39.255,-1.120,16.943,11.601,4.341,14.257,12.734,-4.359,9.295,9.076,13.231,4.695,7.249
Mon Dec 02 20:47:33 2024,5,-36.529,36.529,39.046,39.046,-1.021,17.042,11.682,4.322,14.170,12.770,-4.332,9.215,9.162,13.276,4.594,7.320
Mon Dec 02 20:47:33 2024,10,-36.877,36.877,38.866,38.866,-0.934,17.138,11.755,4.293,14.102,12.801,-4.314,9.141,9.242,13.326,4.500,7.392
Mon Dec 02 20:47:33 2024,15,-37.161,37.161,38.662,38.662,-0.868,17.220,11.813,4.259,14.053,12.796,-4.306,9.115,9.301,13.383,4.405,7.433
Mon Dec 02 20:47:33 2024,20,-37.311,37.311,38.461,38.461,-0.841,17.272,11.840,4.219,14.038,12.743,-4.313,9.157,9.323,13.442,4.323,7.425
Mon Dec 02 20:47:33 2024,25,-37.437,37.437,38.302,38.302,-0.808,17.323,11.861,4.201,14.015,12.701,-4.314,9.166,9.332,13.492,4.239,7.408
Mon Dec 02 20:47:33 2024,30,-37.428,37.428,38.287,38.287,-0.753,17.375,11.853,4.268,13.963,12.682,-4.298,9.064,9.274,13.513,4.135,7.331
Mon Dec 02 20:47:33 2024,35,-37.422,37.422,38.275,38.275,-0.712,17.413,11.847,4.316,13.926,12.668,-4.286,8.989,9.231,13.529,4.058,7.275
Mon Dec 02 20:47:33 2024,40,-37.425,37.425,38.257,38.257,-0.684,17.533,11.877,4.286,13.929,12.651,-4.286,8.991,9.246,13.569,3.998,7.288
Mon Dec 02 20:47:33 2024,45,-37.430,37.430,38.243,38.243,-0.666,17.640,11.907,4.246,13.940,12.637,-4.290,9.011,9.270,13.604,3.958,7.313
Mon Dec 02 20:47:33 2024,50,-37.435,37.435,38.229,38.229,-0.650,17.744,11.937,4.207,13.951,12.624,-4.293,9.030,9.293,13.638,3.918,7.338
Mon Dec 02 20:47:33 2024,55,-37.506,37.506,38.115,38.115,-0.643,17.852,11.980,4.240,13.923,12.572,-4.305,8.973,9.246,13.615,3.854,7.215
Mon Dec 02 20:47:33 2024,60,-37.586,37.586,38.007,38.007,-0.623,17.947,11.995,4.260,13.920,12.563,-4.314,8.934,9.226,13.624,3.803,7.157
Mon Dec 02 20:47:33 2024,65,-37.720,37.720,37.857,37.857,-0.585,18.014,11.964,4.296,13.941,12.614,-4.322,8.885,9.216,13.662,3.764,7.140
Mon Dec 02 20:47:33 2024,70,-37.870,37.870,37.691,37.691,-0.543,18.085,11.927,4.337,13.966,12.673,-4.331,8.831,9.207,13.706,3.723,7.126
Mon Dec 02 20:47:33 2024,75,-37.888,37.888,37.484,37.484,-0.478,18.158,11.901,4.363,13.949,12.705,-4.276,8.807,9.216,13.696,3.704,7.103
Mon Dec 02 20:47:33 2024,80,-37.882,37.882,37.285,37.285,-0.415,18.225,11.878,4.384,13.926,12.730,-4.215,8.790,9.227,13.678,3.691,7.080
Mon Dec 02 20:47:33 2024,85,-37.939,37.939,37.004,37.004,-0.350,18.309,11.843,4.404,13.925,12.750,-4.158,8.821,9.244,13.656,3.722,7.063
Mon Dec 02 20:47:33 2024,90,-38.123,38.123,36.538,36.538,-0.278,18.438,11.780,4.422,13.962,12.766,-4.103,8.947,9.271,13.624,3.840,7.053
Mon Dec 02 20:47:33 2024,95,-38.248,38.248,36.214,36.214,-0.226,18.526,11.736,4.436,13.985,12.778,-4.062,9.031,9.290,13.602,3.918,7.045
Mon Dec 02 20:47:33 2024,100,-38.211,38.211,35.779,35.779,-0.088,18.657,11.722,4.494,13.960,12.817,-3.985,9.095,9.290,13.591,3.949,7.003
Mon Dec 02 20:47:33 2024,105,-38.196,38.196,35.395,35.395,0.026,18.762,11.707,4.543,13.940,12.851,-3.918,9.155,9.292,13.580,3.980,6.967
Mon Dec 02 20:47:33 2024,110,-38.188,38.188,35.110,35.110,0.112,18.834,11.696,4.579,13.925,12.876,-3.868,9.200,9.294,13.572,4.004,6.941
Mon Dec 02 20:47:33 2024,115,-38.186,38.186,34.951,34.951,0.161,18.870,11.690,4.599,13.916,12.890,-3.840,9.224,9.294,13.567,4.018,6.926
Mon Dec 02 20:47:33 2024,120,-38.074,38.074,34.137,34.137,0.312,19.044,11.490,4.710,13.958,12.914,-3.896,9.123,9.150,13.666,4.068,6.846
Mon Dec 02 20:47:33 2024,125,-38.040,38.040,33.740,33.740,0.400,19.107,11.420,4.764,13.962,12.934,-3.892,9.109,9.104,13.694,4.094,6.808
Mon Dec 02 20:47:33 2024,130,-38.007,38.007,33.338,33.338,0.488,19.153,11.349,4.817,13.965,12.954,-3.889,9.095,9.056,13.724,4.119,6.770
Mon Dec 02 20:47:33 2024,135,-37.994,37.994,33.057,33.057,0.496,19.091,11.470,4.750,14.006,13.056,-3.899,9.096,9.084,13.695,4.212,6.816
Mon Dec 02 20:47:33 2024,140,-37.985,37.985,32.813,32.813,0.507,19.043,11.562,4.700,14.038,13.136,-3.907,9.097,9.105,13.675,4.286,6.849
Mon Dec 02 20:47:33 2024,145,-37.906,37.906,32.692,32.692,0.572,19.094,11.570,4.742,14.013,13.113,-3.866,9.175,9.114,13.728,4.268,6.834
Mon Dec 02 20:47:33 2024,150,-37.812,37.812,32.592,32.592,0.645,19.142,11.562,4.800,13.977,13.072,-3.816,9.268,9.120,13.796,4.232,6.812
Mon Dec 02 20:47:33 2024,155,-37.729,37.729,32.533,32.533,0.698,19.157,11.563,4.820,13.955,13.039,-3.800,9.320,9.120,13.824,4.225,6.796
Mon Dec 02 20:47:33 2024,160,-37.624,37.624,32.541,32.541,0.727,19.152,11.582,4.756,13.959,13.004,-3.853,9.296,9.104,13.768,4.281,6.789
Mon Dec 02 20:47:33 2024,165,-37.544,37.544,32.543,32.543,0.752,19.146,11.594,4.714,13.958,12.978,-3.890,9.285,9.092,13.730,4.319,6.784
Mon Dec 02 20:47:33 2024,170,-37.547,37.547,32.383,32.383,0.762,19.168,11.686,4.712,13.995,13.029,-3.945,9.259,9.072,13.764,4.245,6.714
Mon Dec 02 20:47:33 2024,175,-37.547,37.547,32.242,32.242,0.773,19.181,11.766,4.711,14.027,13.073,-3.995,9.236,9.052,13.792,4.182,6.651
Mon Dec 02 20:47:33 2024,180,-37.468,37.468,32.198,32.198,0.776,19.181,11.765,4.714,14.053,13.094,-4.032,9.248,9.043,13.774,4.207,6.639
Mon Dec 02 20:47:33 2024,185,-37.363,37.363,32.173,32.173,0.778,19.179,11.744,4.720,14.079,13.112,-4.068,9.267,9.035,13.744,4.255,6.637
Mon Dec 02 20:47:33 2024,190,-37.321,37.321,32.196,32.196,0.814,19.155,11.739,4.754,14.056,13.102,-4.063,9.306,9.022,13.738,4.273,6.633
Mon Dec 02 20:47:33 2024,195,-37.350,37.350,32.276,32.276,0.895,19.093,11.752,4.826,13.975,13.061,-4.008,9.367,8.999,13.763,4.256,6.623
Mon Dec 02 20:47:33 2024,200,-37.348,37.348,32.332,32.332,0.973,19.025,11.759,4.888,13.903,13.023,-3.967,9.406,8.975,13.771,4.248,6.612
Mon Dec 02 20:47:33 2024,205,-37.239,37.239,32.325,32.325,1.067,18.933,11.751,4.938,13.835,12.987,-3.956,9.383,8.940,13.727,4.275,6.593
Mon Dec 02 20:47:33 2024,210,-37.123,37.123,32.311,32.311,1.159,18.839,11.742,4.986,13.772,12.953,-3.949,9.354,8.905,13.679,4.303,6.574
Mon Dec 02 20:47:33 2024,215,-37.007,37.007,32.362,32.362,1.204,18.794,11.759,4.999,13.714,12.927,-3.978,9.323,8.880,13.618,4.354,6.561
Mon Dec 02 20:47:33 2024,220,-36.888,36.888,32.442,32.442,1.232,18.768,11.787,4.999,13.657,12.904,-4.022,9.290,8.858,13.548,4.415,6.550
Mon Dec 02 20:47:33 2024,225,-36.742,36.742,32.504,32.504,1.268,18.731,11.784,5.024,13.589,12.874,-4.037,9.270,8.834,13.492,4.454,6.535
Mon Dec 02 20:47:33 2024,230,-36.520,36.520,32.562,32.562,1.327,18.673,11.740,5.087,13.489,12.830,-4.017,9.262,8.800,13.435,4.476,6.510
Mon Dec 02 20:47:33 2024,235,-36.322,36.322,32.636,32.636,1.391,18.606,11.701,5.149,13.383,12.784,-4.000,9.235,8.760,13.386,4.489,6.484
Mon Dec 02 20:47:33 2024,240,-36.239,36.239,32.843,32.843,1.507,18.477,11.689,5.212,13.218,12.718,-3.996,9.087,8.669,13.369,4.447,6.440
Mon Dec 02 20:47:33 2024,245,-36.173,36.173,33.009,33.009,1.601,18.367,11.680,5.263,13.084,12.665,-3.993,8.968,8.596,13.355,4.412,6.404
Mon Dec 02 20:47:33 2024,250,-35.873,35.873,33.385,33.385,1.726,18.237,11.673,5.364,12.896,12.539,-3.969,8.927,8.489,13.331,4.373,6.303
Mon Dec 02 20:47:33 2024,255,-35.595,35.595,33.706,33.706,1.819,18.145,11.671,5.448,12.752,12.431,-3.946,8.928,8.407,13.311,4.345,6.213
Mon Dec 02 20:47:33 2024,260,-35.336,35.336,34.250,34.250,1.884,18.071,11.754,5.515,12.599,12.361,-3.953,8.916,8.350,13.270,4.326,6.154
Mon Dec 02 20:47:33 2024,265,-35.202,35.202,34.802,34.802,1.897,18.042,11.893,5.539,12.497,12.357,-3.987,8.896,8.344,13.225,4.322,6.150
Mon Dec 02 20:47:33 2024,270,-35.009,35.009,35.540,35.540,1.914,18.007,12.069,5.569,12.369,12.339,-4.020,8.898,8.337,13.166,4.323,6.148
Mon Dec 02 20:47:33 2024,275,-34.603,34.603,36.546,36.546,1.949,18.012,12.246,5.604,12.274,12.229,-3.982,9.096,8.342,13.102,4.364,6.168
Mon Dec 02 20:47:33 2024,280,-34.213,34.213,37.551,37.551,1.983,18.004,12.422,5.640,12.178,12.120,-3.945,9.294,8.348,13.039,4.405,6.187
Mon Dec 02 20:47:33 2024,285,-33.745,33.745,37.991,37.991,2.026,17.970,12.453,5.683,12.172,12.055,-3.976,9.395,8.254,12.994,4.487,6.141
Mon Dec 02 20:47:33 2024,290,-33.216,33.216,38.309,38.309,2.078,17.922,12.440,5.736,12.193,11.996,-4.036,9.478,8.114,12.950,4.593,6.068
Mon Dec 02 20:47:33 2024,295,-32.696,32.696,38.359,38.359,2.081,17.917,12.445,5.773,12.314,12.014,-4.085,9.589,8.003,12.941,4.720,6.048
Mon Dec 02 20:47:33 2024,300,-32.139,32.139,37.975,37.975,2.010,17.980,12.480,5.790,12.592,12.157,-4.127,9.754,7.924,12.984,4.887,6.108
Mon Dec 02 20:47:33 2024,305,-31.756,31.756,37.471,37.471,1.945,20.385,12.587,5.772,12.900,12.256,-4.153,9.926,7.794,12.965,5.033,6.061
Mon Dec 02 20:47:33 2024,310,-31.530,31.530,36.787,36.787,1.884,21.999,12.813,5.708,13.291,12.304,-4.157,10.129,7.570,12.857,5.173,5.852
Mon Dec 02 20:47:33 2024,315,-31.396,31.396,36.139,36.139,1.814,22.041,13.068,5.619,13.652,12.325,-4.169,10.293,7.325,12.699,5.311,5.598
Mon Dec 02 20:47:33 2024,320,-30.811,30.811,36.117,36.117,1.563,21.727,13.140,5.372,13.791,12.330,-4.424,9.922,7.198,12.334,5.497,5.536
Mon Dec 02 20:47:33 2024,325,-29.934,29.934,36.404,36.404,1.167,20.725,13.146,4.994,13.812,12.328,-4.853,9.213,7.098,11.786,5.724,5.548
Mon Dec 02 20:47:33 2024,330,-29.366,29.366,36.566,36.566,1.045,18.954,13.250,4.818,13.734,12.352,-5.051,8.689,7.047,11.520,5.728,5.562
Mon Dec 02 20:47:33 2024,335,-29.192,29.192,36.559,36.559,1.294,18.691,13.474,4.918,13.591,12.412,-4.934,8.441,7.063,11.641,5.466,5.578
Mon Dec 02 20:47:33 2024,340,-29.047,29.047,36.370,36.370,1.510,21.573,13.698,4.995,13.513,12.456,-4.833,8.276,7.095,11.756,5.255,5.586
Mon Dec 02 20:47:33 2024,345,-28.786,28.786,34.952,34.952,1.398,21.780,13.887,4.854,13.816,12.400,-4.919,8.526,7.184,11.707,5.436,5.539
Mon Dec 02 20:47:33 2024,350,-28.711,28.711,33.326,33.326,1.281,22.237,14.075,4.700,14.148,12.333,-5.033,8.812,7.265,11.610,5.656,5.462
Mon Dec 02 20:47:33 2024,355,-28.981,28.981,31.096,31.096,1.430,22.815,14.243,4.677,14.290,12.304,-5.131,8.923,7.224,11.378,5.757,5.278
Mon Dec 02 20:47:33 2024,360,-29.441,29.441,28.600,28.600,1.742,23.412,14.397,4.736,14.308,12.300,-5.218,8.926,7.108,11.066,5.774,5.033
Mon Dec 02 20:47:33 2024,365,-29.801,-9.982,25.911,25.911,1.841,23.867,14.281,4.772,14.426,12.245,-5.288,8.971,6.965,10.847,5.867,4.731
Mon Dec 02 20:47:33 2024,370,-29.996,-29.996,22.490,22.490,1.554,24.148,13.668,4.768,14.713,12.089,-5.336,9.099,6.758,10.779,6.114,4.296
Mon Dec 02 20:47:33 2024,375,-30.149,-30.149,19.544,19.544,1.300,24.350,13.156,4.792,14.880,11.986,-5.368,9.180,6.594,10.762,6.292,3.958
Mon Dec 02 20:47:33 2024,380,-30.218,-30.218,16.828,16.828,1.075,24.382,12.759,4.864,14.933,11.965,-5.380,9.194,6.481,10.818,6.376,3.724
Mon Dec 02 20:47:33 2024,385,-30.266,-30.266,13.703,13.703,0.818,24.349,12.338,4.973,14.921,11.977,-5.386,9.178,6.370,10.922,6.429,3.497
Mon Dec 02 20:47:33 2024,390,-30.314,-30.314,10.879,10.879,0.668,24.234,12.016,5.005,14.921,12.038,-5.372,9.188,6.328,11.072,6.358,3.364
Mon Dec 02 20:47:33 2024,395,-30.364,-30.364,8.563,8.563,0.581,24.098,11.777,5.002,14.934,12.111,-5.353,9.206,6.319,11.220,6.247,3.290
Mon Dec 02 20:47:33 2024,400,-30.387,-30.387,6.533,6.533,0.487,23.932,11.614,4.938,14.981,12.159,-5.380,9.119,6.331,11.394,6.078,3.277
Mon Dec 02 20:47:33 2024,405,-30.364,-30.364,5.279,5.279,0.399,23.747,11.600,4.792,15.058,12.160,-5.475,8.883,6.377,11.577,5.852,3.356
Mon Dec 02 20:47:33 2024,410,-30.356,-30.356,4.053,4.053,0.314,23.569,11.586,4.650,15.110,12.161,-5.567,8.653,6.422,11.755,5.632,3.433
Mon Dec 02 20:47:33 2024,415,-30.365,-30.365,3.381,3.381,0.191,23.416,11.540,4.517,15.191,12.131,-5.656,8.487,6.443,11.956,5.425,3.536
Mon Dec 02 20:47:33 2024,420,-30.391,-30.391,2.838,2.838,0.074,23.280,11.494,4.396,15.266,12.100,-5.737,8.342,6.460,12.145,5.235,3.637
Mon Dec 02 20:47:33 2024,425,-30.334,-30.334,2.338,2.338,-0.050,23.177,11.411,4.270,15.351,12.054,-5.800,8.296,6.500,12.298,5.146,3.771
Mon Dec 02 20:47:33 2024,430,-30.255,-30.255,1.926,1.926,-0.144,23.103,11.325,4.162,15.426,12.008,-5.847,8.296,6.544,12.414,5.113,3.899
Mon Dec 02 20:47:33 2024,435,-30.184,-30.184,1.530,1.530,-0.218,23.026,11.236,4.059,15.474,11.968,-5.908,8.234,6.587,12.508,5.061,4.015
Mon Dec 02 20:47:33 2024,440,-30.126,-30.126,1.246,1.246,-0.219,22.951,11.155,3.988,15.441,11.947,-5.995,8.004,6.622,12.523,4.970,4.071
Mon Dec 02 20:47:33 2024,445,-30.085,-30.085,1.007,1.007,-0.219,22.888,11.088,3.929,15.405,11.930,-6.068,7.815,6.650,12.538,4.894,4.119
Mon Dec 02 20:47:33 2024,450,-29.946,-29.946,0.760,0.760,-0.304,22.844,10.951,3.848,15.426,11.885,-6.127,7.734,6.698,12.564,4.867,4.192
Mon Dec 02 20:47:33 2024,455,-29.818,-29.818,0.539,0.539,-0.387,22.808,10.822,3.774,15.448,11.841,-6.179,7.670,6.744,12.589,4.847,4.260
Mon Dec 02 20:47:33 2024,460,-29.645,-29.645,-0.357,0.357,-0.512,22.799,10.695,3.703,15.505,11.823,-6.210,7.628,6.746,12.617,4.868,4.304
Mon Dec 02 20:47:33 2024,465,-29.487,-29.487,-0.238,0.238,-0.632,22.804,10.588,3.644,15.565,11.816,-6.229,7.601,6.733,12.642,4.899,4.334
Mon Dec 02 20:47:33 2024,470,-29.333,-29.333,-0.161,0.161,-0.750,22.814,10.483,3.586,15.624,11.809,-6.248,7.574,6.722,12.666,4.929,4.363
Mon Dec 02 20:47:33 2024,475,-29.011,-29.011,-0.306,-0.306,-0.800,22.738,10.264,3.484,15.650,11.685,-6.304,7.408,6.625,12.585,4.968,4.296
Mon Dec 02 20:47:33 2024,480,-28.777,-28.777,-0.489,-0.489,-0.849,22.689,10.103,3.408,15.671,11.600,-6.343,7.292,6.557,12.534,4.997,4.257
Mon Dec 02 20:47:33 2024,485,-28.555,-28.555,-0.757,-0.757,-0.928,22.741,10.030,3.349,15.729,11.563,-6.362,7.300,6.529,12.545,5.008,4.226
Mon Dec 02 20:47:33 2024,490,-28.386,-28.386,-0.969,-0.969,-0.989,22.787,9.980,3.305,15.776,11.538,-6.374,7.313,6.509,12.557,5.015,4.204
Mon Dec 02 20:47:33 2024,495,-28.230,-28.230,-1.186,-1.186,-1.037,22.774,9.878,3.282,15.786,11.496,-6.361,7.333,6.502,12.589,4.988,4.176
Mon Dec 02 20:47:33 2024,500,-28.132,-28.132,-1.336,-1.336,-1.059,22.725,9.774,3.280,15.768,11.458,-6.336,7.352,6.507,12.624,4.947,4.153
Mon Dec 02 20:47:33 2024,505,-28.026,-28.026,-1.501,-1.501,-1.085,22.672,9.660,3.278,15.747,11.416,-6.308,7.373,6.512,12.664,4.902,4.129
Mon Dec 02 20:47:33 2024,510,-27.945,-27.945,-1.686,-1.686,-1.186,22.699,9.561,3.270,15.750,11.371,-6.298,7.381,6.507,12.666,4.913,4.140
Mon Dec 02 20:47:33 2024,515,-27.877,-27.877,-1.846,-1.846,-1.277,22.728,9.476,3.263,15.753,11.333,-6.291,7.386,6.502,12.666,4.926,4.151
Mon Dec 02 20:47:33 2024,520,-27.769,-27.769,-2.023,-2.023,-1.389,22.676,9.332,3.221,15.772,11.287,-6.281,7.374,6.489,12.682,4.939,4.162
Mon Dec 02 20:47:33 2024,525,-27.668,-27.668,-2.183,-2.183,-1.491,22.625,9.195,3.178,15.792,11.244,-6.272,7.359,6.475,12.697,4.952,4.173
Mon Dec 02 20:47:33 2024,530,-27.565,-27.565,-2.345,-2.345,-1.580,22.611,9.116,3.128,15.805,11.205,-6.280,7.354,6.467,12.713,4.967,4.185
Mon Dec 02 20:47:33 2024,535,-27.485,-27.485,-2.469,-2.469,-1.637,22.626,9.100,3.086,15.809,11.177,-6.299,7.358,6.465,12.724,4.981,4.194
Mon Dec 02 20:47:33 2024,540,-27.415,-27.415,-2.578,-2.578,-1.687,22.639,9.085,3.049,15.813,11.153,-6.315,7.361,6.463,12.735,4.993,4.203
Mon Dec 02 20:47:33 2024,545,-27.240,-27.240,-2.776,-2.776,-1.669,22.599,9.052,3.036,15.816,11.180,-6.309,7.375,6.482,12.746,5.003,4.226
Mon Dec 02 20:47:33 2024,550,-27.086,-27.086,-2.953,-2.953,-1.660,22.567,9.023,3.021,15.818,11.199,-6.306,7.386,6.497,12.756,5.013,4.246
Mon Dec 02 20:47:33 2024,555,-26.960,-26.960,-3.118,-3.118,-1.652,22.548,9.011,2.998,15.810,11.200,-6.308,7.403,6.495,12.782,4.998,4.229
Mon Dec 02 20:47:33 2024,560,-26.827,-26.827,-3.294,-3.294,-1.644,22.529,8.999,2.973,15.798,11.198,-6.310,7.421,6.492,12.812,4.980,4.207
Mon Dec 02 20:47:33 2024,565,-26.718,-26.718,-3.381,-3.381,-1.630,22.532,8.996,2.953,15.788,11.175,-6.292,7.501,6.497,12.848,4.973,4.198
Mon Dec 02 20:47:33 2024,570,-26.601,-26.601,-3.290,-3.290,-1.596,22.600,9.009,2.935,15.768,11.078,-6.217,7.792,6.526,12.925,4.996,4.217
Mon Dec 02 20:47:33 2024,575,-26.522,-26.522,-3.191,-3.191,-1.578,22.633,9.022,2.890,15.746,10.996,-6.174,7.994,6.544,12.975,5.012,4.233
Mon Dec 02 20:47:33 2024,580,-26.507,-26.507,-2.970,-2.970,-1.585,22.613,9.046,2.771,15.706,10.890,-6.172,8.130,6.554,12.991,5.034,4.259
Mon Dec 02 20:47:33 2024,585,-26.500,-26.500,-2.775,-2.775,-1.592,22.594,9.066,2.665,15.664,10.801,-6.174,8.240,6.561,13.003,5.053,4.281
Mon Dec 02 20:47:33 2024,590,-26.488,-26.488,-2.585,-2.585,-1.525,22.575,9.114,2.645,15.627,10.824,-6.183,8.233,6.586,13.040,5.049,4.335
Mon Dec 02 20:47:33 2024,595,-26.480,-26.480,-2.393,-2.393,-1.438,22.559,9.169,2.646,15.593,10.874,-6.193,8.197,6.615,13.085,5.039,4.397
Mon Dec 02 20:47:33 2024,600,-26.452,-26.452,-2.287,-2.287,-1.387,22.555,9.175,2.653,15.580,10.892,-6.156,8.256,6.646,13.135,5.055,4.467
Mon Dec 02 20:47:33 2024,605,-26.412,-26.412,-2.243,-2.243,-1.363,22.558,9.145,2.666,15.582,10.888,-6.087,8.379,6.678,13.187,5.086,4.541
Mon Dec 02 20:47:33 2024,610,-26.367,-26.367,-2.202,-2.202,-1.386,22.568,9.108,2.646,15.597,10.876,-6.058,8.468,6.707,13.218,5.119,4.616
Mon Dec 02 20:47:33 2024,615,-26.294,-26.294,-2.154,-2.154,-1.532,22.602,9.039,2.537,15.647,10.842,-6.121,8.505,6.741,13.211,5.172,4.722
Mon Dec 02 20:47:33 2024,620,-26.216,-26.216,-2.103,-2.103,-1.696,22.648,8.962,2.417,15.697,10.805,-6.193,8.538,6.777,13.200,5.229,4.836
Mon Dec 02 20:47:33 2024,625,-26.112,-26.112,-2.081,-2.081,-1.690,22.697,8.976,2.440,15.651,10.795,-6.213,8.471,6.776,13.199,5.193,4.838
Mon Dec 02 20:47:33 2024,630,-26.006,-26.006,-2.063,-2.063,-1.665,22.747,9.000,2.479,15.594,10.789,-6.227,8.395,6.770,13.198,5.146,4.828
Mon Dec 02 20:47:33 2024,635,-25.876,-25.876,-2.070,-2.070,-1.683,22.830,9.004,2.475,15.606,10.822,-6.249,8.358,6.785,13.184,5.152,4.850
Mon Dec 02 20:47:33 2024,640,-25.734,-25.734,-2.103,-2.103,-1.741,22.939,8.989,2.430,15.687,10.890,-6.278,8.363,6.820,13.155,5.210,4.905
Mon Dec 02 20:47:33 2024,645,-25.617,-25.617,-2.100,-2.100,-1.804,23.029,8.973,2.385,15.748,10.935,-6.302,8.382,6.852,13.134,5.255,4.953
Mon Dec 02 20:47:33 2024,650,-25.560,-25.560,-1.988,-1.988,-1.892,23.069,8.954,2.339,15.756,10.909,-6.313,8.445,6.884,13.135,5.265,4.989
Mon Dec 02 20:47:33 2024,655,-25.506,-25.506,-1.860,-1.860,-1.986,23.108,8.934,2.290,15.761,10.876,-6.323,8.514,6.917,13.138,5.272,5.027
Mon Dec 02 20:47:33 2024,660,-25.474,-25.474,-1.730,-1.730,-1.947,23.114,8.942,2.315,15.760,10.902,-6.337,8.490,6.925,13.141,5.242,5.031
Mon Dec 02 20:47:33 2024,665,-25.444,-25.444,-1.586,-1.586,-1.881,23.115,8.957,2.356,15.759,10.940,-6.352,8.447,6.929,13.145,5.202,5.030
Mon Dec 02 20:47:33 2024,670,-25.383,-25.383,-1.530,-1.530,-1.836,23.117,8.956,2.393,15.775,10.986,-6.360,8.445,6.939,13.151,5.179,5.028
Mon Dec 02 20:47:33 2024,675,-25.279,-25.279,-1.572,-1.572,-1.813,23.118,8.936,2.431,15.812,11.045,-6.360,8.492,6.959,13.161,5.173,5.025
Mon Dec 02 20:47:33 2024,680,-25.202,-25.202,-1.596,-1.596,-1.791,23.110,8.928,2.453,15.841,11.116,-6.342,8.536,7.002,13.186,5.148,5.029
Mon Dec 02 20:47:33 2024,685,-25.158,-25.158,-1.596,-1.596,-1.769,23.092,8.939,2.454,15.862,11.210,-6.303,8.583,7.080,13.236,5.096,5.044
Mon Dec 02 20:47:33 2024,690,-25.124,-25.124,-1.592,-1.592,-1.750,23.073,8.952,2.451,15.878,11.298,-6.262,8.626,7.158,13.285,5.044,5.059
Mon Dec 02 20:47:33 2024,695,-25.059,-25.059,-1.613,-1.613,-1.716,23.078,8.959,2.447,15.927,11.339,-6.241,8.692,7.192,13.294,5.046,5.060
Mon Dec 02 20:47:33 2024,700,-24.985,-24.985,-1.642,-1.642,-1.676,23.090,8.964,2.443,15.986,11.364,-6.227,8.767,7.210,13.291,5.067,5.057
Mon Dec 02 20:47:33 2024,705,-24.904,-24.904,-1.660,-1.660,-1.624,23.096,8.972,2.465,16.007,11.384,-6.206,8.823,7.220,13.288,5.074,5.047
Mon Dec 02 20:47:33 2024,710,-24.717,-24.717,-1.673,-1.673,-1.494,23.100,8.989,2.562,15.979,11.415,-6.149,8.901,7.224,13.277,5.059,5.013
Mon Dec 02 20:47:33 2024,715,-24.577,-24.577,-1.684,-1.684,-1.395,23.108,9.003,2.634,15.959,11.439,-6.106,8.962,7.227,13.268,5.050,4.987
Mon Dec 02 20:47:33 2024,720,-24.437,-24.437,-1.631,-1.631,-1.303,23.181,9.068,2.687,15.950,11.504,-6.050,9.133,7.305,13.317,5.057,5.051
Mon Dec 02 20:47:33 2024,725,-24.311,-24.311,-1.589,-1.589,-1.221,23.247,9.122,2.736,15.940,11.560,-6.000,9.277,7.370,13.357,5.061,5.103
Mon Dec 02 20:47:33 2024,730,-24.159,-24.159,-1.631,-1.631,-1.099,23.300,9.180,2.797,15.926,11.618,-5.972,9.313,7.375,13.369,5.032,5.073
Mon Dec 02 20:47:33 2024,735,-24.020,-24.020,-1.692,-1.692,-0.980,23.348,9.232,2.854,15.910,11.671,-5.954,9.312,7.363,13.370,4.998,5.022
Mon Dec 02 20:47:33 2024,740,-23.846,-23.846,-1.799,-1.799,-0.763,23.472,9.349,2.938,15.874,11.768,-5.906,9.349,7.387,13.388,4.976,5.010
Mon Dec 02 20:47:33 2024,745,-23.698,-23.698,-1.910,-1.910,-0.532,23.636,9.485,3.016,15.832,11.873,-5.849,9.406,7.435,13.413,4.974,5.035
Mon Dec 02 20:47:33 2024,750,-23.573,-23.573,-1.971,-1.971,-0.219,23.903,9.684,3.098,15.762,11.946,-5.794,9.464,7.448,13.419,4.966,5.025
Mon Dec 02 20:47:33 2024,755,-23.511,-23.511,-1.930,-1.930,0.206,24.295,9.961,3.174,15.656,11.949,-5.754,9.512,7.389,13.391,4.947,4.949
Mon Dec 02 20:47:33 2024,760,-23.472,-23.472,-1.856,-1.856,0.648,24.758,10.260,3.246,15.541,11.929,-5.719,9.556,7.309,13.350,4.926,4.854
Mon Dec 02 20:47:33 2024,765,-23.497,-23.497,-1.767,-1.767,1.186,25.440,10.690,3.303,15.461,11.923,-5.675,9.641,7.215,13.401,4.877,4.840
Mon Dec 02 20:47:33 2024,770,-23.538,-23.538,-1.664,-1.664,1.825,26.300,11.217,3.365,15.375,11.920,-5.622,9.748,7.105,13.477,4.815,4.840
Mon Dec 02 20:47:33 2024,775,-23.565,-23.565,-1.536,-1.536,2.546,27.293,11.880,3.449,15.248,11.964,-5.599,9.813,7.021,13.501,4.778,4.847
Mon Dec 02 20:47:33 2024,780,-23.569,-23.569,-1.391,-1.391,3.288,28.326,12.651,3.554,15.080,12.070,-5.622,9.812,6.985,13.444,4.778,4.866
Mon Dec 02 20:47:33 2024,785,-23.588,-23.588,-1.245,-1.245,4.095,29.538,13.650,3.664,14.899,12.161,-5.685,9.769,6.922,13.353,4.783,4.867
Mon Dec 02 20:47:33 2024,790,-23.617,-23.617,-1.111,-1.111,4.874,30.765,14.724,3.768,14.725,12.234,-5.772,9.699,6.845,13.245,4.790,4.855
Mon Dec 02 20:47:33 2024,795,-23.652,-23.652,-0.991,-0.991,5.631,31.983,15.841,3.866,14.559,12.294,-5.872,9.615,6.762,13.128,4.796,4.837
Mon Dec 02 20:47:33 2024,800,-23.681,-23.681,-0.882,-0.882,6.222,33.154,17.369,4.072,14.372,12.275,-5.955,9.518,6.657,13.010,4.766,4.788
Mon Dec 02 20:47:33 2024,805,-23.715,-23.715,-0.770,-0.770,6.831,34.426,19.191,4.326,14.158,12.234,-6.039,9.410,6.540,12.881,4.719,4.726
Mon Dec 02 20:47:33 2024,810,-23.788,-23.788,-0.646,-0.646,7.453,36.080,21.764,4.680,13.860,12.140,-6.165,9.311,6.409,12.676,4.710,4.603
Mon Dec 02 20:47:33 2024,815,-23.896,-23.896,-0.522,-0.522,7.977,37.908,24.841,5.091,13.509,11.998,-6.318,9.240,6.287,12.415,4.750,4.427
Mon Dec 02 20:47:33 2024,820,-24.009,-24.009,-0.418,-0.418,8.406,39.766,28.069,5.469,13.215,11.875,-6.466,9.175,6.185,12.169,4.789,4.250
Mon Dec 02 20:47:33 2024,825,-24.164,-24.164,-0.360,-0.360,8.345,42.346,32.852,5.802,13.146,11.793,-6.635,9.120,6.150,11.944,4.870,4.016
Mon Dec 02 20:47:33 2024,830,-24.302,-24.302,-0.341,-0.341,8.253,44.558,37.067,6.066,13.086,11.728,-6.773,9.076,6.133,11.764,4.939,3.818
Mon Dec 02 20:47:33 2024,835,-24.302,-24.302,-0.581,-0.581,8.177,47.411,42.280,6.325,12.899,11.627,-6.573,9.403,6.310,11.703,4.947,3.714
Mon Dec 02 20:47:33 2024,840,-24.228,-24.228,-1.012,-1.012,8.088,50.940,48.933,6.603,12.636,11.508,-6.169,9.967,6.616,11.706,4.920,3.651
Mon Dec 02 20:47:33 2024,845,-24.143,-24.143,-1.396,-1.396,8.142,53.659,53.679,6.590,12.624,11.518,-6.031,10.327,6.826,11.703,4.943,3.636
Mon Dec 02 20:47:33 2024,850,-23.986,-23.986,-1.927,-1.927,8.438,56.820,58.604,6.190,12.930,11.696,-6.162,10.608,7.016,11.688,5.042,3.678
Mon Dec 02 20:47:33 2024,855,-23.795,-23.795,-2.477,-2.477,8.839,59.766,63.855,5.840,13.140,11.985,-6.300,10.778,7.276,11.692,5.094,3.807
Mon Dec 02 20:47:33 2024,860,-23.559,-23.559,-2.773,-2.773,9.301,59.736,66.470,5.898,12.868,12.589,-6.373,10.457,7.692,11.785,4.911,4.244
Mon Dec 02 20:47:33 2024,865,-23.258,-23.258,-3.151,-3.151,9.916,59.714,69.906,5.977,12.496,13.363,-6.461,10.041,8.232,11.907,4.674,4.832
Mon Dec 02 20:47:33 2024,870,-22.957,-22.957,-3.614,-3.614,10.602,59.268,72.615,6.102,12.124,14.120,-6.469,9.708,8.702,11.921,4.517,5.275
Mon Dec 02 20:47:33 2024,875,-22.722,-22.722,-4.003,-4.003,11.163,58.782,74.465,6.215,11.833,14.706,-6.449,9.473,9.047,11.895,4.419,5.570
Mon Dec 02 20:47:33 2024,880,-22.434,-22.434,-4.390,-4.390,11.607,58.494,76.658,6.332,11.538,15.352,-6.442,9.217,9.416,11.821,4.345,5.876
Mon Dec 02 20:47:33 2024,885,-22.234,-22.234,-4.558,-4.558,11.646,58.623,78.094,6.390,11.402,15.722,-6.457,9.079,9.613,11.725,4.345,6.025
Mon Dec 02 20:47:33 2024,890,-21.997,-21.997,-4.763,-4.763,11.631,58.862,79.707,6.461,11.276,16.154,-6.461,8.948,9.850,11.641,4.342,6.199
Mon Dec 02 20:47:33 2024,895,-21.699,-21.699,-5.041,-5.041,11.321,59.560,81.315,6.551,11.288,16.660,-6.407,8.942,10.158,11.669,4.329,6.412
Mon Dec 02 20:47:33 2024,900,-21.403,-21.403,-5.319,-5.319,10.971,60.320,82.838,6.641,11.318,17.165,-6.346,8.954,10.470,11.714,4.316,6.624
Mon Dec 02 20:47:33 2024,905,-21.114,-21.114,-5.436,-5.436,10.603,61.762,84.709,6.784,11.416,17.672,-6.180,9.003,10.759,11.786,4.296,6.832
Mon Dec 02 20:47:33 2024,910,-20.884,-20.884,-5.455,-5.455,10.298,63.268,86.330,6.922,11.514,18.087,-5.999,9.057,10.983,11.855,4.277,7.000
Mon Dec 02 20:47:33 2024,915,-20.640,-20.640,-5.402,-5.402,9.974,65.099,88.056,7.071,11.618,18.445,-5.787,9.194,11.214,11.933,4.291,7.192
Mon Dec 02 20:47:33 2024,920,-20.430,-20.430,-5.235,-5.235,9.696,67.051,89.613,7.202,11.717,18.614,-5.572,9.448,11.404,12.008,4.358,7.380
Mon Dec 02 20:47:33 2024,925,-20.224,-20.224,-5.072,-5.072,9.456,69.001,91.049,7.329,11.797,18.788,-5.361,9.698,11.593,12.079,4.424,7.568
Mon Dec 02 20:47:33 2024,930,-20.104,-20.104,-5.122,-5.122,9.026,70.714,91.786,7.535,11.847,19.332,-5.141,10.290,11.876,12.201,4.409,7.638
Mon Dec 02 20:47:33 2024,935,-20.004,-20.004,-5.162,-5.162,8.741,72.176,92.340,7.708,11.856,19.801,-4.958,10.786,12.118,12.302,4.395,7.698
Mon Dec 02 20:47:33 2024,940,-19.910,-19.910,-5.255,-5.255,8.744,73.520,92.678,7.935,11.807,20.277,-4.759,11.347,12.390,12.376,4.452,7.839
Mon Dec 02 20:47:33 2024,945,-19.804,-19.804,-5.402,-5.402,8.943,75.054,92.942,8.243,11.662,20.860,-4.513,12.060,12.742,12.447,4.563,8.061
Mon Dec 02 20:47:33 2024,950,-19.724,-19.724,-5.452,-5.452,9.137,76.283,93.058,8.503,11.476,21.380,-4.329,12.620,13.029,12.499,4.616,8.209
Mon Dec 02 20:47:33 2024,955,-19.649,-19.649,-5.368,-5.368,9.367,77.558,93.017,8.806,11.192,22.020,-4.162,13.179,13.335,12.546,4.602,8.302
Mon Dec 02 20:47:33 2024,960,-19.574,-19.574,-5.284,-5.284,9.650,78.843,92.952,9.109,10.836,22.681,-3.996,13.735,13.647,12.594,4.588,8.396
Mon Dec 02 20:47:33 2024,965,-19.639,-19.639,-5.002,-5.002,10.031,80.416,92.695,9.418,10.395,23.503,-3.760,14.461,14.118,12.655,4.522,8.459
Mon Dec 02 20:47:33 2024,970,-19.695,-19.695,-4.797,-4.797,10.350,81.500,92.487,9.629,29.946,24.084,-3.595,14.956,14.455,12.698,4.473,8.501
Mon Dec 02 20:47:33 2024,975,-19.777,-19.777,-4.414,-4.414,10.964,83.201,92.046,9.899,30.500,24.782,-3.471,15.527,14.799,12.705,4.581,8.587
Mon Dec 02 20:47:33 2024,980,-19.841,-19.841,-4.102,-4.102,11.513,84.488,91.659,10.081,30.956,25.242,-3.428,15.863,14.993,12.689,4.729,8.660
Mon Dec 02 20:47:33 2024,985,-19.924,-19.924,-3.723,-3.723,12.393,86.252,91.119,10.388,31.703,26.004,-3.378,16.237,15.250,12.670,4.905,8.699
Mon Dec 02 20:47:33 2024,990,-19.968,-19.968,-3.532,-3.532,13.048,87.413,90.772,10.667,32.301,26.665,-3.353,16.414,15.401,12.664,4.987,8.645
Mon Dec 02 20:47:33 2024,995,-20.019,-20.019,-3.320,-3.320,13.838,88.714,90.364,10.984,33.006,27.433,-3.326,16.571,15.574,12.656,5.079,8.583
Mon Dec 02 20:47:34 2024,0,-20.048,-20.048,-3.021,-3.021,14.940,90.370,89.994,11.312,33.959,28.295,-3.325,23.338,15.760,12.658,5.207,8.491
Mon Dec 02 20:47:34 2024,5,-20.067,-20.067,-2.801,-2.801,15.806,91.580,89.725,11.544,34.697,28.928,-3.330,23.331,15.896,12.661,5.301,8.422
Mon Dec 02 20:47:34 2024,10,-20.079,-20.079,-2.608,-2.608,16.753,92.818,89.615,11.738,35.411,29.634,-3.329,23.367,16.122,12.648,5.429,8.406
Mon Dec 02 20:47:34 2024,15,-20.086,-20.086,-2.472,-2.472,17.547,93.797,89.605,11.870,35.956,30.226,-3.327,23.429,16.346,12.629,5.546,8.420
Mon Dec 02 20:47:34 2024,20,-20.104,-20.104,-2.287,-2.287,18.497,94.902,89.545,12.058,36.709,31.120,-3.306,23.540,16.634,12.651,5.652,8.454
Mon Dec 02 20:47:34 2024,25,-20.135,-20.135,-2.104,-2.104,19.186,95.664,89.432,12.258,37.447,32.119,-3.258,23.672,16.887,12.743,5.678,8.507
Mon Dec 02 20:47:34 2024,30,-20.172,-20.172,-1.896,-1.896,20.015,96.538,89.294,12.492,38.328,33.287,-3.200,23.880,17.190,12.848,5.706,8.573
Mon Dec 02 20:47:34 2024,35,-20.233,-20.233,-1.722,-1.722,20.702,97.229,89.158,12.754,39.239,34.272,-3.063,24.117,17.619,12.927,5.764,8.680
Mon Dec 02 20:47:34 2024,40,-20.289,-20.289,-1.574,-1.574,21.310,97.816,89.037,12.988,40.054,35.124,-2.936,24.378,18.014,12.996,5.813,8.779
Mon Dec 02 20:47:34 2024,45,-20.381,-20.381,-1.381,-1.381,22.088,98.542,88.793,13.240,41.104,35.892,-2.837,24.883,18.458,12.978,5.954,8.807
Mon Dec 02 20:47:34 2024,50,-20.458,-20.458,-1.235,-1.235,22.692,99.084,88.568,13.408,41.915,36.336,-2.792,25.355,18.773,12.920,6.095,8.785
Mon Dec 02 20:47:34 2024,55,-20.621,-20.621,-1.007,-1.007,23.525,99.808,88.409,13.602,42.913,37.116,-2.774,26.007,19.205,12.880,6.220,8.799
Mon Dec 02 20:47:34 2024,60,-20.890,-20.890,-0.764,-0.764,24.426,100.566,88.479,13.756,43.803,38.246,-2.826,26.679,19.664,12.900,6.246,8.886
Mon Dec 02 20:47:34 2024,65,-21.113,-21.113,-0.679,0.679,25.200,101.189,88.533,13.884,44.549,39.179,-2.869,27.242,20.043,12.918,6.266,8.960
Mon Dec 02 20:47:34 2024,70,-21.382,-21.382,-0.681,0.681,25.907,101.747,88.583,14.054,45.442,40.274,-2.865,27.849,20.775,13.034,6.219,9.196
Mon Dec 02 20:47:34 2024,75,-21.589,-21.589,-0.731,0.731,26.428,102.148,88.619,14.184,46.131,41.114,-2.857,28.311,21.379,13.135,6.171,9.397
Mon Dec 02 20:47:34 2024,80,-21.902,-21.902,-0.802,0.802,26.954,102.542,88.565,14.201,47.181,42.044,-2.942,29.089,22.049,13.179,6.175,9.516
Mon Dec 02 20:47:34 2024,85,-22.256,-22.256,-0.879,0.879,27.462,102.911,88.465,14.152,48.395,42.973,-3.075,30.001,22.725,13.190,6.208,9.585
Mon Dec 02 20:47:34 2024,90,-22.575,-22.575,-0.960,0.960,-27.936,103.243,88.376,14.104,49.515,43.810,-3.200,30.832,23.346,13.200,6.236,9.649
Mon Dec 02 20:47:34 2024,95,-22.829,-22.829,-1.023,1.023,-28.048,103.319,88.053,14.167,50.386,44.294,-3.173,31.694,23.870,13.387,6.129,9.532
Mon Dec 02 20:47:34 2024,100,-23.049,-23.049,-1.089,1.089,-28.199,103.419,87.816,14.201,51.160,44.750,-3.178,32.418,24.329,13.517,6.055,9.461
Mon Dec 02 20:47:34 2024,105,-23.248,-23.248,-1.052,1.052,-27.928,103.247,87.657,14.220,51.618,44.987,-3.316,32.901,24.579,13.697,5.929,9.332
Mon Dec 02 20:47:34 2024,110,-23.397,-23.397,1.006,1.006,-27.650,103.068,87.545,14.233,51.915,45.132,-3.445,33.229,24.736,13.843,5.822,9.223
Mon Dec 02 20:47:34 2024,115,-23.531,-23.531,0.965,0.965,-27.402,102.906,87.441,14.243,52.182,45.264,-3.562,33.525,24.880,13.974,5.724,9.127
Mon Dec 02 20:47:34 2024,120,-23.654,-23.654,1.058,1.058,-27.371,102.889,87.265,14.335,52.548,45.239,-3.750,34.062,24.987,14.137,5.608,9.031
Mon Dec 02 20:47:34 2024,125,-23.769,-23.769,1.103,1.103,-27.340,102.872,87.152,14.373,52.875,45.322,-3.879,34.432,25.118,14.258,5.522,8.955
Mon Dec 02 20:47:34 2024,130,-23.871,-23.871,1.146,1.146,-27.478,102.969,87.122,14.356,53.242,45.556,-3.938,34.652,25.296,14.323,5.488,8.915
Mon Dec 02 20:47:34 2024,135,-23.955,-23.955,1.181,1.181,-27.593,103.048,87.097,14.342,53.544,45.750,-3.987,34.832,25.443,14.377,5.458,8.882
Mon Dec 02 20:47:34 2024,140,-24.006,-24.006,1.225,1.225,-27.547,103.006,87.128,14.394,53.939,46.056,-4.004,34.994,25.646,14.424,5.428,8.848
Mon Dec 02 20:47:34 2024,145,-24.054,-24.054,1.276,1.276,-27.464,102.934,87.172,14.465,54.390,46.415,-4.016,35.168,25.882,14.474,5.394,8.810
Mon Dec 02 20:47:34 2024,150,-24.090,-24.090,1.312,1.312,-27.405,102.882,87.203,14.518,54.720,46.679,-4.025,35.295,26.056,14.512,5.369,8.783
Mon Dec 02 20:47:34 2024,155,-24.116,-24.116,1.455,1.455,-27.576,102.980,87.296,14.630,55.072,46.988,-4.022,35.570,26.348,14.499,5.392,8.906
Mon Dec 02 20:47:34 2024,160,-24.140,-24.140,1.585,1.585,-27.734,103.070,87.380,14.732,55.392,47.269,-4.019,35.821,26.615,14.488,5.413,9.017
Mon Dec 02 20:47:34 2024,165,-24.055,-24.055,1.597,1.597,-27.555,102.933,87.461,14.736,55.592,47.469,-4.071,35.926,26.770,14.400,5.499,9.059
Mon Dec 02 20:47:34 2024,170,-23.987,-23.987,1.617,1.617,-27.413,102.822,87.535,14.746,55.784,47.660,-4.114,36.031,26.919,14.326,5.572,9.100
Mon Dec 02 20:47:34 2024,175,-23.937,-23.937,1.667,1.667,-27.401,102.803,87.542,14.834,55.777,47.679,-4.067,36.201,27.010,14.321,5.560,9.145
Mon Dec 02 20:47:34 2024,180,-23.901,-23.901,1.717,1.717,-27.425,102.811,87.531,14.930,55.718,47.651,-4.006,36.363,27.070,14.335,5.528,9.183
Mon Dec 02 20:47:34 2024,185,-23.875,-23.875,1.750,1.750,-27.376,102.769,87.550,14.981,55.607,47.644,-3.965,36.515,27.139,14.371,5.473,9.231
Mon Dec 02 20:47:34 2024,190,-23.864,-23.864,1.757,1.757,-27.213,102.650,87.617,14.968,55.413,47.668,-3.957,36.653,27.224,14.443,5.383,9.295
Mon Dec 02 20:47:34 2024,195,-23.854,-23.854,1.764,1.764,-27.085,102.555,87.670,14.958,55.257,47.686,-3.948,36.768,27.292,14.499,5.311,9.347
Mon Dec 02 20:47:34 2024,200,-23.784,-23.784,1.720,1.720,-26.973,102.465,87.769,14.862,54.827,47.554,-3.824,36.706,27.441,14.546,5.243,9.474
Mon Dec 02 20:47:34 2024,205,-23.721,-23.721,1.682,1.682,-26.862,102.375,87.862,14.777,54.435,47.442,-3.714,36.666,27.578,14.592,5.174,9.590
Mon Dec 02 20:47:34 2024,210,-23.629,-23.629,1.710,1.710,-26.526,102.143,88.039,14.722,53.820,47.276,-3.620,36.482,27.689,14.702,5.013,9.778
Mon Dec 02 20:47:34 2024,215,-23.546,-23.546,1.749,1.749,-26.205,101.920,88.203,14.684,53.269,47.128,-3.548,36.299,27.772,14.806,4.858,9.948
Mon Dec 02 20:47:34 2024,220,-23.478,-23.478,1.747,1.747,-25.800,101.608,88.374,14.676,52.722,47.012,-3.498,36.054,27.856,14.913,4.677,10.099
Mon Dec 02 20:47:34 2024,225,-23.455,-23.455,-1.642,1.642,-25.223,101.109,88.541,14.744,52.248,46.991,-3.512,35.685,27.929,15.016,4.457,10.185
Mon Dec 02 20:47:34 2024,230,-23.432,-23.432,-1.567,1.567,-24.789,100.718,88.674,14.791,51.863,46.968,-3.521,35.398,27.989,15.096,4.276,10.259
Mon Dec 02 20:47:34 2024,235,-23.357,-23.357,-1.504,1.504,-24.130,100.080,88.750,14.569,51.122,46.591,-3.436,35.268,27.956,15.278,4.014,10.407
Mon Dec 02 20:47:34 2024,240,-23.281,-23.281,-1.441,1.441,-23.497,99.422,88.834,14.360,50.375,46.224,-3.355,35.116,27.932,15.457,3.742,10.557
Mon Dec 02 20:47:34 2024,245,-23.179,-23.179,-1.365,1.365,-22.664,98.576,88.970,14.063,49.455,45.881,-3.322,34.795,27.904,15.574,3.549,10.714
Mon Dec 02 20:47:34 2024,250,-22.976,-22.976,-1.219,1.219,-21.012,96.933,89.265,13.452,47.714,45.364,-3.343,34.015,27.852,15.663,3.370,10.975
Mon Dec 02 20:47:34 2024,255,-22.818,-22.818,-1.100,1.100,-19.574,95.310,89.512,12.863,46.176,44.703,-3.355,33.302,27.761,15.745,3.205,11.194
Mon Dec 02 20:47:34 2024,260,-22.732,-22.732,-1.001,1.001,-18.034,93.452,89.730,12.169,44.790,43.708,-3.385,32.515,27.564,15.762,3.139,11.337
Mon Dec 02 20:47:34 2024,265,-22.636,-22.636,-0.918,0.918,-16.682,91.621,89.917,11.504,43.406,42.755,-3.415,31.748,27.376,15.788,3.061,11.489
Mon Dec 02 20:47:34 2024,270,-22.643,-22.643,-0.887,0.887,-14.850,89.412,90.435,11.069,42.178,41.829,-3.379,31.048,27.087,15.770,2.895,11.655
Mon Dec 02 20:47:34 2024,275,-22.651,-22.651,-0.884,0.884,-13.422,87.468,90.857,10.699,41.129,41.039,-3.350,30.446,26.838,15.750,2.742,11.800
Mon Dec 02 20:47:34 2024,280,-22.575,-22.575,-0.894,0.894,-12.493,85.944,91.149,10.218,39.970,39.915,-3.354,30.006,26.548,15.636,2.726,11.922
Mon Dec 02 20:47:34 2024,285,-22.425,-22.425,-0.904,0.904,-11.666,84.379,91.421,9.554,38.469,38.291,-3.380,29.583,26.166,15.431,2.805,12.055
Mon Dec 02 20:47:34 2024,290,-22.324,-22.324,-0.914,0.914,-11.008,83.077,91.632,9.060,37.320,37.082,-3.395,29.230,25.876,15.284,2.840,12.164
Mon Dec 02 20:47:34 2024,295,-22.145,-22.145,-0.884,0.884,-10.378,81.759,91.533,8.726,35.822,35.541,-3.531,29.003,25.584,15.097,2.979,12.105
Mon Dec 02 20:47:34 2024,300,-21.993,-21.993,-0.910,0.910,-9.806,80.487,91.489,8.380,34.488,34.165,-3.633,28.762,25.307,14.926,3.086,12.087
Mon Dec 02 20:47:34 2024,305,-21.861,-21.861,-0.891,0.891,-9.370,79.565,90.985,7.938,33.277,32.752,-3.896,28.266,24.673,14.627,3.285,11.953
Mon Dec 02 20:47:34 2024,310,-21.728,-21.728,-0.877,0.877,-8.934,78.598,90.496,7.503,32.055,31.356,-4.148,27.818,24.068,14.335,3.474,11.827
Mon Dec 02 20:47:34 2024,315,-21.546,-21.546,-0.901,-0.901,-8.412,77.343,89.305,7.072,30.871,29.397,-4.543,27.320,22.997,13.905,3.648,11.380
Mon Dec 02 20:47:34 2024,320,-21.391,-21.391,-0.943,-0.943,-8.006,76.307,88.146,6.749,30.003,27.773,-4.892,26.994,22.041,13.533,3.761,10.935
Mon Dec 02 20:47:34 2024,325,-21.239,-21.239,-0.994,-0.994,-7.629,75.300,86.989,6.432,29.172,26.244,-5.234,26.760,21.121,13.169,3.857,10.501
Mon Dec 02 20:47:34 2024,330,-21.063,-21.063,-1.019,-1.019,-7.391,74.628,83.270,6.261,29.061,23.904,-5.443,26.752,19.676,13.249,3.925,9.726
Mon Dec 02 20:47:34 2024,335,-20.930,-20.930,-1.050,-1.050,-7.188,74.050,80.727,6.102,28.846,22.268,-5.633,26.736,18.646,13.232,3.982,9.176
Mon Dec 02 20:47:34 2024,340,-20.947,-20.947,-1.062,-1.062,-6.890,73.406,76.149,6.073,29.042,20.317,-5.550,26.630,17.295,13.102,4.238,8.084
Mon Dec 02 20:47:34 2024,345,-20.976,-20.976,-1.074,-1.074,-0.053,72.843,71.815,6.052,29.242,18.551,-5.466,26.534,16.053,12.982,4.476,7.065
Mon Dec 02 20:47:34 2024,350,-20.995,-20.995,-0.967,-0.967,-5.908,70.236,66.235,6.247,29.403,17.507,-5.285,26.114,15.076,12.759,4.537,6.342
Mon Dec 02 20:47:34 2024,355,-21.010,-21.010,-0.817,-0.817,-5.043,66.807,60.160,6.537,29.551,16.793,-5.067,25.593,14.234,12.485,4.508,5.761
Mon Dec 02 20:47:34 2024,360,-21.052,-21.052,-0.686,0.686,-4.290,63.614,55.097,6.690,29.517,16.255,-5.055,25.348,13.550,12.303,4.538,5.451
Mon Dec 02 20:47:34 2024,365,-21.135,-21.135,-0.654,0.654,-1.299,59.742,49.793,6.710,29.237,15.791,-5.302,25.411,12.880,12.194,4.672,5.414
Mon Dec 02 20:47:34 2024,370,-21.202,-21.202,-0.755,0.755,2.879,56.730,45.850,6.727,29.022,15.425,-5.498,25.523,12.360,12.106,4.780,5.390
Mon Dec 02 20:47:34 2024,375,-21.118,-21.118,-0.947,0.947,2.494,53.453,41.248,6.834,28.734,15.038,-5.603,25.608,11.758,11.984,4.894,5.198
Mon Dec 02 20:47:34 2024,380,-21.046,-21.046,-1.108,1.108,2.354,50.875,37.709,6.926,28.523,14.729,-5.681,25.736,11.281,11.884,4.986,5.045
Mon Dec 02 20:47:34 2024,385,-20.979,-20.979,-1.269,1.269,2.327,48.740,34.535,7.014,28.145,14.282,-5.522,14.280,10.773,11.813,5.038,4.923
Mon Dec 02 20:47:34 2024,390,-20.917,-20.917,-1.422,1.422,2.351,46.846,31.618,7.096,27.798,13.806,-5.294,14.284,10.282,11.756,5.076,4.825
Mon Dec 02 20:47:34 2024,395,-20.861,-20.861,-1.567,1.567,2.391,45.002,28.897,7.108,27.500,13.291,-5.003,14.348,9.835,11.722,5.150,4.764
Mon Dec 02 20:47:34 2024,400,-20.807,-20.807,-1.719,1.719,2.406,42.963,26.045,6.961,27.138,12.603,-4.526,14.712,9.410,11.741,5.316,4.757
Mon Dec 02 20:47:34 2024,405,-20.761,-20.761,-1.851,1.851,2.453,41.213,23.614,6.846,13.098,12.008,-4.125,14.990,9.045,11.752,5.453,4.758
Mon Dec 02 20:47:34 2024,410,-20.810,-20.810,-1.808,1.808,2.612,39.170,21.016,6.711,13.263,11.693,-3.649,15.206,8.536,11.765,5.573,4.545
Mon Dec 02 20:47:34 2024,415,-20.859,-20.859,-1.762,1.762,2.759,37.506,18.939,6.598,13.389,11.459,-3.261,15.337,8.116,11.776,5.667,4.365
Mon Dec 02 20:47:34 2024,420,-20.952,-20.952,-1.684,1.684,2.966,36.050,17.252,6.466,13.532,11.312,-2.853,15.528,7.838,11.724,5.770,4.202
Mon Dec 02 20:47:34 2024,425,-21.043,-21.043,-1.610,1.610,3.149,35.010,16.103,6.354,13.646,11.233,-2.529,15.694,7.677,11.657,5.855,4.081
Mon Dec 02 20:47:34 2024,430,-21.123,-21.123,-1.541,1.541,3.292,34.079,15.096,6.266,13.730,11.157,-2.221,15.832,7.517,11.572,5.943,3.954
Mon Dec 02 20:47:34 2024,435,-21.176,-21.176,-1.464,1.464,3.338,33.251,14.268,6.248,13.743,11.076,-1.899,15.954,7.320,11.409,6.064,3.772
Mon Dec 02 20:47:34 2024,440,-21.231,-21.231,-1.391,1.391,3.385,32.454,13.475,6.223,13.759,10.997,-1.589,16.048,7.130,11.255,6.180,3.602
Mon Dec 02 20:47:34 2024,445,-21.259,-21.259,-1.310,1.310,3.362,31.988,12.927,6.264,13.719,10.924,-1.229,16.069,6.996,11.183,6.306,3.494
Mon Dec 02 20:47:34 2024,450,-21.281,-21.281,-1.253,1.253,3.343,31.658,12.539,6.294,13.689,10.870,-0.968,16.059,6.899,11.132,6.398,3.418
Mon Dec 02 20:47:34 2024,455,-21.290,-21.290,-1.204,1.204,3.165,31.117,12.056,6.389,13.604,10.811,-0.678,16.100,6.769,11.067,6.504,3.294
Mon Dec 02 20:47:34 2024,460,-21.289,-21.289,-1.171,1.171,2.929,30.574,11.631,6.500,13.498,10.760,-0.437,16.160,6.650,11.009,6.596,3.173
Mon Dec 02 20:47:34 2024,465,-21.280,-21.280,-1.160,1.160,2.693,30.076,11.274,6.643,13.356,10.744,-0.225,16.219,6.581,10.965,6.668,3.072
Mon Dec 02 20:47:34 2024,470,-21.248,-21.248,-1.176,1.176,2.323,29.355,10.811,6.918,13.073,10.773,0.077,16.315,6.554,10.916,6.754,2.943
Mon Dec 02 20:47:34 2024,475,-21.223,-21.223,-1.192,1.192,2.033,28.800,10.460,7.136,12.838,10.798,0.293,16.376,6.537,10.880,6.819,2.847
Mon Dec 02 20:47:34 2024,480,-21.245,-21.245,-1.220,1.220,1.703,28.070,10.108,7.488,12.482,10.782,0.491,16.182,6.533,10.833,6.816,2.798
Mon Dec 02 20:47:34 2024,485,-21.263,-21.263,-1.242,1.242,1.457,27.530,9.855,7.754,12.215,10.768,0.634,16.022,6.530,10.797,6.811,2.766
Mon Dec 02 20:47:34 2024,490,-21.278,-21.278,-1.255,1.255,1.138,26.844,9.474,8.055,11.912,10.684,0.848,15.902,6.507,10.717,6.884,2.755
Mon Dec 02 20:47:34 2024,495,-21.290,-21.290,-1.259,1.259,0.845,26.222,9.102,8.311,11.652,10.578,1.060,15.825,6.479,10.629,6.987,2.758
Mon Dec 02 20:47:34 2024,500,-21.315,-21.315,-1.264,1.264,0.551,25.646,8.787,8.516,11.443,10.468,1.293,15.757,6.445,10.556,7.075,2.756
Mon Dec 02 20:47:34 2024,505,-21.372,-21.372,-1.271,1.271,0.173,24.989,8.480,8.685,11.266,10.323,1.634,15.684,6.388,10.491,7.161,2.744
Mon Dec 02 20:47:34 2024,510,-21.424,-21.424,-1.289,1.289,-0.146,24.451,8.231,8.831,11.116,10.199,1.920,15.590,6.340,10.436,7.226,2.734
Mon Dec 02 20:47:34 2024,515,-21.505,-21.505,-1.371,1.371,-0.458,23.827,7.981,9.016,10.935,10.052,2.253,15.393,6.283,10.368,7.263,2.729
Mon Dec 02 20:47:34 2024,520,-21.580,-21.580,-1.464,1.464,-0.727,23.312,7.772,9.181,10.773,9.921,2.543,15.194,6.232,10.308,7.286,2.727
Mon Dec 02 20:47:34 2024,525,-21.689,-21.689,-1.546,1.546,-1.002,22.827,7.572,9.339,10.615,9.770,2.844,15.029,6.134,10.280,7.231,2.671
Mon Dec 02 20:47:34 2024,530,-21.777,-21.777,-1.592,1.592,-1.184,22.542,7.447,9.438,10.513,9.660,3.046,14.937,6.042,10.279,7.152,2.608
Mon Dec 02 20:47:34 2024,535,-21.874,-21.874,-1.667,1.667,-1.400,22.244,7.290,9.545,10.400,9.556,3.245,14.840,5.965,10.273,7.094,2.570
Mon Dec 02 20:47:34 2024,540,-21.938,-21.938,-1.769,1.769,-1.578,22.043,7.146,9.618,10.322,9.518,3.342,14.792,5.952,10.262,7.106,2.594
Mon Dec 02 20:47:34 2024,545,-21.993,-21.993,-1.858,1.858,-1.730,21.954,7.022,9.680,10.253,9.486,3.423,14.750,5.941,10.253,7.116,2.616
Mon Dec 02 20:47:34 2024,550,-22.030,-22.030,-1.888,1.888,-1.816,21.935,6.996,9.760,10.160,9.512,3.502,14.758,5.946,10.257,7.107,2.601
Mon Dec 02 20:47:34 2024,555,-22.061,-22.061,-1.907,1.907,-1.887,21.945,6.985,9.837,10.067,9.547,3.574,14.770,5.954,10.261,7.096,2.583
Mon Dec 02 20:47:34 2024,560,-22.076,-22.076,-1.930,1.930,-1.977,21.998,6.958,9.886,10.004,9.555,3.640,14.781,5.945,10.259,7.059,2.562
Mon Dec 02 20:47:34 2024,565,-22.078,-22.078,-1.949,1.949,-2.062,22.068,6.926,9.910,9.970,9.546,3.691,14.790,5.927,10.253,7.013,2.542
Mon Dec 02 20:47:34 2024,570,-22.084,-22.084,-1.974,1.974,-2.179,22.179,6.874,9.917,9.948,9.545,3.732,14.814,5.928,10.256,6.965,2.527
Mon Dec 02 20:47:34 2024,575,-22.096,-22.096,-2.002,2.002,-2.336,22.347,6.788,9.878,9.970,9.564,3.734,14.871,5.981,10.285,6.934,2.529
Mon Dec 02 20:47:34 2024,580,-22.108,-22.108,-2.031,2.031,-2.503,18.406,6.698,9.836,9.992,9.584,3.738,14.931,6.037,10.316,6.899,2.531
Mon Dec 02 20:47:34 2024,585,-22.130,-22.130,-1.994,1.994,-2.668,17.246,6.677,9.738,10.062,9.661,3.688,14.900,5.981,10.328,6.781,2.502
Mon Dec 02 20:47:34 2024,590,-22.149,-22.149,-1.954,1.954,-2.812,17.057,6.667,9.648,10.126,9.733,3.640,14.862,5.922,10.337,6.668,2.478
Mon Dec 02 20:47:34 2024,595,-22.164,-22.164,-1.896,1.896,-2.990,16.821,6.652,9.481,29.747,9.876,3.573,14.852,5.945,10.414,6.547,2.476
Mon Dec 02 20:47:34 2024,600,-22.177,-22.177,-1.813,1.813,-3.221,16.514,6.633,9.208,29.538,10.113,3.480,14.879,6.072,10.584,6.408,2.507
Mon Dec 02 20:47:34 2024,605,-22.187,-22.187,-1.747,1.747,-3.404,16.265,6.619,8.994,29.381,10.298,3.407,14.895,6.167,10.715,6.296,2.535
Mon Dec 02 20:47:34 2024,610,-22.263,-22.263,-1.664,1.664,-3.672,15.928,6.646,8.595,29.094,10.528,3.215,14.986,6.219,10.890,6.078,2.559
Mon Dec 02 20:47:34 2024,615,-22.334,-22.334,-1.577,1.577,-3.943,15.577,6.669,8.195,28.826,10.767,3.029,15.066,6.283,11.074,5.858,2.589
Mon Dec 02 20:47:34 2024,620,-22.465,-22.465,1.587,1.587,-4.186,15.233,6.646,7.732,28.426,10.876,2.801,15.040,6.301,11.180,5.611,2.629
Mon Dec 02 20:47:34 2024,625,-22.616,-22.616,1.606,1.606,-4.455,14.845,6.617,7.207,27.975,10.989,2.544,14.984,6.320,11.297,5.328,2.678
Mon Dec 02 20:47:34 2024,630,-22.751,-22.751,1.620,1.620,-4.640,14.574,6.615,6.797,27.609,11.054,2.297,14.941,6.315,11.454,4.988,2.691
Mon Dec 02 20:47:34 2024,635,-22.899,-22.899,1.631,1.631,-4.770,14.378,6.642,6.425,27.246,11.077,2.001,14.921,6.284,11.695,4.502,2.661
Mon Dec 02 20:47:34 2024,640,-23.043,-23.043,1.643,1.643,-4.906,14.172,6.664,6.052,26.891,11.106,1.718,14.871,6.256,11.925,4.037,2.644
Mon Dec 02 20:47:34 2024,645,-23.143,-23.143,1.465,1.465,-5.010,13.992,6.651,5.648,26.509,11.168,1.094,14.924,6.293,12.227,3.582,2.659
Mon Dec 02 20:47:34 2024,650,-23.226,-23.226,1.344,1.344,-5.094,13.848,6.643,5.332,26.213,11.214,0.640,14.896,6.314,12.464,3.220,2.670
Mon Dec 02 20:47:34 2024,655,-23.260,-23.260,1.233,1.233,-5.196,13.704,6.634,5.099,26.032,11.321,0.212,14.941,6.401,12.802,2.880,2.713
Mon Dec 02 20:47:34 2024,660,-23.282,-23.282,1.140,1.140,-5.284,13.582,6.627,4.912,25.895,11.418,-0.164,14.959,6.482,13.102,2.594,2.756
Mon Dec 02 20:47:34 2024,665,-23.279,-23.279,1.020,1.020,-5.312,13.535,6.601,4.738,25.794,11.519,-0.593,14.997,6.552,13.477,2.220,2.813
Mon Dec 02 20:47:34 2024,670,-23.258,-23.258,0.934,0.934,-5.281,13.566,6.575,4.653,25.766,11.575,-0.882,15.031,6.581,13.737,1.951,2.857
Mon Dec 02 20:47:34 2024,675,-23.232,-23.232,0.828,0.828,-5.243,13.606,6.542,4.548,25.733,11.644,-1.239,15.049,6.615,14.060,1.618,2.914
Mon Dec 02 20:47:34 2024,680,-23.123,-23.123,0.686,0.686,-5.237,13.616,6.520,4.538,25.892,11.783,-1.599,15.136,6.692,14.339,1.307,2.989
Mon Dec 02 20:47:34 2024,685,-23.039,-23.039,0.568,0.568,-5.228,13.629,6.501,4.516,26.011,11.894,-1.911,15.170,6.752,14.589,1.032,3.056
Mon Dec 02 20:47:34 2024,690,-22.999,-22.999,0.528,0.528,-5.230,13.638,6.516,4.598,26.260,12.041,-2.162,15.140,6.833,14.784,0.786,3.101
Mon Dec 02 20:47:34 2024,695,-22.986,-22.986,0.552,0.552,-5.243,13.650,6.573,4.820,26.750,12.287,-2.465,15.042,6.971,15.010,0.459,3.143
Mon Dec 02 20:47:34 2024,700,-22.938,-22.938,0.524,0.524,-5.230,13.704,6.594,5.086,27.340,12.497,-2.681,15.080,7.056,15.186,0.182,3.152
Mon Dec 02 20:47:34 2024,705,-22.884,-22.884,0.337,0.488,-5.213,13.769,6.611,5.379,27.984,12.708,-2.884,15.146,7.135,15.356,-0.095,3.154
Mon Dec 02 20:47:34 2024,710,-22.833,-22.833,-0.454,0.454,-5.194,13.832,6.620,5.643,28.567,12.881,-3.037,15.217,7.193,15.489,-0.323,3.161
Mon Dec 02 20:47:34 2024,715,-22.855,-22.855,0.570,0.570,-5.172,13.874,6.711,5.960,29.240,13.180,-3.123,15.356,7.371,15.464,-0.595,3.141
Mon Dec 02 20:47:34 2024,720,-22.867,-22.867,0.654,0.654,-5.153,13.912,6.779,6.220,29.801,13.415,-3.204,15.456,7.510,15.460,-0.827,3.137
Mon Dec 02 20:47:34 2024,725,-22.923,-22.923,0.770,0.770,-5.144,13.998,6.862,6.458,30.419,13.653,-3.284,15.622,7.591,15.435,-1.034,3.128
Mon Dec 02 20:47:34 2024,730,-22.987,-22.987,0.880,0.880,-5.138,14.086,6.938,6.656,30.974,13.857,-3.352,15.772,7.642,15.405,-1.206,3.132
Mon Dec 02 20:47:34 2024,735,-23.046,-23.046,0.962,0.962,-5.123,14.154,6.994,6.826,31.462,14.070,-3.399,15.922,7.714,15.410,-1.362,3.157
Mon Dec 02 20:47:34 2024,740,-23.107,-23.107,1.025,1.025,-5.096,14.211,7.035,6.985,31.939,14.323,-3.431,16.093,7.818,15.453,-1.520,3.201
Mon Dec 02 20:47:34 2024,745,-23.164,-23.164,-1.080,1.080,-5.070,14.262,7.072,7.130,32.376,14.557,-3.459,16.224,7.915,15.496,-1.665,3.248
Mon Dec 02 20:47:34 2024,750,-23.252,-23.252,-1.137,1.137,-4.973,14.504,7.207,7.378,32.949,14.882,-3.463,16.354,8.029,15.575,-1.881,3.274
Mon Dec 02 20:47:34 2024,755,-23.330,-23.330,-1.190,1.190,-4.891,14.695,7.320,7.594,33.456,15.166,-3.467,16.440,8.130,15.643,-2.071,3.305
Mon Dec 02 20:47:34 2024,760,-23.418,-23.418,-1.342,1.342,-4.793,14.854,7.434,7.732,33.862,15.470,-3.489,23.520,8.252,15.760,-2.248,3.353
Mon Dec 02 20:47:34 2024,765,-23.489,-23.489,-1.481,1.481,-4.711,14.977,7.527,7.832,34.177,15.719,-3.508,23.515,8.354,15.863,-2.389,3.394
Mon Dec 02 20:47:34 2024,770,-23.561,-23.561,-1.624,1.624,-4.602,15.148,7.676,7.950,34.601,16.125,-3.512,23.519,8.515,15.966,-2.610,3.424
Mon Dec 02 20:47:34 2024,775,-23.615,-23.615,-1.745,1.745,-4.457,15.378,7.911,8.082,35.163,16.780,-3.477,23.568,8.766,16.047,-2.954,3.422
Mon Dec 02 20:47:34 2024,780,-23.661,-23.661,-1.845,1.845,-4.339,15.555,8.104,8.190,35.627,17.315,-3.451,23.685,8.970,16.116,-3.236,3.420
Mon Dec 02 20:47:34 2024,785,-23.636,-23.636,-1.852,1.852,-4.207,15.690,8.234,8.178,36.371,18.773,-3.340,23.901,9.293,16.227,-3.278,3.400
Mon Dec 02 20:47:34 2024,790,-23.621,-23.621,-1.867,1.867,-4.095,15.809,8.351,8.176,36.996,19.971,-3.258,24.177,9.554,16.317,-3.334,3.397
Mon Dec 02 20:47:34 2024,795,-23.602,-23.602,-1.849,1.849,-3.781,16.107,8.407,8.181,38.289,22.433,-3.092,24.806,9.768,16.471,-3.405,3.385
Mon Dec 02 20:47:34 2024,800,-23.586,-23.586,-1.802,1.802,-3.346,16.501,8.395,8.189,39.957,25.620,-2.893,25.689,9.879,16.649,-3.474,3.359
Mon Dec 02 20:47:34 2024,805,-23.574,-23.574,-1.769,1.769,-2.999,16.809,8.397,8.188,41.354,28.289,-2.742,26.492,9.973,16.793,-3.533,3.341
Mon Dec 02 20:47:34 2024,810,-23.676,-23.676,-1.844,1.844,-2.790,17.029,8.511,7.551,43.084,31.383,-2.356,27.497,10.054,17.069,-4.017,2.759
Mon Dec 02 20:47:34 2024,815,-23.747,-23.747,-1.893,1.893,-2.574,17.245,8.595,7.079,44.709,34.320,-2.063,28.431,10.119,17.295,-4.375,2.348
Mon Dec 02 20:47:34 2024,820,-23.913,-23.913,2.455,2.455,-2.374,17.510,9.194,6.942,43.613,34.622,-2.205,29.732,10.107,17.296,-4.840,2.365
Mon Dec 02 20:47:34 2024,825,-24.050,-24.050,2.924,2.924,-2.220,17.710,9.689,6.858,42.603,34.676,-2.338,30.770,10.092,17.296,-5.226,2.402
Mon Dec 02 20:47:34 2024,830,-24.096,-24.096,3.512,3.512,-2.134,22.151,10.054,7.816,40.980,34.059,-2.694,31.498,10.408,17.252,-5.427,2.498
Mon Dec 02 20:47:34 2024,835,-24.112,-24.112,4.118,4.118,-2.082,22.084,10.349,9.209,39.340,32.968,-3.130,32.082,10.847,17.191,-5.543,2.612
Mon Dec 02 20:47:34 2024,840,-24.233,-24.233,4.832,4.832,-2.222,22.275,10.771,11.603,38.938,31.863,-3.426,33.060,11.784,16.987,-5.459,2.640
Mon Dec 02 20:47:34 2024,845,-24.420,-24.420,5.419,5.419,-2.518,22.662,11.193,14.088,40.001,31.403,-3.458,34.146,13.008,16.696,-5.184,2.587
Mon Dec 02 20:47:34 2024,850,-24.598,-24.598,5.998,5.998,-2.784,23.075,11.637,16.403,41.481,31.291,-3.452,35.366,14.446,16.458,-4.891,2.535
Mon Dec 02 20:47:34 2024,855,-24.531,-24.531,5.922,5.922,-2.584,23.098,11.749,16.142,43.316,33.699,-3.207,36.070,15.320,16.822,-4.782,2.350
Mon Dec 02 20:47:34 2024,860,-24.461,-24.461,5.807,5.807,-2.380,23.138,11.818,15.723,45.100,35.847,-2.982,36.633,16.051,17.173,-4.715,2.194
Mon Dec 02 20:47:34 2024,865,-24.510,-24.510,5.852,5.852,-2.220,23.342,12.154,15.173,47.158,38.156,-3.161,37.330,17.214,17.528,-4.507,2.063
Mon Dec 02 20:47:34 2024,870,-24.594,-24.594,5.947,5.947,-2.123,23.574,12.511,14.711,48.784,39.837,-3.457,37.887,18.255,17.777,-4.308,2.100
Mon Dec 02 20:47:34 2024,875,-24.717,-24.717,6.062,6.062,-2.000,23.917,12.944,14.263,50.604,41.535,-3.760,38.493,19.460,18.066,-4.180,2.263
Mon Dec 02 20:47:34 2024,880,-24.860,-24.860,6.156,6.156,-1.882,24.273,13.273,14.164,51.608,42.399,-3.878,38.824,20.229,18.286,-4.287,2.356
Mon Dec 02 20:47:34 2024,885,-25.007,-25.007,6.253,6.253,-1.761,24.661,13.626,14.031,52.717,43.316,-4.016,39.193,21.089,18.513,-4.374,2.492
Mon Dec 02 20:47:34 2024,890,-25.106,-25.106,6.223,6.223,-1.601,24.967,13.991,13.682,53.802,44.522,-4.201,39.265,21.801,18.797,-4.415,2.636
Mon Dec 02 20:47:34 2024,895,-25.186,-25.186,6.196,6.196,-1.476,25.224,14.289,13.389,54.681,45.477,-4.349,39.320,22.382,19.022,-4.448,2.758
Mon Dec 02 20:47:34 2024,900,-25.285,-25.285,6.099,6.099,-1.294,25.442,14.590,13.157,55.771,46.607,-4.321,39.300,22.953,19.261,-4.492,2.860
Mon Dec 02 20:47:34 2024,905,-25.355,-25.355,6.011,6.011,-1.159,25.572,14.784,13.026,56.546,47.397,-4.241,39.261,23.319,19.420,-4.526,2.919
Mon Dec 02 20:47:34 2024,910,-25.448,-25.448,5.932,5.932,-1.012,25.730,15.010,12.946,57.472,48.350,-4.156,39.275,23.835,19.612,-4.597,3.002
Mon Dec 02 20:47:34 2024,915,-25.558,-25.558,5.930,5.930,-0.916,25.861,15.188,13.098,58.291,49.235,-4.109,39.452,24.506,19.799,-4.748,3.105
Mon Dec 02 20:47:34 2024,920,-25.658,-25.658,5.926,5.926,-0.827,25.985,15.355,13.230,59.048,50.046,-4.065,39.612,25.135,19.970,-4.884,3.203
Mon Dec 02 20:47:34 2024,925,-25.768,-25.768,5.905,5.905,-0.754,26.098,15.544,13.445,59.803,50.751,-4.015,40.092,26.032,19.956,-4.794,3.517
Mon Dec 02 20:47:34 2024,930,-25.860,-25.860,5.887,5.887,-0.695,26.193,15.701,13.622,60.426,51.335,-3.977,40.493,26.799,19.944,-4.720,3.783
Mon Dec 02 20:47:34 2024,935,-25.938,-25.938,5.901,5.901,-0.644,26.336,15.882,13.825,61.227,51.931,-4.046,41.268,27.763,19.951,-4.612,4.095
Mon Dec 02 20:47:34 2024,940,-25.992,-25.992,5.935,5.935,-0.607,26.487,16.049,14.009,62.007,52.429,-4.182,42.164,28.708,19.970,-4.502,4.386
Mon Dec 02 20:47:34 2024,945,-26.068,-26.068,6.030,6.030,-0.554,26.697,16.271,14.262,62.836,53.082,-4.374,43.202,29.751,19.989,-4.389,4.669
Mon Dec 02 20:47:34 2024,950,-26.154,-26.154,6.188,6.188,-0.491,26.942,16.520,14.558,63.563,53.824,-4.596,44.214,30.711,20.007,-4.296,4.880
Mon Dec 02 20:47:34 2024,955,-26.220,-26.220,6.307,6.307,-0.445,27.127,16.709,14.784,64.111,54.391,-4.769,44.984,31.461,20.020,-4.227,5.042
Mon Dec 02 20:47:34 2024,960,-26.310,-26.310,6.454,6.454,-0.468,27.394,17.072,14.938,64.877,55.323,-5.154,46.320,32.633,20.011,-3.992,5.331
Mon Dec 02 20:47:34 2024,965,-26.382,-26.382,6.571,6.571,-0.496,27.610,17.377,15.048,65.496,56.103,-5.488,47.435,33.620,20.001,-3.792,5.576
Mon Dec 02 20:47:34 2024,970,-26.481,-26.481,6.797,6.797,-0.523,27.803,17.563,15.130,65.927,56.638,-5.851,48.388,34.336,19.903,-3.660,5.676
Mon Dec 02 20:47:34 2024,975,-26.570,-26.570,7.025,7.025,-0.542,27.943,17.653,15.183,66.172,56.940,-6.146,49.055,34.767,19.785,-3.588,5.686
Mon Dec 02 20:47:34 2024,980,-26.675,-26.675,7.248,7.248,-0.568,28.110,17.749,15.295,66.465,57.317,-6.435,49.818,35.319,19.663,-3.478,5.766
Mon Dec 02 20:47:34 2024,985,-26.755,-26.755,7.347,7.347,-0.593,28.244,17.809,15.463,66.697,57.639,-6.561,50.366,35.804,19.595,-3.353,5.940
Mon Dec 02 20:47:34 2024,990,-26.826,-26.826,7.434,7.434,-0.616,28.363,17.863,15.614,66.902,57.924,-6.672,50.852,36.238,19.535,-3.244,6.093
Mon Dec 02 20:47:34 2024,995,-26.954,-26.954,7.666,7.666,-0.599,28.626,18.023,15.729,67.404,58.359,-7.177,51.706,36.995,19.418,-2.970,6.358
Mon Dec 02 20:47:35 2024,0,-27.049,-27.049,7.843,7.843,-0.583,28.825,18.146,15.806,67.786,58.680,-7.578,52.344,37.573,19.330,-2.764,6.555
Mon Dec 02 20:47:35 2024,5,-27.167,-27.167,8.017,8.017,-0.541,29.038,18.362,15.823,68.104,59.120,-8.012,53.106,38.331,19.220,-2.536,6.815
Mon Dec 02 20:47:35 2024,10,-27.274,-27.274,8.148,8.148,-0.490,29.211,18.586,15.796,68.305,59.537,-8.368,53.773,39.041,19.120,-2.348,7.053
Mon Dec 02 20:47:35 2024,15,-27.365,-27.365,8.285,8.285,-0.429,29.394,18.789,15.709,68.648,59.981,-8.695,54.506,39.765,19.049,-2.179,7.262
Mon Dec 02 20:47:35 2024,20,-27.421,-27.421,8.454,8.454,-0.334,29.622,18.945,15.439,69.436,60.517,-8.957,55.482,40.556,19.052,-2.047,7.399
Mon Dec 02 20:47:35 2024,25,-27.468,-27.468,8.602,8.602,-0.266,29.825,19.080,15.203,70.160,61.020,-9.193,56.370,41.317,19.044,-1.920,7.520
Mon Dec 02 20:47:35 2024,30,-27.474,-27.474,8.716,8.716,0.001,30.059,19.159,15.036,71.246,62.076,-9.392,57.596,42.641,18.852,-1.577,7.636
Mon Dec 02 20:47:35 2024,35,-27.471,-27.471,8.807,8.807,0.267,30.264,19.217,14.913,72.245,63.086,-9.564,58.715,43.942,18.659,-1.250,7.733
Mon Dec 02 20:47:35 2024,40,-27.472,-27.472,8.869,8.869,0.431,30.611,19.353,14.734,73.336,64.475,-9.756,60.007,45.583,18.526,-0.958,7.731
Mon Dec 02 20:47:35 2024,45,-27.475,-27.475,8.912,8.912,0.654,31.014,19.526,14.540,74.414,66.013,-9.955,61.321,47.389,18.436,-0.708,7.674
Mon Dec 02 20:47:35 2024,50,-27.467,-27.467,8.948,8.948,0.848,31.393,19.649,14.349,75.364,67.309,-10.203,62.491,48.988,18.320,-0.440,7.586
Mon Dec 02 20:47:35 2024,55,-27.430,-27.430,8.989,8.989,1.054,31.923,19.716,14.041,76.544,68.707,-10.700,63.959,50.812,18.072,0.038,7.370
Mon Dec 02 20:47:35 2024,60,-27.393,-27.393,9.031,9.031,1.264,32.462,19.787,13.762,77.753,70.151,-11.228,65.452,52.782,17.825,0.509,7.148
Mon Dec 02 20:47:35 2024,65,-27.324,-27.324,9.260,9.260,1.597,33.127,20.112,13.533,79.355,72.274,-11.324,67.658,55.797,17.670,0.883,7.076
Mon Dec 02 20:47:35 2024,70,-27.264,-27.264,9.462,9.462,1.885,33.698,20.405,13.408,80.734,74.117,-11.430,69.578,58.503,17.545,1.181,7.018
Mon Dec 02 20:47:35 2024,75,-27.087,-27.087,9.585,9.585,2.094,34.214,20.651,13.179,81.828,75.600,-11.212,71.110,60.667,17.482,1.365,6.826
Mon Dec 02 20:47:35 2024,80,-26.825,-26.825,9.653,9.653,2.245,34.695,20.868,12.907,82.724,76.844,-10.779,72.395,62.474,17.460,1.472,6.538
Mon Dec 02 20:47:35 2024,85,-26.637,-26.637,9.742,9.742,2.354,35.111,21.057,12.737,83.477,78.013,-10.317,73.549,64.177,17.450,1.526,6.283
Mon Dec 02 20:47:35 2024,90,-26.606,-26.606,9.967,9.967,2.378,35.537,21.232,12.582,84.164,79.593,-9.414,74.862,66.354,17.485,1.422,5.999
Mon Dec 02 20:47:35 2024,95,-26.581,-26.581,10.154,10.154,2.398,35.893,21.382,12.541,84.740,80.915,-8.901,75.996,68.128,17.514,1.336,5.778
Mon Dec 02 20:47:35 2024,100,-26.553,-26.553,10.251,10.251,2.456,36.293,21.485,13.181,86.175,82.735,-8.839,77.451,70.375,17.402,1.432,5.464
Mon Dec 02 20:47:35 2024,105,-26.530,-26.530,10.310,10.310,2.508,36.614,21.560,13.860,87.472,84.239,-9.080,78.660,72.146,17.288,1.542,5.232
Mon Dec 02 20:47:35 2024,110,-26.543,-26.543,10.297,10.297,2.592,36.968,21.703,14.688,88.823,85.810,9.498,79.743,73.949,17.188,1.648,5.075
Mon Dec 02 20:47:35 2024,115,-26.592,-26.592,10.215,10.215,2.708,37.354,21.914,15.674,90.233,87.444,10.092,80.709,75.797,17.101,1.748,4.996
Mon Dec 02 20:47:35 2024,120,-26.631,-26.631,10.146,10.146,2.823,37.754,22.162,16.628,91.457,88.875,10.792,81.562,77.316,17.011,1.850,4.974
Mon Dec 02 20:47:35 2024,125,-26.642,-26.642,10.106,10.106,2.938,38.199,22.505,17.413,92.238,89.912,11.390,82.139,78.204,16.914,1.960,5.020
Mon Dec 02 20:47:35 2024,130,-26.656,-26.656,10.071,10.071,3.040,38.592,22.812,18.159,92.932,90.814,11.983,82.651,78.959,16.828,2.056,5.070
Mon Dec 02 20:47:35 2024,135,-26.657,-26.657,9.961,9.961,3.210,38.928,23.077,18.700,93.378,91.524,12.367,82.945,79.596,16.722,2.153,5.055
Mon Dec 02 20:47:35 2024,140,-26.660,-26.660,9.877,9.877,3.335,39.156,23.258,19.067,93.666,91.998,12.621,83.130,80.026,16.646,2.220,5.042
Mon Dec 02 20:47:35 2024,145,-26.631,-26.631,9.771,9.771,3.422,39.323,23.382,19.389,93.929,92.446,13.011,83.352,80.389,16.561,2.288,5.033
Mon Dec 02 20:47:35 2024,150,-26.560,-26.560,9.654,9.654,3.429,39.360,23.392,19.556,94.098,92.761,13.536,83.585,80.565,16.480,2.342,5.028
Mon Dec 02 20:47:35 2024,155,-26.499,-26.499,9.549,9.549,3.436,39.394,23.402,19.708,94.250,93.042,14.036,83.797,80.715,16.407,2.390,5.027
Mon Dec 02 20:47:35 2024,160,-26.478,-26.478,9.370,9.370,3.569,39.449,23.393,19.693,94.257,93.287,14.445,84.035,80.820,16.459,2.347,5.017
Mon Dec 02 20:47:35 2024,165,-26.457,-26.457,9.236,9.236,3.658,39.490,23.389,19.704,94.283,93.489,14.801,84.224,80.908,16.482,2.325,5.012
Mon Dec 02 20:47:35 2024,170,-26.402,-26.402,9.077,9.077,3.732,39.510,23.428,19.706,94.205,93.669,14.996,84.245,80.947,16.429,2.372,4.966
Mon Dec 02 20:47:35 2024,175,-26.359,26.359,8.961,8.961,3.781,39.520,23.460,19.708,94.134,93.790,15.107,84.233,80.966,16.380,2.416,4.928
Mon Dec 02 20:47:35 2024,180,-26.301,26.301,8.883,8.883,3.795,39.391,23.427,19.351,93.684,93.606,14.861,83.998,80.614,16.341,2.447,4.848
Mon Dec 02 20:47:35 2024,185,-26.240,26.240,8.862,8.862,3.767,39.147,23.333,18.721,92.945,93.128,14.307,83.584,79.944,16.320,2.456,4.744
Mon Dec 02 20:47:35 2024,190,-26.193,26.193,8.846,8.846,3.745,38.958,23.259,18.245,92.369,92.740,13.885,83.262,79.410,16.304,2.463,4.666
Mon Dec 02 20:47:35 2024,195,-26.048,26.048,8.899,8.899,3.727,38.809,23.278,17.619,91.623,92.255,13.298,82.841,78.675,16.329,2.433,4.598
Mon Dec 02 20:47:35 2024,200,-25.912,25.912,8.944,8.944,3.708,38.650,23.284,17.020,90.880,91.748,12.740,82.423,77.931,16.350,2.407,4.533
Mon Dec 02 20:47:35 2024,205,-25.849,25.849,8.944,8.944,3.770,38.366,23.217,16.269,89.692,90.600,11.623,81.417,76.550,16.267,2.364,4.355
Mon Dec 02 20:47:35 2024,210,-25.809,25.809,8.932,8.932,3.850,38.069,23.137,15.578,88.470,89.316,10.547,80.335,75.035,16.161,2.312,4.164
Mon Dec 02 20:47:35 2024,215,-25.776,25.776,8.922,8.922,3.917,37.820,23.069,15.038,87.445,88.202,9.755,79.434,73.718,16.071,2.264,4.007
Mon Dec 02 20:47:35 2024,220,-25.598,25.598,8.982,8.982,3.896,37.121,22.879,14.155,85.764,85.490,8.658,77.812,71.006,15.851,2.284,4.055
Mon Dec 02 20:47:35 2024,225,-25.454,25.454,8.984,8.984,3.897,36.548,22.724,13.435,84.268,83.186,7.952,76.377,68.665,15.694,2.275,4.064
Mon Dec 02 20:47:35 2024,230,-25.273,25.273,8.830,8.830,3.886,35.937,22.559,12.663,82.651,80.748,-7.386,74.700,66.170,15.634,2.268,4.061
Mon Dec 02 20:47:35 2024,235,-25.115,25.115,8.696,8.696,3.877,35.401,22.415,12.043,81.245,78.607,-7.057,73.241,63.922,15.581,2.261,4.074
Mon Dec 02 20:47:35 2024,240,-24.979,24.979,8.460,8.460,3.812,34.740,22.000,11.925,80.201,76.837,-6.808,72.133,61.945,15.321,2.400,3.880
Mon Dec 02 20:47:35 2024,245,-24.854,24.854,8.195,8.195,3.728,34.057,21.502,12.032,79.335,75.257,-6.576,71.197,60.142,14.992,2.584,3.618
Mon Dec 02 20:47:35 2024,250,-24.682,24.682,8.105,8.105,3.594,33.380,21.162,11.979,78.351,73.594,-6.337,70.012,58.073,14.746,2.710,3.462
Mon Dec 02 20:47:35 2024,255,-24.248,24.248,8.309,8.309,3.238,32.104,20.855,11.489,76.215,70.273,-5.897,67.218,53.577,14.468,2.831,3.394
Mon Dec 02 20:47:35 2024,260,-23.944,23.944,8.439,8.439,2.988,31.184,20.617,11.220,74.704,67.916,-5.695,65.250,50.408,14.258,2.918,3.355
Mon Dec 02 20:47:35 2024,265,-24.017,24.017,8.500,8.500,2.907,30.693,20.559,12.170,71.504,62.292,-5.491,62.206,44.202,14.186,2.859,3.394
Mon Dec 02 20:47:35 2024,270,-24.062,24.062,8.557,8.557,2.828,30.274,20.508,13.016,69.004,58.083,-5.448,59.842,39.912,14.122,2.814,3.425
Mon Dec 02 20:47:35 2024,275,-24.124,24.124,8.473,8.473,2.593,30.033,20.495,14.103,65.857,53.100,-5.095,57.286,36.013,14.082,2.858,3.691
Mon Dec 02 20:47:35 2024,280,-24.253,24.253,8.021,8.021,1.940,30.210,20.576,15.859,60.540,45.238,-3.795,53.685,31.730,14.098,3.129,4.588
Mon Dec 02 20:47:35 2024,285,-24.401,24.401,7.801,7.801,1.522,30.217,20.796,15.981,56.836,41.299,-3.041,50.859,29.351,14.116,3.155,5.054
Mon Dec 02 20:47:35 2024,290,-24.674,24.674,7.821,7.821,1.261,30.010,21.627,12.245,53.737,40.343,-2.319,48.114,27.680,14.180,2.708,4.992
Mon Dec 02 20:47:35 2024,295,-24.890,24.890,7.810,7.810,1.021,29.876,22.244,9.709,51.190,39.305,-1.786,45.823,26.466,14.225,2.382,5.020
Mon Dec 02 20:47:35 2024,300,-24.636,24.636,8.220,8.220,1.008,29.511,21.483,7.386,46.578,37.283,-1.689,42.285,24.955,13.999,2.115,5.034
Mon Dec 02 20:47:35 2024,305,-24.434,24.434,8.564,8.564,1.000,29.203,20.847,5.635,42.952,35.847,-1.700,39.380,23.824,13.811,1.868,5.085
Mon Dec 02 20:47:35 2024,310,-24.280,24.280,8.843,8.843,0.993,28.952,20.339,4.328,40.184,34.866,-1.755,37.070,23.007,13.661,1.652,5.155
Mon Dec 02 20:47:35 2024,315,-23.469,23.469,8.828,8.828,0.817,29.431,17.660,5.775,39.992,26.622,-2.258,36.077,18.829,13.596,3.087,4.548
Mon Dec 02 20:47:35 2024,320,-23.072,-11.427,8.902,8.902,0.728,29.587,16.278,6.063,39.159,22.734,-2.495,34.969,16.729,13.492,3.667,4.357
Mon Dec 02 20:47:35 2024,325,-23.128,23.128,8.578,8.578,0.489,29.146,14.721,5.522,36.874,19.851,-1.709,34.079,16.198,13.598,3.400,3.879
Mon Dec 02 20:47:35 2024,330,-23.069,23.069,8.408,8.408,0.335,28.932,13.506,5.287,35.386,17.350,-1.311,33.313,15.391,13.633,3.384,3.564
Mon Dec 02 20:47:35 2024,335,-23.251,23.251,8.132,8.132,0.168,28.860,12.850,5.146,34.440,15.952,-0.779,32.249,14.810,13.665,3.321,3.140
Mon Dec 02 20:47:35 2024,340,-23.415,23.415,7.887,7.887,-0.213,28.800,12.263,5.019,33.602,14.733,-0.347,31.323,14.285,13.694,3.265,2.769
Mon Dec 02 20:47:35 2024,345,-23.565,23.565,7.666,7.666,-0.367,28.750,11.737,4.903,32.855,13.667,0.274,30.503,13.807,13.719,3.215,2.441
Mon Dec 02 20:47:35 2024,350,-23.594,23.594,7.413,7.413,-0.394,28.513,11.678,4.739,32.491,13.766,0.271,30.165,13.657,13.792,3.164,2.438
Mon Dec 02 20:47:35 2024,355,-23.671,23.671,7.182,7.182,-0.477,28.360,11.447,4.604,32.001,13.427,0.389,29.668,13.393,13.844,3.116,2.314
Mon Dec 02 20:47:35 2024,360,-23.635,23.635,7.074,7.074,-0.444,28.336,11.390,4.545,31.748,13.236,0.351,29.743,13.380,13.854,3.178,2.376
Mon Dec 02 20:47:35 2024,365,-23.641,23.641,6.927,6.927,-0.417,28.275,11.295,4.504,31.481,13.034,0.370,29.652,13.302,13.870,3.185,2.370
Mon Dec 02 20:47:35 2024,370,-23.667,23.667,6.783,6.783,-0.351,28.214,11.220,4.525,31.305,12.883,0.405,29.544,13.232,13.877,3.154,2.335
Mon Dec 02 20:47:35 2024,375,-23.696,23.696,6.632,6.632,-0.281,28.150,11.145,4.554,31.133,12.734,0.444,29.430,13.160,13.883,3.117,2.295
Mon Dec 02 20:47:35 2024,380,-23.724,23.724,6.501,6.501,-0.217,28.095,11.081,4.589,30.997,12.611,0.482,29.328,13.098,13.887,3.078,2.255
Mon Dec 02 20:47:35 2024,385,-23.740,23.740,6.429,6.429,-0.186,28.065,11.047,4.607,30.924,12.545,0.503,29.272,13.064,13.889,3.057,2.234
Mon Dec 02 20:47:35 2024,390,-23.806,23.806,6.604,6.604,-0.002,27.958,10.807,4.558,30.584,12.233,0.398,29.034,12.791,13.901,2.917,2.096
Mon Dec 02 20:47:35 2024,395,-23.837,23.837,6.588,6.588,0.123,27.821,10.707,4.523,30.316,12.075,0.312,28.865,12.645,14.017,2.800,2.083
Mon Dec 02 20:47:35 2024,400,-23.867,23.867,6.569,6.569,0.122,27.668,10.608,4.480,30.028,11.917,0.219,28.685,12.493,14.158,2.670,2.081
Mon Dec 02 20:47:35 2024,405,-23.923,23.923,6.553,6.553,0.144,27.531,10.491,4.462,29.676,11.689,0.148,28.414,12.265,14.309,2.482,2.029
Mon Dec 02 20:47:35 2024,410,-24.023,24.023,6.532,6.532,0.226,27.370,10.335,4.459,29.156,11.333,-0.142,27.961,11.891,14.535,2.168,1.919
Mon Dec 02 20:47:35 2024,415,-24.107,24.107,6.477,6.477,0.267,27.293,10.282,4.443,28.764,11.097,-0.206,27.533,11.576,14.683,1.995,1.866
Mon Dec 02 20:47:35 2024,420,-24.182,24.182,6.415,6.415,0.293,27.243,10.258,4.423,28.430,10.906,-0.284,27.137,11.296,14.801,1.869,1.832
Mon Dec 02 20:47:35 2024,425,-24.254,24.254,6.327,6.327,0.318,27.197,10.246,4.419,28.115,10.728,-0.368,26.627,10.948,14.903,1.748,1.794
Mon Dec 02 20:47:35 2024,430,-24.300,24.300,6.171,6.171,0.333,27.176,10.270,4.471,27.917,10.618,-0.440,25.843,10.448,14.930,1.667,1.748
Mon Dec 02 20:47:35 2024,435,-24.348,24.348,6.023,6.023,0.348,27.153,10.291,4.515,27.713,10.504,-0.516,25.104,9.980,14.965,1.581,1.706
Mon Dec 02 20:47:35 2024,440,-24.423,24.423,5.875,5.875,0.439,27.133,10.398,4.560,27.399,10.471,-0.488,24.112,9.421,15.006,1.577,1.740
Mon Dec 02 20:47:35 2024,445,-24.492,24.492,5.745,5.745,0.525,27.116,10.499,4.598,27.126,10.448,-0.458,23.235,8.942,15.042,1.579,1.781
Mon Dec 02 20:47:35 2024,450,-24.540,24.540,5.599,5.599,0.541,27.084,10.522,4.586,26.911,10.441,-0.476,22.434,8.528,15.023,1.642,1.828
Mon Dec 02 20:47:35 2024,455,-24.581,24.581,5.444,5.444,0.529,27.045,10.513,4.554,26.719,10.440,-0.512,21.672,8.144,14.981,1.732,1.879
Mon Dec 02 20:47:35 2024,460,-24.615,24.615,5.316,5.316,0.519,27.012,10.505,4.527,26.563,10.440,-0.542,21.084,7.836,14.947,1.806,1.923
Mon Dec 02 20:47:35 2024,465,-24.704,24.704,5.350,5.350,0.481,26.913,10.460,4.357,26.192,10.308,-0.698,20.812,7.511,14.758,1.910,1.932
Mon Dec 02 20:47:35 2024,470,-24.774,24.774,5.348,5.348,0.451,26.837,10.427,4.230,25.900,10.215,-0.817,20.821,7.227,14.617,1.997,1.952
Mon Dec 02 20:47:35 2024,475,-24.887,24.887,5.241,5.241,0.507,26.766,10.443,4.183,25.647,10.158,-0.894,19.034,7.070,14.623,1.969,1.974
Mon Dec 02 20:47:35 2024,480,-24.978,24.978,5.155,5.155,0.552,26.710,10.456,4.146,25.454,10.114,-0.955,18.880,6.950,14.629,1.944,1.992
Mon Dec 02 20:47:35 2024,485,-25.083,25.083,5.048,5.048,0.572,26.633,10.432,4.062,25.134,9.997,-0.997,18.741,6.822,14.699,1.873,2.013
Mon Dec 02 20:47:35 2024,490,-25.167,25.167,4.956,4.956,0.560,26.560,10.381,3.960,24.807,9.851,-1.007,18.675,6.728,14.804,1.781,2.031
Mon Dec 02 20:47:35 2024,495,-25.263,25.263,4.884,4.884,0.549,26.489,10.350,3.854,24.480,9.718,-1.030,18.582,6.646,14.878,1.700,2.057
Mon Dec 02 20:47:35 2024,500,-25.394,25.394,4.851,4.851,0.530,26.410,10.346,3.714,24.085,9.587,-1.072,18.444,6.592,14.908,1.620,2.096
Mon Dec 02 20:47:35 2024,505,-25.508,25.508,4.823,4.823,0.514,26.343,10.344,3.592,23.786,9.472,-1.110,18.322,6.546,14.932,1.552,2.130
Mon Dec 02 20:47:35 2024,510,-25.621,25.621,4.759,4.759,0.456,26.252,10.429,3.411,16.540,9.321,-1.142,18.251,6.513,15.066,1.372,2.166
Mon Dec 02 20:47:35 2024,515,-25.724,25.724,4.697,4.697,0.401,26.167,10.513,3.240,16.758,9.178,-1.172,18.189,6.485,15.196,1.199,2.203
Mon Dec 02 20:47:35 2024,520,-25.826,25.826,4.650,4.650,0.321,26.032,10.582,2.898,17.006,9.028,-1.257,18.134,6.546,15.352,0.991,2.270
Mon Dec 02 20:47:35 2024,525,-25.913,25.913,4.618,4.618,0.232,25.879,10.634,2.480,17.078,8.889,-1.371,18.084,6.661,15.506,0.785,2.354
Mon Dec 02 20:47:35 2024,530,-25.994,25.994,4.592,4.592,0.138,25.768,10.692,2.060,16.906,8.721,-1.476,18.076,6.782,15.706,0.540,2.442
Mon Dec 02 20:47:35 2024,535,-26.051,26.051,4.576,4.576,0.003,25.764,10.760,1.683,16.611,8.509,-1.550,18.165,6.904,15.990,0.230,2.517
Mon Dec 02 20:47:35 2024,540,-26.102,26.102,4.561,4.561,-0.120,25.759,10.821,1.348,16.238,8.322,-1.618,18.212,7.011,16.242,-0.044,2.585
Mon Dec 02 20:47:35 2024,545,-26.137,26.137,4.544,4.544,-0.125,25.647,10.855,0.982,15.653,8.016,-1.579,18.357,7.063,16.430,-0.367,2.596
Mon Dec 02 20:47:35 2024,550,-26.168,26.168,4.526,4.526,-0.114,25.516,10.882,0.618,14.982,7.694,-1.522,20.741,7.104,16.604,-0.695,2.598
Mon Dec 02 20:47:35 2024,555,-26.179,26.179,4.583,4.583,-0.107,25.472,10.887,0.265,14.358,7.388,-1.435,21.463,7.196,16.733,-0.897,2.627
Mon Dec 02 20:47:35 2024,560,-26.178,26.178,4.662,4.662,-0.097,25.478,10.880,-0.079,13.899,7.162,-1.355,21.509,7.291,16.810,-0.993,2.662
Mon Dec 02 20:47:35 2024,565,-26.177,26.177,4.742,4.742,-0.091,25.484,10.872,-0.303,13.424,6.935,-1.276,21.651,7.387,16.889,-1.090,2.697
Mon Dec 02 20:47:35 2024,570,-26.179,26.179,4.854,4.854,-0.152,25.484,10.910,-0.582,12.841,6.625,-1.183,22.184,7.636,16.982,-1.183,2.782
Mon Dec 02 20:47:35 2024,575,-26.181,26.181,4.942,4.942,-0.197,25.484,10.936,-0.813,12.366,6.382,-1.111,22.666,7.824,17.058,-1.260,2.848
Mon Dec 02 20:47:35 2024,580,-26.200,26.200,4.963,4.963,-0.328,25.451,10.923,-0.864,12.026,6.183,-0.961,23.544,8.200,17.300,-1.415,2.950
Mon Dec 02 20:47:35 2024,585,-26.219,26.219,4.968,4.968,-0.453,25.420,10.906,-0.874,11.774,6.030,-0.829,24.367,8.544,17.529,-1.557,3.043
Mon Dec 02 20:47:35 2024,590,-26.266,26.266,5.021,5.021,-0.562,25.438,10.974,-0.805,11.629,5.920,-0.621,25.553,9.024,17.792,-1.774,3.118
Mon Dec 02 20:47:35 2024,595,-26.330,26.330,5.110,5.110,-0.628,25.502,11.116,-0.674,11.630,5.879,-0.384,26.848,9.535,18.031,-2.019,3.159
Mon Dec 02 20:47:35 2024,600,-26.394,26.394,5.224,5.224,-0.726,25.606,11.215,-0.448,11.764,5.914,-0.193,28.317,10.216,18.255,-2.226,3.206
Mon Dec 02 20:47:35 2024,605,-26.455,26.455,5.399,5.399,-0.884,25.814,11.205,0.042,12.264,6.171,0.284,30.036,11.272,18.398,-2.302,3.241
Mon Dec 02 20:47:35 2024,610,-26.517,26.517,5.582,5.582,-1.048,26.035,11.187,0.602,12.770,6.454,0.580,31.841,12.413,18.541,-2.376,3.279
Mon Dec 02 20:47:35 2024,615,-26.734,26.734,5.707,5.707,-1.311,26.440,11.197,1.269,13.940,7.304,0.814,34.300,14.560,18.543,-2.480,3.305
Mon Dec 02 20:47:35 2024,620,-26.923,26.923,5.800,5.800,-1.531,26.785,11.207,1.824,14.854,8.088,1.009,36.387,16.500,18.527,-2.567,3.377
Mon Dec 02 20:47:35 2024,625,-27.027,27.027,5.806,5.806,-1.652,27.074,11.173,1.836,14.766,7.990,1.183,37.766,18.496,18.509,-2.528,3.820
Mon Dec 02 20:47:35 2024,630,-27.075,27.075,5.717,5.717,-1.704,27.403,11.074,1.221,13.513,6.854,1.396,38.837,21.459,18.484,-2.331,5.073
Mon Dec 02 20:47:35 2024,635,-27.114,27.114,5.663,5.663,-1.745,27.642,11.004,0.804,12.584,6.139,1.566,39.702,23.875,18.467,-2.196,6.140
Mon Dec 02 20:47:35 2024,640,-27.023,27.023,6.580,6.580,-1.747,27.850,10.899,1.293,13.713,6.062,1.890,40.580,26.470,18.945,-2.486,7.350
Mon Dec 02 20:47:35 2024,645,-26.972,-26.972,7.140,7.140,-1.752,27.997,10.830,1.547,14.289,5.972,2.131,41.249,28.783,19.229,-2.650,8.174
Mon Dec 02 20:47:35 2024,650,-26.657,-26.657,7.976,7.976,-1.882,28.214,10.422,2.123,15.536,6.080,2.895,39.896,28.933,19.117,-2.576,8.647
Mon Dec 02 20:47:35 2024,655,-26.354,-26.354,8.689,8.689,-2.011,28.400,10.026,2.626,16.363,6.224,3.720,38.285,28.040,18.946,-2.468,8.930
Mon Dec 02 20:47:35 2024,660,-26.059,-26.059,9.161,9.161,-1.983,28.536,9.688,3.169,16.648,6.337,4.457,35.998,25.436,18.591,-2.089,9.004
Mon Dec 02 20:47:35 2024,665,-25.837,-8.663,8.773,8.773,-1.455,28.500,9.587,3.796,16.187,6.308,4.513,32.120,19.004,17.695,-0.898,8.412
Mon Dec 02 20:47:35 2024,670,-25.589,25.589,8.542,8.542,-1.049,28.590,9.483,4.435,24.645,6.336,4.913,29.465,14.208,17.015,0.039,8.027
Mon Dec 02 20:47:35 2024,675,-25.237,25.237,8.150,8.150,-0.669,28.957,9.582,5.215,25.649,6.438,6.150,29.997,13.447,16.656,0.720,7.831
Mon Dec 02 20:47:35 2024,680,-24.895,24.895,7.761,7.761,-0.314,29.350,9.686,6.003,26.699,6.543,7.405,30.670,12.713,16.301,1.393,7.642
Mon Dec 02 20:47:35 2024,685,-24.497,24.497,7.646,7.646,0.218,29.239,9.846,6.494,27.266,6.728,5.373,29.194,11.547,16.260,1.776,7.588
Mon Dec 02 20:47:35 2024,690,-24.066,24.066,7.564,7.564,0.492,29.063,10.026,6.978,27.807,6.942,2.787,27.691,10.405,16.251,2.130,7.546
Mon Dec 02 20:47:35 2024,695,-23.726,23.726,7.586,7.586,0.850,28.890,10.200,7.380,28.270,7.152,1.169,26.677,9.462,15.934,2.705,7.626
Mon Dec 02 20:47:35 2024,700,-23.373,23.373,7.802,7.802,1.415,28.633,10.448,7.838,28.825,7.449,0.362,25.181,8.273,14.927,3.979,7.967
Mon Dec 02 20:47:35 2024,705,-23.082,23.082,7.960,7.960,1.880,28.548,10.720,8.247,29.380,7.728,-0.284,24.107,7.521,14.104,5.032,8.266
Mon Dec 02 20:47:35 2024,710,-22.831,22.831,8.117,8.117,2.330,28.743,11.205,8.725,30.214,8.102,-0.388,23.073,7.026,13.139,6.261,8.715
Mon Dec 02 20:47:35 2024,715,-22.615,22.615,8.260,8.260,2.737,28.959,11.668,9.155,31.008,8.455,-0.433,22.169,6.694,12.245,7.369,9.142
Mon Dec 02 20:47:35 2024,720,-22.481,22.481,8.416,8.416,3.104,29.379,12.177,9.606,32.157,8.963,-0.401,20.969,6.246,11.349,8.503,9.553
Mon Dec 02 20:47:35 2024,725,-22.403,22.403,8.543,8.543,3.385,29.758,12.599,9.965,33.184,9.409,-0.358,19.608,5.924,10.638,9.334,9.869
Mon Dec 02 20:47:35 2024,730,-22.251,22.251,8.608,8.608,3.685,30.198,13.118,10.532,34.547,10.031,-0.290,19.096,6.042,10.020,9.958,10.333
Mon Dec 02 20:47:35 2024,735,-22.052,22.052,8.582,8.582,3.928,30.594,13.618,11.208,35.948,10.710,-0.206,19.017,6.600,9.671,10.107,10.861
Mon Dec 02 20:47:35 2024,740,-21.885,21.885,8.559,8.559,4.149,30.960,14.089,11.827,37.250,11.348,-0.130,18.934,7.110,9.342,29.950,11.338
Mon Dec 02 20:47:35 2024,745,-21.652,21.652,8.760,8.760,4.200,31.203,14.429,12.192,38.314,11.931,-0.957,21.016,8.091,9.058,29.976,11.619
Mon Dec 02 20:47:35 2024,750,-21.456,21.456,8.924,8.924,4.257,31.432,14.753,12.540,39.306,12.470,-1.628,22.186,8.917,8.792,30.071,11.892
Mon Dec 02 20:47:35 2024,755,-21.269,21.269,9.202,9.202,4.347,31.477,14.734,12.855,40.055,12.749,-2.739,23.592,9.266,8.714,30.144,11.837
Mon Dec 02 20:47:35 2024,760,-21.078,21.078,9.518,9.518,4.448,31.480,14.628,13.175,40.778,12.980,-3.986,25.082,9.489,8.680,30.208,11.699
Mon Dec 02 20:47:35 2024,765,-20.920,20.920,9.860,9.860,4.564,31.533,14.480,13.414,41.322,13.062,-5.018,26.405,9.679,8.630,30.243,11.606
Mon Dec 02 20:47:35 2024,770,-20.790,20.790,10.234,10.234,4.699,31.639,14.288,13.580,41.705,13.005,-5.871,27.596,9.840,8.563,30.252,11.555
Mon Dec 02 20:47:35 2024,775,-20.676,20.676,10.622,10.622,4.855,31.762,14.099,13.745,42.058,12.936,-6.648,28.696,9.965,8.497,30.270,11.517
Mon Dec 02 20:47:35 2024,780,-20.620,20.620,11.102,11.102,5.124,31.973,13.917,13.920,42.272,12.808,-7.146,29.494,10.018,8.435,30.332,11.533
Mon Dec 02 20:47:35 2024,785,-20.578,20.578,11.512,11.512,5.356,32.157,13.761,14.071,42.454,12.698,-7.561,30.164,10.053,8.382,30.389,11.549
Mon Dec 02 20:47:35 2024,790,-20.568,20.568,11.960,11.960,5.539,32.317,13.710,14.118,42.571,12.654,-7.797,30.834,10.272,8.273,30.474,11.693
Mon Dec 02 20:47:35 2024,795,-20.572,20.572,12.329,12.329,5.666,32.435,13.708,14.118,42.639,12.644,-7.920,31.374,10.508,8.166,30.558,11.855
Mon Dec 02 20:47:35 2024,800,-20.568,20.568,12.722,12.722,5.800,32.630,13.748,14.216,42.846,12.745,-8.278,32.180,10.850,8.072,30.761,12.205
Mon Dec 02 20:47:35 2024,805,-20.556,20.556,12.991,12.991,5.889,32.835,13.820,14.384,43.126,12.932,-8.753,32.953,11.177,8.029,31.020,12.628
Mon Dec 02 20:47:35 2024,810,-20.545,20.545,13.258,13.258,5.977,33.040,13.892,14.552,43.405,13.118,-9.224,33.715,11.494,7.985,31.290,13.054
Mon Dec 02 20:47:35 2024,815,-20.490,20.490,13.552,13.552,6.054,33.240,14.267,14.820,43.892,13.626,-9.870,35.116,12.503,7.913,31.983,14.405
Mon Dec 02 20:47:35 2024,820,-20.446,20.446,13.792,13.792,6.118,33.405,14.559,15.035,44.281,14.026,-10.392,36.224,13.266,7.851,32.562,15.488
Mon Dec 02 20:47:35 2024,825,-20.410,20.410,14.048,14.048,6.154,33.613,14.990,15.282,44.903,14.655,-10.944,37.146,13.833,7.790,33.413,16.848
Mon Dec 02 20:47:35 2024,830,-20.382,20.382,14.270,14.270,6.176,33.802,15.398,15.500,45.501,15.254,-11.413,37.859,14.234,7.736,34.240,18.108
Mon Dec 02 20:47:35 2024,835,-20.355,20.355,14.479,14.479,6.197,33.979,15.782,15.705,46.063,15.814,-11.843,38.512,14.584,7.679,35.043,19.312
Mon Dec 02 20:47:35 2024,840,-20.416,20.416,14.516,14.516,6.084,34.310,16.430,15.533,46.571,16.720,-12.149,39.769,15.526,7.840,37.055,21.754
Mon Dec 02 20:47:35 2024,845,-20.452,20.452,14.593,14.593,6.010,34.582,16.967,15.462,47.066,17.480,-12.465,40.778,16.198,7.931,38.684,23.783
Mon Dec 02 20:47:35 2024,850,-20.475,20.475,14.644,14.644,5.962,34.760,17.319,15.415,47.393,17.976,-12.672,41.431,16.612,7.988,39.766,25.124
Mon Dec 02 20:47:35 2024,855,-20.692,20.692,14.487,14.487,5.618,35.304,18.347,15.253,48.442,19.204,-12.886,43.502,18.552,7.426,42.109,27.975
Mon Dec 02 20:47:35 2024,860,-20.857,20.857,14.518,14.518,5.354,35.586,19.092,15.046,49.028,20.052,-12.816,44.932,20.040,7.314,43.614,29.937
Mon Dec 02 20:47:35 2024,865,-21.017,21.017,14.585,14.585,5.099,35.780,19.732,14.823,49.460,20.739,-12.602,46.173,21.475,7.299,44.717,31.473
Mon Dec 02 20:47:35 2024,870,-21.164,21.164,14.648,14.648,4.864,35.963,20.322,14.616,49.865,21.372,-12.412,47.352,22.809,7.286,45.736,32.896
Mon Dec 02 20:47:35 2024,875,-21.360,21.360,14.784,14.784,4.772,36.269,20.723,14.500,50.235,21.704,-12.182,48.333,23.653,7.262,46.316,33.505
Mon Dec 02 20:47:35 2024,880,-21.543,21.543,14.902,14.902,4.647,36.548,21.168,14.363,50.619,22.108,-11.962,49.382,24.621,7.245,46.999,34.314
Mon Dec 02 20:47:35 2024,885,-21.563,21.563,15.061,15.061,4.648,36.762,21.300,14.266,50.892,22.362,-11.895,49.941,25.103,7.331,47.490,34.895
Mon Dec 02 20:47:35 2024,890,-21.589,21.589,15.226,15.226,4.644,36.986,21.447,14.164,51.181,22.631,-11.823,50.541,25.617,7.417,48.006,35.511
Mon Dec 02 20:47:35 2024,895,-21.612,21.612,15.369,15.369,4.641,37.180,21.575,14.075,51.432,22.865,-11.764,51.065,26.062,7.492,48.452,36.050
Mon Dec 02 20:47:35 2024,900,-21.693,21.693,15.470,15.470,4.704,37.420,21.627,14.143,51.772,23.081,-11.800,51.423,26.068,7.474,48.554,36.094
Mon Dec 02 20:47:35 2024,905,-21.709,21.709,15.570,15.570,4.698,37.590,21.674,14.106,52.053,23.338,-11.755,51.811,26.263,7.475,48.795,36.358
Mon Dec 02 20:47:35 2024,910,-21.675,21.675,15.625,15.625,4.647,37.659,21.675,14.027,52.229,23.559,-11.672,52.064,26.441,7.461,48.985,36.594
Mon Dec 02 20:47:35 2024,915,-21.636,21.636,15.687,15.687,4.589,37.737,21.677,13.937,52.428,23.810,-11.581,52.350,26.639,7.444,49.201,36.862
Mon Dec 02 20:47:35 2024,920,-21.683,21.683,15.731,15.731,4.535,37.940,21.781,13.821,52.766,24.205,-11.389,52.957,27.236,7.467,49.693,37.394
Mon Dec 02 20:47:35 2024,925,-21.737,21.737,15.777,15.777,4.476,38.163,21.896,13.695,53.138,24.637,-11.181,53.631,27.892,7.493,50.235,37.983
Mon Dec 02 20:47:35 2024,930,-21.775,21.775,15.808,15.808,4.435,38.317,21.975,13.606,53.398,24.936,-11.038,54.101,28.343,7.512,50.611,38.395
Mon Dec 02 20:47:35 2024,935,-21.746,21.746,15.787,15.787,4.499,38.340,22.018,13.596,53.660,25.276,-10.952,54.473,28.864,7.444,50.605,38.594
Mon Dec 02 20:47:35 2024,940,-21.744,21.744,15.787,15.787,4.518,38.406,22.069,13.559,53.888,25.559,-10.858,54.833,29.293,7.415,50.734,38.843
Mon Dec 02 20:47:35 2024,945,-21.753,21.753,15.831,15.831,4.491,38.439,22.130,13.408,54.239,25.807,-10.693,55.348,29.939,7.375,51.035,39.328
Mon Dec 02 20:47:35 2024,950,-21.761,21.761,15.867,15.867,4.468,38.466,22.181,13.282,54.534,26.012,-10.554,55.782,30.480,7.343,51.286,39.737
Mon Dec 02 20:47:35 2024,955,-21.752,21.752,15.843,15.843,4.389,38.481,22.236,13.146,54.683,26.184,-10.458,56.107,30.847,7.247,51.475,39.986
Mon Dec 02 20:47:35 2024,960,-21.743,21.743,15.823,15.823,4.314,38.498,22.291,13.011,54.841,26.358,-10.360,56.439,31.224,7.155,51.666,40.244
Mon Dec 02 20:47:35 2024,965,-21.715,21.715,15.780,15.780,4.283,38.546,22.339,12.904,54.909,26.527,-10.316,56.686,31.429,7.046,51.741,40.344
Mon Dec 02 20:47:35 2024,970,-21.684,21.684,15.737,15.737,4.278,38.597,22.374,12.833,54.923,26.655,-10.305,56.840,31.513,6.955,51.750,40.353
Mon Dec 02 20:47:35 2024,975,-21.657,21.657,15.699,15.699,4.274,38.641,22.404,12.771,54.936,26.769,-10.294,56.975,31.587,6.874,51.758,40.360
Mon Dec 02 20:47:35 2024,980,-21.612,21.612,15.623,15.623,4.328,38.763,22.441,12.728,54.897,26.794,-10.335,56.898,31.404,6.970,51.614,40.062
Mon Dec 02 20:47:35 2024,985,-21.581,21.581,15.571,15.571,4.360,38.844,22.467,12.692,54.876,26.826,-10.358,56.872,31.303,7.015,51.528,39.883
Mon Dec 02 20:47:35 2024,990,-21.492,21.492,15.522,15.522,4.518,38.793,22.436,12.750,54.712,26.890,-10.327,56.450,30.871,7.160,50.993,39.189
Mon Dec 02 20:47:35 2024,995,-21.415,21.415,15.480,15.480,4.659,38.744,22.406,12.803,54.567,26.946,-10.300,56.072,30.490,7.288,50.518,38.582
Mon Dec 02 20:47:36 2024,0,-21.290,21.290,15.439,15.439,4.852,38.554,22.380,12.871,54.395,27.051,-10.322,55.332,29.892,7.387,49.707,37.664
Mon Dec 02 20:47:36 2024,5,-21.173,21.173,15.408,15.408,5.024,38.346,22.359,12.930,54.253,27.155,-10.363,54.603,29.333,7.451,48.936,36.826
Mon Dec 02 20:47:36 2024,10,-21.064,21.064,15.371,15.371,5.139,38.167,22.309,12.948,54.072,27.254,-10.527,53.941,28.734,7.531,48.159,35.889
Mon Dec 02 20:47:36 2024,15,-20.960,20.960,15.300,15.300,5.069,38.049,22.133,12.816,53.698,27.364,-11.174,53.366,27.844,7.689,47.167,34.344
Mon Dec 02 20:47:36 2024,20,-20.876,20.876,15.243,15.243,5.020,37.951,21.997,12.718,53.404,27.451,-11.672,52.911,27.142,7.815,46.383,33.147
Mon Dec 02 20:47:36 2024,25,-20.775,20.775,15.286,15.286,5.088,37.904,21.654,12.915,52.977,27.115,-12.029,51.952,26.101,8.056,44.920,31.135
Mon Dec 02 20:47:36 2024,30,-20.680,20.680,15.339,15.339,5.164,37.868,21.309,13.131,52.567,26.746,-12.358,51.016,25.050,8.281,43.502,29.216
Mon Dec 02 20:47:36 2024,35,-20.597,20.597,15.486,15.486,5.247,37.764,21.093,13.165,51.964,26.282,-12.627,50.143,24.405,8.482,42.022,27.743
Mon Dec 02 20:47:36 2024,40,-20.510,20.510,15.724,15.724,5.347,37.592,20.921,13.082,51.118,25.660,-12.917,49.150,23.880,8.696,40.240,26.272
Mon Dec 02 20:47:36 2024,45,-20.441,20.441,15.917,15.917,5.427,37.454,20.782,13.012,50.440,25.153,-13.166,48.363,23.414,8.853,38.847,25.106
Mon Dec 02 20:47:36 2024,50,-20.406,20.406,16.046,16.046,5.418,37.076,20.754,12.364,49.051,24.218,-13.412,47.790,23.810,8.857,37.559,24.489
Mon Dec 02 20:47:36 2024,55,-20.380,20.380,16.148,16.148,5.420,36.827,20.720,11.960,48.122,23.578,-13.600,47.347,23.984,8.871,36.635,23.986
Mon Dec 02 20:47:36 2024,60,-20.322,20.322,16.262,16.262,5.302,36.480,20.532,11.541,47.221,22.973,-13.030,46.510,24.336,9.071,35.963,23.580
Mon Dec 02 20:47:36 2024,65,-20.261,20.261,16.380,16.380,5.170,36.118,20.327,11.117,46.314,22.360,-12.357,45.590,24.697,9.285,35.334,23.189
Mon Dec 02 20:47:36 2024,70,-20.209,20.209,16.485,16.485,5.052,35.797,20.147,10.741,45.510,21.814,-11.739,44.739,25.005,9.468,34.803,22.853
Mon Dec 02 20:47:36 2024,75,-20.616,20.616,16.271,16.271,4.806,35.986,20.212,10.219,44.997,21.038,-9.023,42.968,25.456,10.203,35.121,22.302
Mon Dec 02 20:47:36 2024,80,-20.808,20.808,16.191,16.191,4.631,35.983,20.182,9.813,44.496,20.497,-7.320,41.789,25.705,10.630,35.180,21.961
Mon Dec 02 20:47:36 2024,85,-20.695,20.695,16.279,16.279,4.153,35.336,19.703,8.715,43.345,20.157,-5.548,40.544,26.197,10.921,35.327,22.361
Mon Dec 02 20:47:36 2024,90,-20.614,20.614,16.346,16.346,3.809,34.868,19.357,7.927,42.520,19.922,-4.238,39.694,26.533,11.134,35.440,22.655
Mon Dec 02 20:47:36 2024,95,-20.619,20.619,16.336,16.336,3.466,34.555,19.203,7.208,41.549,19.812,-1.586,41.123,28.264,11.550,35.728,23.242
Mon Dec 02 20:47:36 2024,100,-20.942,20.942,16.016,16.016,3.065,34.785,19.753,6.612,39.823,20.114,6.613,51.322,35.691,12.799,36.713,25.037
Mon Dec 02 20:47:36 2024,105,-21.151,21.151,15.838,15.838,3.003,34.502,20.016,6.782,39.370,20.116,8.770,54.481,37.118,13.443,37.396,25.908
Mon Dec 02 20:47:36 2024,110,-21.495,21.495,15.578,15.578,3.212,33.784,20.452,7.887,39.671,20.028,8.515,55.507,37.618,14.213,38.443,26.874
Mon Dec 02 20:47:36 2024,115,-21.777,21.777,15.371,15.371,3.375,33.193,20.818,8.805,39.940,19.963,8.360,56.262,37.848,14.874,39.326,27.710
Mon Dec 02 20:47:36 2024,120,-21.533,21.533,15.324,15.324,4.042,33.443,20.543,9.047,38.864,19.863,7.588,52.682,35.000,14.366,39.532,27.343
Mon Dec 02 20:47:36 2024,125,-21.421,21.421,15.269,15.269,4.473,33.530,20.422,9.311,38.264,19.806,7.149,50.686,33.453,14.142,39.804,27.232
Mon Dec 02 20:47:36 2024,130,-21.223,21.223,15.090,15.090,4.803,33.550,20.083,9.360,37.285,19.252,6.383,48.444,31.090,14.177,40.151,27.352
Mon Dec 02 20:47:36 2024,135,-21.061,21.061,14.931,14.931,5.010,33.550,19.788,9.342,36.512,18.736,5.784,46.820,29.259,14.267,40.415,27.507
Mon Dec 02 20:47:36 2024,140,-20.894,20.894,14.833,14.833,5.193,33.492,19.531,9.454,36.237,18.353,5.265,45.467,27.386,14.590,40.997,27.657
