Timestamp,Millis,thumb_tm_aa,thumb_tm_flex,thumb_mcp_aa,thumb_mcp_flex,index_mcp_aa,index_mcp_flex,index_pip,middle_mcp_aa,middle_mcp_flex,middle_pip,ring_mcp_aa,ring_mcp_flex,ring_pip,little_mcp_aa,little_mcp_flex,little_pip
Mon Dec 02 20:58:07 2024,535,-27.662,-27.662,4.214,4.214,-1.486,21.511,7.507,2.279,16.398,9.778,-5.291,10.693,6.352,12.710,5.273,4.932
Mon Dec 02 20:58:07 2024,540,-27.629,-27.629,4.191,4.191,-1.471,21.505,7.534,2.300,16.380,9.810,-5.254,10.740,6.360,12.688,5.287,4.874
Mon Dec 02 20:58:07 2024,545,-27.591,-27.591,4.165,4.165,-1.453,18.507,7.557,2.323,16.377,9.844,-5.221,10.794,6.374,12.668,5.304,4.829
Mon Dec 02 20:58:07 2024,550,-27.560,-27.560,4.140,4.140,-1.434,21.460,7.548,2.330,16.433,9.865,-5.230,10.848,6.406,12.672,5.324,4.872
Mon Dec 02 20:58:07 2024,555,-27.528,-27.528,4.116,4.116,-1.414,21.427,7.538,2.338,16.492,9.887,-5.240,10.904,6.441,12.676,5.345,4.917
Mon Dec 02 20:58:07 2024,560,-27.556,-27.556,4.143,4.143,-1.417,21.431,7.572,2.293,16.515,9.944,-5.247,10.924,6.509,12.741,5.336,5.020
Mon Dec 02 20:58:07 2024,565,-27.606,-27.606,4.188,4.188,-1.428,21.445,7.624,2.228,16.530,10.018,-5.254,10.937,6.595,12.834,5.316,5.155
Mon Dec 02 20:58:07 2024,570,-27.641,-27.641,4.213,4.213,-1.438,21.465,7.630,2.184,16.521,10.037,-5.236,10.979,6.649,12.903,5.283,5.223
Mon Dec 02 20:58:07 2024,575,-27.648,-27.648,4.197,4.197,-1.443,18.501,7.560,2.185,16.475,9.960,-5.182,11.062,6.638,12.921,5.238,5.168
Mon Dec 02 20:58:07 2024,580,-27.655,-27.655,4.177,4.177,-1.447,18.459,7.490,2.188,16.428,9.884,-5.124,11.153,6.629,12.942,5.188,5.110
Mon Dec 02 20:58:07 2024,585,-27.655,-27.655,4.138,4.138,-1.411,18.523,7.593,2.228,16.490,10.001,-5.115,11.201,6.676,12.969,5.198,5.134
Mon Dec 02 20:58:07 2024,590,-27.654,-27.654,4.098,4.098,-1.370,19.986,7.724,2.272,16.564,10.146,-5.116,11.238,6.730,12.994,5.216,5.173
Mon Dec 02 20:58:07 2024,595,-27.642,-27.642,4.066,4.066,-1.366,21.389,7.761,2.270,16.555,10.154,-5.100,11.279,6.753,12.990,5.228,5.189
Mon Dec 02 20:58:07 2024,600,-27.623,-27.623,4.038,4.038,-1.390,21.414,7.726,2.232,16.481,10.055,-5.069,11.326,6.752,12.960,5.234,5.188
Mon Dec 02 20:58:07 2024,605,-27.613,-27.613,4.035,4.035,-1.401,21.425,7.712,2.205,16.433,9.992,-5.056,11.345,6.748,12.945,5.231,5.190
Mon Dec 02 20:58:07 2024,610,-27.630,-27.630,4.099,4.099,-1.374,21.396,7.749,2.203,16.462,10.025,-5.095,11.286,6.738,12.967,5.201,5.202
Mon Dec 02 20:58:07 2024,615,-27.650,-27.650,4.171,4.171,-1.343,21.362,7.790,2.206,16.499,10.067,-5.139,11.218,6.725,12.991,5.170,5.214
Mon Dec 02 20:58:07 2024,620,-27.639,-27.639,4.162,4.162,-1.342,21.361,7.735,2.220,16.506,10.061,-5.135,11.206,6.700,12.948,5.226,5.176
Mon Dec 02 20:58:07 2024,625,-27.612,-27.612,4.115,4.115,-1.357,21.376,7.630,2.240,16.498,10.029,-5.106,11.222,6.669,12.868,5.327,5.114
Mon Dec 02 20:58:07 2024,630,-27.600,-27.600,4.097,4.097,-1.368,21.390,7.592,2.250,16.498,10.026,-5.082,11.244,6.666,12.822,5.382,5.092
Mon Dec 02 20:58:07 2024,635,-27.610,-27.610,4.130,4.130,-1.375,21.402,7.662,2.243,16.509,10.070,-5.067,11.277,6.708,12.831,5.361,5.137
Mon Dec 02 20:58:07 2024,640,-27.624,-27.624,4.151,4.151,-1.369,21.398,7.736,2.243,16.517,10.112,-5.049,11.312,6.749,12.856,5.333,5.185
Mon Dec 02 20:58:07 2024,645,-27.641,-27.641,4.107,4.107,-1.318,21.331,7.766,2.274,16.505,10.117,-5.031,11.329,6.754,12.924,5.298,5.208
Mon Dec 02 20:58:07 2024,650,-27.655,-27.655,4.051,4.051,-1.261,21.265,7.777,2.309,16.490,10.109,-5.015,11.338,6.746,12.992,5.267,5.219
Mon Dec 02 20:58:07 2024,655,-27.667,-27.667,4.026,4.026,-1.272,21.275,7.733,2.316,16.504,10.065,-5.028,11.280,6.670,12.961,5.269,5.142
Mon Dec 02 20:58:07 2024,660,-27.671,-27.671,4.042,4.042,-1.351,21.365,7.642,2.292,16.546,9.995,-5.067,11.167,6.542,12.829,5.304,4.991
Mon Dec 02 20:58:07 2024,665,-27.671,-27.671,4.052,4.052,-1.408,21.432,7.584,2.276,16.582,9.940,-5.094,11.088,6.440,12.720,5.331,4.866
Mon Dec 02 20:58:07 2024,670,-27.653,-27.653,4.042,4.042,-1.360,21.370,7.668,2.295,16.579,9.962,-5.062,11.176,6.477,12.732,5.324,4.876
Mon Dec 02 20:58:07 2024,675,-27.636,-27.636,4.030,4.030,-1.309,21.311,7.754,2.314,16.574,9.986,-5.028,11.264,6.518,12.750,5.318,4.892
Mon Dec 02 20:58:07 2024,680,-27.660,-27.660,4.071,4.071,-1.314,21.315,7.811,2.313,16.608,10.113,-5.041,11.260,6.575,12.754,5.370,4.950
Mon Dec 02 20:58:07 2024,685,-27.691,-27.691,4.120,4.120,-1.335,21.340,7.842,2.304,16.646,10.242,-5.066,11.228,6.624,12.753,5.430,5.006
Mon Dec 02 20:58:07 2024,690,-27.710,-27.710,4.140,4.140,-1.355,21.363,7.860,2.288,16.675,10.302,-5.089,11.201,6.632,12.770,5.464,5.038
Mon Dec 02 20:58:07 2024,695,-27.696,-27.696,4.092,4.092,-1.363,21.368,7.838,2.262,16.671,10.189,-5.101,11.198,6.554,12.817,5.434,4.998
Mon Dec 02 20:58:07 2024,700,-27.686,-27.686,4.053,4.053,-1.376,21.381,7.813,2.235,16.672,10.099,-5.115,11.196,6.496,12.849,5.416,4.969
Mon Dec 02 20:58:07 2024,705,-27.698,-27.698,4.064,4.064,-1.426,21.437,7.750,2.181,16.701,10.120,-5.145,11.198,6.539,12.796,5.481,5.003
Mon Dec 02 20:58:07 2024,710,-27.715,-27.715,4.086,4.086,-1.478,21.497,7.688,2.129,16.733,10.167,-5.175,11.201,6.602,12.727,5.558,5.047
Mon Dec 02 20:58:07 2024,715,-27.711,-27.711,4.087,4.087,-1.500,21.520,7.672,2.099,16.768,10.179,-5.136,11.299,6.643,12.723,5.570,5.066
Mon Dec 02 20:58:07 2024,720,-27.685,-27.685,4.062,4.062,-1.486,21.496,7.710,2.100,16.799,10.149,-5.030,11.479,6.651,12.790,5.510,5.052
Mon Dec 02 20:58:07 2024,725,-27.665,-27.665,4.048,4.048,-1.473,21.477,7.744,2.106,16.831,10.142,-4.970,11.592,6.656,12.844,5.468,5.048
Mon Dec 02 20:58:07 2024,730,-27.657,-27.657,4.067,4.067,-1.459,21.464,7.770,2.129,16.872,10.221,-5.068,11.482,6.652,12.861,5.488,5.080
Mon Dec 02 20:58:07 2024,735,-27.648,-27.648,4.091,4.091,-1.442,21.449,7.802,2.158,16.920,10.316,-5.186,11.348,6.646,12.882,5.513,5.119
Mon Dec 02 20:58:07 2024,740,-27.690,-27.690,4.145,4.145,-1.464,21.477,7.804,2.091,16.880,10.278,-5.217,11.307,6.665,12.860,5.507,5.153
Mon Dec 02 20:58:07 2024,745,-27.737,-27.737,4.199,4.199,-1.490,21.513,7.802,2.013,16.821,10.220,-5.230,11.288,6.687,12.832,5.495,5.182
Mon Dec 02 20:58:07 2024,750,-27.763,-27.763,4.220,4.220,-1.519,21.550,7.774,1.956,16.793,10.174,-5.227,11.306,6.702,12.801,5.501,5.187
Mon Dec 02 20:58:07 2024,755,-27.742,-27.742,4.174,4.174,-1.543,21.575,7.713,1.954,16.836,10.165,-5.199,11.384,6.701,12.776,5.533,5.146
Mon Dec 02 20:58:07 2024,760,-27.718,-27.718,4.126,4.126,-1.562,21.592,7.664,1.958,16.881,10.163,-5.174,11.463,6.701,12.754,5.565,5.108
Mon Dec 02 20:58:07 2024,765,-27.672,-27.672,4.085,4.085,-1.526,21.532,7.746,2.009,16.929,10.229,-5.194,11.517,6.716,12.784,5.571,5.120
Mon Dec 02 20:58:07 2024,770,-27.627,-27.627,4.050,4.050,-1.483,21.483,7.844,2.063,16.969,10.301,-5.221,11.562,6.730,12.819,5.572,5.139
Mon Dec 02 20:58:07 2024,775,-27.639,-27.639,4.069,4.069,-1.466,21.467,7.874,2.087,16.986,10.352,-5.218,11.533,6.725,12.781,5.571,5.106
Mon Dec 02 20:58:07 2024,780,-27.683,-27.683,4.117,4.117,-1.468,21.467,7.860,2.092,16.989,10.386,-5.199,11.466,6.709,12.707,5.569,5.048
Mon Dec 02 20:58:07 2024,785,-27.718,-27.718,4.142,4.142,-1.475,21.479,7.836,2.096,16.988,10.397,-5.189,11.404,6.685,12.661,5.554,4.999
Mon Dec 02 20:58:07 2024,790,-27.718,-27.718,4.102,4.102,-1.495,21.500,7.794,2.094,16.980,10.344,-5.204,11.384,6.653,12.710,5.513,4.997
Mon Dec 02 20:58:07 2024,795,-27.713,-27.713,4.051,4.051,-1.519,21.524,7.745,2.091,16.969,10.280,-5.223,11.367,6.617,12.773,5.467,5.000
Mon Dec 02 20:58:07 2024,800,-27.734,-27.734,4.138,4.138,-1.482,21.482,7.843,2.171,17.005,10.382,-5.191,11.489,6.699,12.863,5.434,5.074
Mon Dec 02 20:58:07 2024,805,-27.760,-27.760,4.244,4.244,-1.438,21.442,7.960,2.262,17.038,10.508,-5.151,11.629,6.797,12.951,5.405,5.156
Mon Dec 02 20:58:07 2024,810,-27.754,-27.754,4.233,4.233,-1.448,21.452,7.976,2.271,17.080,10.556,-5.138,11.670,6.836,12.972,5.408,5.192
Mon Dec 02 20:58:07 2024,815,-27.717,-27.717,4.105,4.105,-1.512,21.511,7.889,2.197,17.132,10.523,-5.151,11.608,6.812,12.925,5.445,5.178
Mon Dec 02 20:58:07 2024,820,-27.690,-27.690,4.004,4.004,-1.562,21.564,7.820,2.134,17.170,10.492,-5.180,11.531,6.779,12.870,5.487,5.159
Mon Dec 02 20:58:07 2024,825,-27.694,-27.694,3.999,3.999,-1.566,21.566,7.819,2.116,17.158,10.475,-5.251,11.430,6.724,12.806,5.533,5.128
Mon Dec 02 20:58:07 2024,830,-27.710,-27.710,4.036,4.036,-1.548,21.548,7.848,2.120,17.128,10.468,-5.327,11.335,6.670,12.751,5.573,5.099
Mon Dec 02 20:58:07 2024,835,-27.705,-27.705,4.085,4.085,-1.510,21.509,7.818,2.127,17.148,10.438,-5.318,11.317,6.622,12.689,5.614,5.049
Mon Dec 02 20:58:07 2024,840,-27.689,-27.689,4.123,4.123,-1.473,21.472,7.764,2.134,17.191,10.405,-5.261,11.353,6.594,12.649,5.639,5.006
Mon Dec 02 20:58:07 2024,845,-27.678,-27.678,4.146,4.146,-1.443,21.442,7.722,2.138,17.228,10.373,-5.210,11.409,6.575,12.640,5.648,4.972
Mon Dec 02 20:58:07 2024,850,-27.685,-27.685,4.108,4.108,-1.454,21.454,7.741,2.129,17.233,10.366,-5.209,11.507,6.594,12.743,5.595,4.989
Mon Dec 02 20:58:07 2024,855,-27.692,-27.692,4.072,4.072,-1.464,21.467,7.759,2.120,17.238,10.359,-5.208,11.600,6.612,12.841,5.544,5.006
Mon Dec 02 20:58:07 2024,860,-27.726,-27.726,4.133,4.133,-1.487,21.488,7.791,2.105,17.227,10.398,-5.240,11.550,6.648,12.844,5.555,5.054
Mon Dec 02 20:58:07 2024,865,-27.767,-27.767,4.220,4.220,-1.513,21.512,7.823,2.089,17.211,10.450,-5.281,11.457,6.688,12.816,5.586,5.109
Mon Dec 02 20:58:07 2024,870,-27.765,-27.765,4.215,4.215,-1.511,21.512,7.833,2.064,17.187,10.455,-5.289,11.439,6.722,12.825,5.597,5.165
Mon Dec 02 20:58:07 2024,875,-27.721,-27.721,4.122,4.122,-1.483,21.483,7.819,2.037,17.161,10.415,-5.264,11.498,6.744,12.866,5.584,5.208
Mon Dec 02 20:58:07 2024,880,-27.684,-27.684,4.049,4.049,-1.462,21.461,7.803,2.024,17.140,10.377,-5.237,11.551,6.754,12.898,5.571,5.231
Mon Dec 02 20:58:07 2024,885,-27.671,-27.671,4.067,4.067,-1.465,21.466,7.757,2.096,17.154,10.322,-5.180,11.607,6.681,12.893,5.549,5.125
Mon Dec 02 20:58:07 2024,890,-27.665,-27.665,4.095,4.095,-1.472,21.474,7.718,2.162,17.164,10.280,-5.133,11.649,6.614,12.883,5.530,5.028
Mon Dec 02 20:58:07 2024,895,-27.648,-27.648,4.100,4.100,-1.463,21.468,7.721,2.156,17.152,10.287,-5.147,11.613,6.612,12.847,5.531,4.999
Mon Dec 02 20:58:07 2024,900,-27.627,-27.627,4.087,4.087,-1.445,21.452,7.756,2.094,17.125,10.330,-5.205,11.528,6.660,12.801,5.548,5.031
Mon Dec 02 20:58:07 2024,905,-27.626,-27.626,4.099,4.099,-1.441,21.447,7.779,2.053,17.123,10.368,-5.234,11.499,6.707,12.790,5.563,5.072
Mon Dec 02 20:58:07 2024,910,-27.694,-27.694,4.197,4.197,-1.487,21.487,7.766,2.083,17.216,10.383,-5.156,11.669,6.740,12.896,5.577,5.145
Mon Dec 02 20:58:07 2024,915,-27.745,-27.745,4.273,4.273,-1.520,21.524,7.764,2.105,17.280,10.398,-5.098,11.804,6.771,12.983,5.580,5.208
Mon Dec 02 20:58:07 2024,920,-27.729,-27.729,4.272,4.272,-1.497,21.504,7.814,2.097,17.260,10.416,-5.110,11.806,6.796,12.996,5.554,5.234
Mon Dec 02 20:58:07 2024,925,-27.693,-27.693,4.243,4.243,-1.457,21.464,7.875,2.081,17.212,10.432,-5.144,11.761,6.816,12.982,5.522,5.245
Mon Dec 02 20:58:07 2024,930,-27.661,-27.661,4.218,4.218,-1.412,21.417,7.914,2.088,17.140,10.427,-5.149,11.741,6.820,12.934,5.502,5.195
Mon Dec 02 20:58:07 2024,935,-27.640,-27.640,4.204,4.204,-1.366,21.369,7.916,2.128,17.048,10.394,-5.110,11.758,6.801,12.846,5.500,5.069
Mon Dec 02 20:58:07 2024,940,-27.618,-27.618,4.191,4.191,-1.334,21.335,7.928,2.164,16.985,10.385,-5.091,11.760,6.792,12.787,5.497,4.981
Mon Dec 02 20:58:07 2024,945,-27.612,-27.612,4.192,4.192,-1.376,21.377,7.964,2.161,17.065,10.476,-5.153,11.714,6.822,12.868,5.498,5.083
Mon Dec 02 20:58:07 2024,950,-27.607,-27.607,4.196,4.196,-1.425,21.427,8.002,2.154,17.158,10.578,-5.224,11.662,6.856,12.965,5.498,5.207
Mon Dec 02 20:58:07 2024,955,-27.599,-27.599,4.213,4.213,-1.430,21.437,7.997,2.156,17.178,10.580,-5.214,11.660,6.857,12.987,5.511,5.234
Mon Dec 02 20:58:07 2024,960,-27.591,-27.591,4.235,4.235,-1.411,21.428,7.971,2.161,17.158,10.530,-5.164,11.685,6.841,12.967,5.530,5.206
Mon Dec 02 20:58:07 2024,965,-27.583,-27.583,4.228,4.228,-1.394,21.425,7.970,2.174,17.140,10.513,-5.123,11.721,6.843,12.952,5.540,5.189
Mon Dec 02 20:58:07 2024,970,-27.574,-27.574,4.142,4.142,-1.386,21.429,8.043,2.208,17.134,10.590,-5.113,11.790,6.892,12.950,5.528,5.203
Mon Dec 02 20:58:07 2024,975,-27.570,-27.570,4.081,4.081,-1.382,21.434,8.100,2.229,17.128,10.649,-5.108,11.843,6.935,12.948,5.520,5.218
Mon Dec 02 20:58:07 2024,980,-27.583,-27.583,4.099,4.099,-1.403,21.446,8.130,2.184,17.126,10.669,-5.121,11.879,7.000,12.953,5.539,5.265
Mon Dec 02 20:58:07 2024,985,-27.593,-27.593,4.142,4.142,-1.408,21.448,8.134,2.164,17.136,10.671,-5.126,11.911,7.026,12.971,5.541,5.278
Mon Dec 02 20:58:07 2024,990,-27.603,-27.603,4.184,4.184,-1.414,21.450,8.138,2.143,17.146,10.673,-5.131,11.943,7.052,12.990,5.543,5.290
Mon Dec 02 20:58:07 2024,995,-27.597,-27.597,4.219,4.219,-1.385,21.434,8.125,2.194,17.175,10.676,-5.112,11.989,7.020,13.028,5.508,5.240
Mon Dec 02 20:58:08 2024,0,-27.589,-27.589,4.233,4.233,-1.359,21.422,8.104,2.245,17.201,10.676,-5.088,12.023,6.977,13.057,5.472,5.188
Mon Dec 02 20:58:08 2024,5,-27.598,-27.598,4.215,4.215,-1.392,21.447,8.064,2.201,17.245,10.654,-5.071,12.035,6.973,13.049,5.467,5.212
Mon Dec 02 20:58:08 2024,10,-27.609,-27.609,4.206,4.206,-1.423,21.467,8.025,2.150,17.278,10.639,-5.073,12.015,6.970,13.021,5.474,5.225
Mon Dec 02 20:58:08 2024,15,-27.619,-27.619,4.218,4.218,-1.437,21.470,7.994,2.112,17.292,10.636,-5.098,11.962,6.957,12.977,5.491,5.205
Mon Dec 02 20:58:08 2024,20,-27.630,-27.630,4.267,4.267,-1.428,21.450,7.963,2.087,17.279,10.656,-5.171,11.834,6.926,12.890,5.527,5.126
Mon Dec 02 20:58:08 2024,25,-27.630,-27.630,4.286,4.286,-1.422,21.439,7.948,2.065,17.276,10.676,-5.233,11.740,6.906,12.837,5.563,5.086
Mon Dec 02 20:58:08 2024,30,-27.578,-27.578,4.162,4.162,-1.430,21.472,7.999,2.067,17.322,10.700,-5.238,11.808,6.940,12.946,5.597,5.229
Mon Dec 02 20:58:08 2024,35,-27.540,-27.540,4.072,4.072,-1.435,21.500,8.036,2.067,17.357,10.719,-5.241,11.861,6.965,13.024,5.616,5.331
Mon Dec 02 20:58:08 2024,40,-27.538,-27.538,4.072,4.072,-1.416,21.490,8.017,2.053,17.395,10.744,-5.234,11.901,6.976,13.014,5.594,5.302
Mon Dec 02 20:58:08 2024,45,-27.547,-27.547,4.101,4.101,-1.394,21.469,7.984,2.039,17.422,10.763,-5.225,11.926,6.978,12.980,5.565,5.239
Mon Dec 02 20:58:08 2024,50,-27.559,-27.559,4.134,4.134,-1.400,21.468,7.976,2.022,17.460,10.771,-5.230,11.936,6.966,12.965,5.543,5.197
Mon Dec 02 20:58:08 2024,55,-27.570,-27.570,4.162,4.162,-1.444,21.496,8.002,2.007,17.507,10.761,-5.250,11.918,6.937,12.985,5.538,5.197
Mon Dec 02 20:58:08 2024,60,-27.576,-27.576,4.181,4.181,-1.478,21.520,8.024,1.996,17.546,10.762,-5.263,11.912,6.919,13.001,5.534,5.198
Mon Dec 02 20:58:08 2024,65,-27.527,-27.527,4.123,4.123,-1.450,21.511,8.033,2.021,17.551,10.866,-5.219,11.995,6.977,13.007,5.538,5.204
Mon Dec 02 20:58:08 2024,70,-27.486,-27.486,4.076,4.076,-1.428,21.507,8.041,2.041,17.555,10.952,-5.183,12.063,7.026,13.012,5.541,5.210
Mon Dec 02 20:58:08 2024,75,-27.487,-27.487,4.148,4.148,-1.374,21.490,8.096,2.060,17.540,10.976,-5.129,12.179,7.083,13.039,5.516,5.207
Mon Dec 02 20:58:08 2024,80,-27.515,-27.515,4.285,4.285,-1.312,21.473,8.172,2.075,17.517,10.954,-5.074,12.303,7.134,13.075,5.478,5.200
Mon Dec 02 20:58:08 2024,85,-27.531,-27.531,4.385,4.385,-1.280,21.487,8.262,2.089,17.505,10.966,-5.037,12.420,7.200,13.115,5.445,5.219
Mon Dec 02 20:58:08 2024,90,-27.507,-27.507,4.336,4.336,-1.345,21.555,8.344,2.096,17.529,11.056,-5.063,12.457,7.274,13.145,5.439,5.294
Mon Dec 02 20:58:08 2024,95,-27.482,-27.482,4.285,4.285,-1.410,21.620,8.419,2.099,17.549,11.142,-5.093,12.485,7.343,13.172,5.439,5.375
Mon Dec 02 20:58:08 2024,100,-27.459,-27.459,4.246,4.246,-1.433,21.624,8.396,2.072,17.537,11.140,-5.129,12.434,7.341,13.166,5.490,5.439
Mon Dec 02 20:58:08 2024,105,-27.438,-27.438,4.211,4.211,-1.446,21.615,8.350,2.038,17.513,11.118,-5.167,12.365,7.324,13.153,5.551,5.498
Mon Dec 02 20:58:08 2024,110,-27.436,-27.436,4.199,4.199,-1.442,21.632,8.346,2.031,17.526,11.114,-5.147,12.394,7.346,13.212,5.520,5.515
Mon Dec 02 20:58:08 2024,115,-27.455,-27.455,4.219,4.219,-1.422,21.671,8.386,2.056,17.572,11.131,-5.074,12.515,7.403,13.320,5.403,5.481
Mon Dec 02 20:58:08 2024,120,-27.474,-27.474,4.236,4.236,-1.388,21.701,8.442,2.074,17.600,11.157,-5.016,12.611,7.462,13.412,5.302,5.461
Mon Dec 02 20:58:08 2024,125,-27.472,-27.472,4.232,4.232,-1.330,21.652,8.511,2.055,17.558,11.192,-5.050,12.547,7.486,13.378,5.322,5.510
Mon Dec 02 20:58:08 2024,130,-27.469,-27.469,4.224,4.224,-1.273,21.594,8.578,2.032,17.505,11.228,-5.092,12.468,7.504,13.331,5.355,5.563
Mon Dec 02 20:58:08 2024,135,-27.504,-27.504,4.312,4.312,-1.292,21.575,8.560,1.988,17.506,11.188,-5.143,12.367,7.444,13.282,5.381,5.578
Mon Dec 02 20:58:08 2024,140,-27.554,-27.554,4.435,4.435,-1.348,21.582,8.500,1.938,17.536,11.114,-5.190,12.270,7.355,13.240,5.399,5.571
Mon Dec 02 20:58:08 2024,145,-27.572,-27.572,4.498,4.498,-1.374,21.584,8.452,1.923,17.566,11.069,-5.215,12.220,7.290,13.200,5.409,5.543
Mon Dec 02 20:58:08 2024,150,-27.503,-27.503,4.391,4.391,-1.313,21.563,8.444,1.997,17.587,11.106,-5.183,12.299,7.301,13.171,5.396,5.461
Mon Dec 02 20:58:08 2024,155,-27.451,-27.451,4.307,4.307,-1.265,21.549,8.440,2.054,17.595,11.136,-5.156,12.362,7.312,13.151,5.385,5.400
Mon Dec 02 20:58:08 2024,160,-27.433,-27.433,4.298,4.298,-1.253,21.560,8.431,2.050,17.607,11.122,-5.158,12.388,7.312,13.181,5.371,5.395
Mon Dec 02 20:58:08 2024,165,-27.421,-27.421,4.305,4.305,-1.249,21.575,8.421,2.032,17.620,11.099,-5.168,12.407,7.310,13.222,5.355,5.402
Mon Dec 02 20:58:08 2024,170,-27.435,-27.435,4.324,4.324,-1.233,21.581,8.466,2.029,17.590,11.106,-5.157,12.419,7.342,13.238,5.352,5.432
Mon Dec 02 20:58:08 2024,175,-27.470,-27.470,4.348,4.348,-1.203,21.576,8.560,2.045,17.515,11.146,-5.126,12.427,7.403,13.227,5.360,5.480
Mon Dec 02 20:58:08 2024,180,-27.501,-27.501,4.369,4.369,-1.186,21.583,8.647,2.065,17.464,11.208,-5.098,12.442,7.475,13.228,5.361,5.532
Mon Dec 02 20:58:08 2024,185,-27.502,-27.502,4.363,4.363,-1.218,21.619,8.662,2.083,17.512,11.291,-5.098,12.466,7.531,13.262,5.338,5.570
Mon Dec 02 20:58:08 2024,190,-27.499,-27.499,4.354,4.354,-1.256,21.661,8.668,2.103,17.572,11.383,-5.101,12.494,7.588,13.303,5.312,5.609
Mon Dec 02 20:58:08 2024,195,-27.483,-27.483,4.340,4.340,-1.279,21.624,8.615,2.125,17.556,11.412,-5.139,12.406,7.603,13.277,5.340,5.645
Mon Dec 02 20:58:08 2024,200,-27.464,-27.464,4.327,4.327,-1.288,21.561,8.543,2.143,17.509,11.404,-5.186,12.279,7.594,13.223,5.388,5.672
Mon Dec 02 20:58:08 2024,205,-27.462,-27.462,4.309,4.309,-1.288,21.527,8.489,2.152,17.483,11.361,-5.216,12.196,7.544,13.200,5.388,5.640
Mon Dec 02 20:58:08 2024,210,-27.472,-27.472,4.288,4.288,-1.281,21.515,8.453,2.153,17.477,11.292,-5.230,12.153,7.462,13.202,5.348,5.561
Mon Dec 02 20:58:08 2024,215,-27.491,-27.491,4.264,4.264,-1.270,21.512,8.422,2.149,17.478,11.208,-5.239,12.123,7.363,13.214,5.290,5.460
Mon Dec 02 20:58:08 2024,220,-27.451,-27.451,4.236,4.236,-1.202,21.515,8.442,2.176,17.459,11.171,-5.194,12.181,7.361,13.262,5.288,5.487
Mon Dec 02 20:58:08 2024,225,-27.407,-27.407,4.214,4.214,-1.137,21.528,8.469,2.203,17.441,11.153,-5.147,12.245,7.381,13.306,5.299,5.537
Mon Dec 02 20:58:08 2024,230,-27.410,-27.410,4.225,4.225,-1.127,21.559,8.511,2.204,17.431,11.151,-5.097,12.301,7.424,13.365,5.286,5.604
Mon Dec 02 20:58:08 2024,235,-27.452,-27.452,4.264,4.264,-1.166,21.591,8.554,2.181,17.430,11.163,-5.060,12.334,7.475,13.422,5.256,5.669
Mon Dec 02 20:58:08 2024,240,-27.485,-27.485,4.303,4.303,-1.196,21.624,8.597,2.162,17.430,11.181,-5.033,12.371,7.523,13.459,5.238,5.719
Mon Dec 02 20:58:08 2024,245,-27.489,-27.489,4.352,4.352,-1.203,21.676,8.653,2.148,17.439,11.222,-5.043,12.431,7.570,13.437,5.261,5.728
Mon Dec 02 20:58:08 2024,250,-27.488,-27.488,4.401,4.401,-1.204,21.728,8.709,2.136,17.449,11.264,-5.057,12.492,7.614,13.405,5.290,5.728
Mon Dec 02 20:58:08 2024,255,-27.470,-27.470,4.360,4.360,-1.220,21.720,8.681,2.119,17.456,11.282,-5.078,12.461,7.597,13.378,5.315,5.706
Mon Dec 02 20:58:08 2024,260,-27.442,-27.442,4.268,4.268,-1.246,21.683,8.609,2.097,17.464,11.289,-5.105,12.382,7.548,13.350,5.340,5.671
Mon Dec 02 20:58:08 2024,265,-27.415,-27.415,4.210,4.210,-1.270,21.671,8.574,2.075,17.459,11.276,-5.135,12.318,7.508,13.315,5.359,5.631
Mon Dec 02 20:58:08 2024,270,-27.395,-27.395,4.222,4.222,-1.286,21.700,8.610,2.058,17.433,11.229,-5.163,12.292,7.492,13.276,5.361,5.589
Mon Dec 02 20:58:08 2024,275,-27.377,-27.377,4.235,4.235,-1.290,21.711,8.644,2.055,17.403,11.198,-5.180,12.263,7.476,13.245,5.351,5.548
Mon Dec 02 20:58:08 2024,280,-27.370,-27.370,4.248,4.248,-1.252,21.659,8.660,2.104,17.368,11.230,-5.152,12.230,7.468,13.252,5.304,5.528
Mon Dec 02 20:58:08 2024,285,-27.368,-27.368,4.260,4.260,-1.205,21.597,8.669,2.155,17.338,11.266,-5.116,12.210,7.463,13.268,5.256,5.517
Mon Dec 02 20:58:08 2024,290,-27.372,-27.372,4.268,4.268,-1.159,21.559,8.690,2.173,17.315,11.266,-5.089,12.235,7.460,13.276,5.228,5.508
Mon Dec 02 20:58:08 2024,295,-27.389,-27.389,4.269,4.269,-1.115,21.573,8.737,2.119,17.307,11.181,-5.082,12.360,7.457,13.263,5.244,5.503
Mon Dec 02 20:58:08 2024,300,-27.396,-27.396,4.261,4.261,-1.087,21.590,8.760,2.082,17.311,11.135,-5.064,12.466,7.469,13.272,5.253,5.512
Mon Dec 02 20:58:08 2024,305,-27.366,-27.366,4.216,4.216,-1.122,21.606,8.689,2.116,17.370,11.242,-5.002,12.499,7.538,13.364,5.226,5.577
Mon Dec 02 20:58:08 2024,310,-27.342,-27.342,4.180,4.180,-1.152,21.621,8.632,2.146,17.412,11.335,-4.954,12.514,7.592,13.442,5.198,5.629
Mon Dec 02 20:58:08 2024,315,-27.354,-27.354,4.206,4.206,-1.164,21.624,8.648,2.164,17.394,11.354,-4.984,12.428,7.558,13.450,5.164,5.600
Mon Dec 02 20:58:08 2024,320,-27.385,-27.385,4.264,4.264,-1.161,21.621,8.706,2.169,17.344,11.325,-5.058,12.290,7.478,13.414,5.130,5.528
Mon Dec 02 20:58:08 2024,325,-27.400,-27.400,4.284,4.284,-1.150,21.614,8.742,2.172,17.322,11.321,-5.097,12.233,7.447,13.401,5.117,5.499
Mon Dec 02 20:58:08 2024,330,-27.388,-27.388,4.236,4.236,-1.121,21.600,8.748,2.166,17.348,11.364,-5.077,12.321,7.504,13.430,5.147,5.547
Mon Dec 02 20:58:08 2024,335,-27.379,-27.379,4.200,4.200,-1.098,21.589,8.756,2.162,17.370,11.398,-5.062,12.388,7.549,13.450,5.168,5.584
Mon Dec 02 20:58:08 2024,340,-27.397,-27.397,4.222,4.222,-1.092,21.592,8.808,2.162,17.367,11.401,-5.086,12.356,7.542,13.431,5.156,5.590
Mon Dec 02 20:58:08 2024,345,-27.422,-27.422,4.258,4.258,-1.091,21.600,8.870,2.164,17.358,11.398,-5.117,12.302,7.522,13.402,5.138,5.587
Mon Dec 02 20:58:08 2024,350,-27.430,-27.430,4.267,4.267,-1.056,21.633,8.887,2.218,17.360,11.468,-5.088,12.311,7.549,13.440,5.096,5.618
Mon Dec 02 20:58:08 2024,355,-27.423,-27.423,4.254,4.254,-1.009,21.678,8.865,2.293,17.361,11.572,-5.024,12.362,7.602,13.515,5.051,5.665
Mon Dec 02 20:58:08 2024,360,-27.420,-27.420,4.221,4.221,-0.992,21.689,8.831,2.319,17.360,11.596,-5.003,12.371,7.616,13.528,5.036,5.666
Mon Dec 02 20:58:08 2024,365,-27.422,-27.422,4.179,4.179,-1.021,21.648,8.794,2.275,17.362,11.514,-5.045,12.323,7.574,13.457,5.065,5.610
Mon Dec 02 20:58:08 2024,370,-27.427,-27.427,4.121,4.121,-1.076,21.585,8.748,2.192,17.358,11.369,-5.120,12.243,7.500,13.337,5.115,5.518
Mon Dec 02 20:58:08 2024,375,-27.421,-27.421,4.115,4.115,-1.051,21.537,8.734,2.189,17.316,11.343,-5.122,12.207,7.488,13.317,5.127,5.517
Mon Dec 02 20:58:08 2024,380,-27.411,-27.411,4.131,4.131,-0.994,21.501,8.736,2.222,17.268,11.372,-5.090,12.195,7.504,13.345,5.120,5.555
Mon Dec 02 20:58:08 2024,385,-27.407,-27.407,4.148,4.148,-0.965,21.487,8.738,2.243,17.249,11.402,-5.062,12.210,7.515,13.375,5.121,5.586
Mon Dec 02 20:58:08 2024,390,-27.419,-27.419,4.165,4.165,-1.025,21.537,8.739,2.227,17.324,11.433,-5.046,12.308,7.508,13.414,5.143,5.598
Mon Dec 02 20:58:08 2024,395,-27.429,-27.429,4.181,4.181,-1.079,21.584,8.739,2.213,17.389,11.462,-5.032,12.396,7.501,13.449,5.163,5.609
Mon Dec 02 20:58:08 2024,400,-27.400,-27.400,4.133,4.133,-1.067,21.601,8.761,2.209,17.367,11.431,-5.020,12.385,7.518,13.403,5.168,5.579
Mon Dec 02 20:58:08 2024,405,-27.367,-27.367,4.079,4.079,-1.047,21.616,8.785,2.206,17.335,11.395,-5.009,12.364,7.537,13.349,5.171,5.544
Mon Dec 02 20:58:08 2024,410,-27.355,-27.355,4.075,4.075,-1.034,21.650,8.811,2.187,17.327,11.418,-5.005,12.387,7.590,13.334,5.213,5.589
Mon Dec 02 20:58:08 2024,415,-27.363,-27.363,4.106,4.106,-1.031,21.684,8.829,2.165,17.338,11.474,-5.007,12.433,7.649,13.351,5.266,5.674
Mon Dec 02 20:58:08 2024,420,-27.374,-27.374,4.144,4.144,-1.029,21.719,8.853,2.142,17.348,11.531,-5.005,12.483,7.713,13.367,5.317,5.761
Mon Dec 02 20:58:08 2024,425,-27.417,-27.417,4.198,4.198,-1.047,21.686,8.911,2.151,17.324,11.528,-4.963,12.514,7.743,13.347,5.280,5.741
Mon Dec 02 20:58:08 2024,430,-27.457,-27.457,4.247,4.247,-1.064,21.657,8.964,2.160,17.301,11.525,-4.924,12.541,7.771,13.329,5.245,5.722
Mon Dec 02 20:58:08 2024,435,-27.435,-27.435,4.234,4.234,-1.019,21.639,8.939,2.190,17.265,11.466,-4.928,12.504,7.686,13.307,5.217,5.625
Mon Dec 02 20:58:08 2024,440,-27.386,-27.386,4.192,4.192,-0.945,21.627,8.880,2.229,17.220,11.383,-4.950,12.437,7.547,13.282,5.190,5.491
Mon Dec 02 20:58:08 2024,445,-27.369,-27.369,4.178,4.178,-0.890,21.650,8.845,2.271,17.209,11.345,-4.956,12.417,7.478,13.282,5.188,5.433
Mon Dec 02 20:58:08 2024,450,-27.387,-27.387,4.194,4.194,-0.839,21.725,8.829,2.333,17.235,11.355,-4.944,12.451,7.473,13.314,5.219,5.453
Mon Dec 02 20:58:08 2024,455,-27.408,-27.408,4.213,4.213,-0.787,21.816,8.813,2.399,17.256,11.369,-4.930,12.490,7.473,13.352,5.252,5.481
Mon Dec 02 20:58:08 2024,460,-27.405,-27.405,4.168,4.168,-0.903,21.714,8.841,2.331,17.295,11.459,-4.929,12.492,7.564,13.326,5.281,5.547
Mon Dec 02 20:58:08 2024,465,-27.400,-27.400,4.122,4.122,-1.024,21.628,8.870,2.258,17.331,11.548,-4.929,12.491,7.656,13.297,5.308,5.611
Mon Dec 02 20:58:08 2024,470,-27.408,-27.408,4.125,4.125,-1.041,21.569,8.883,2.222,17.313,11.528,-4.933,12.493,7.668,13.318,5.269,5.620
Mon Dec 02 20:58:08 2024,475,-27.425,-27.425,4.159,4.159,-0.988,21.524,8.886,2.217,17.262,11.440,-4.939,12.497,7.625,13.367,5.194,5.592
Mon Dec 02 20:58:08 2024,480,-27.428,-27.428,4.172,4.172,-0.941,21.500,8.882,2.222,17.233,11.395,-4.930,12.499,7.598,13.414,5.129,5.568
Mon Dec 02 20:58:08 2024,485,-27.403,-27.403,4.140,4.140,-0.919,21.520,8.870,2.248,17.254,11.450,-4.896,12.497,7.607,13.442,5.103,5.556
Mon Dec 02 20:58:08 2024,490,-27.373,-27.373,4.098,4.098,-0.900,21.552,8.856,2.279,17.283,11.524,-4.856,12.492,7.623,13.466,5.084,5.547
Mon Dec 02 20:58:08 2024,495,-27.367,-27.367,4.188,4.188,-0.906,21.530,8.874,2.270,17.277,11.559,-4.837,12.487,7.668,13.462,5.088,5.593
Mon Dec 02 20:58:08 2024,500,-27.375,-27.375,4.319,4.319,-0.921,21.489,8.902,2.246,17.255,11.568,-4.832,12.481,7.716,13.445,5.103,5.656
Mon Dec 02 20:58:08 2024,505,-27.371,-27.371,4.439,4.439,-0.907,21.465,8.921,2.250,17.243,11.568,-4.831,12.489,7.730,13.440,5.111,5.680
Mon Dec 02 20:58:08 2024,510,-27.355,-27.355,4.550,4.550,-0.857,21.460,8.930,2.289,17.243,11.557,-4.835,12.514,7.703,13.448,5.113,5.660
Mon Dec 02 20:58:08 2024,515,-27.330,-27.330,4.645,4.645,-0.805,21.450,8.934,2.328,17.234,11.540,-4.837,12.529,7.668,13.448,5.116,5.632
Mon Dec 02 20:58:08 2024,520,-27.281,-27.281,4.684,4.684,-0.776,21.382,8.923,2.341,17.177,11.507,-4.832,12.490,7.641,13.399,5.130,5.611
Mon Dec 02 20:58:08 2024,525,-27.214,-27.214,4.731,4.731,-0.751,21.291,8.911,2.345,17.099,11.464,-4.824,12.435,7.614,13.330,5.151,5.590
Mon Dec 02 20:58:08 2024,530,-27.173,-27.173,4.824,4.824,-0.766,21.271,8.927,2.318,17.082,11.445,-4.818,12.434,7.616,13.298,5.178,5.593
Mon Dec 02 20:58:08 2024,535,-27.157,-27.157,4.956,4.956,-0.819,21.320,8.969,2.264,17.128,11.450,-4.816,12.487,7.646,13.307,5.206,5.619
Mon Dec 02 20:58:08 2024,540,-27.139,-27.139,5.092,5.092,-0.876,21.350,8.992,2.222,17.172,11.461,-4.827,12.508,7.674,13.308,5.240,5.657
Mon Dec 02 20:58:08 2024,545,-27.118,-27.118,5.180,5.180,-0.933,21.313,8.944,2.234,17.195,11.484,-4.873,12.418,7.683,13.288,5.280,5.720
Mon Dec 02 20:58:08 2024,550,-27.091,-27.091,5.274,5.274,-0.980,21.282,8.890,2.252,17.216,11.501,-4.918,12.329,7.678,13.264,5.318,5.766
Mon Dec 02 20:58:08 2024,555,-27.046,-27.046,5.371,5.371,-0.974,21.275,8.857,2.267,17.237,11.480,-4.925,12.320,7.630,13.245,5.331,5.715
Mon Dec 02 20:58:08 2024,560,-26.989,-26.989,5.462,5.462,-0.925,21.287,8.848,2.277,17.254,11.428,-4.900,12.379,7.548,13.232,5.322,5.585
Mon Dec 02 20:58:08 2024,565,-26.944,-26.944,5.609,5.609,-0.895,21.308,8.835,2.271,17.263,11.361,-4.877,12.430,7.499,13.242,5.315,5.530
Mon Dec 02 20:58:08 2024,570,-26.922,-26.922,5.824,5.824,-0.902,21.331,8.820,2.241,17.258,11.278,-4.859,12.460,7.513,13.289,5.314,5.602
Mon Dec 02 20:58:08 2024,575,-26.895,-26.895,6.017,6.017,-0.913,21.350,8.802,2.214,17.254,11.204,-4.849,12.484,7.520,13.317,5.318,5.656
Mon Dec 02 20:58:08 2024,580,-26.825,-26.825,6.141,6.141,-0.946,21.353,8.756,2.196,17.267,11.164,-4.878,12.478,7.482,13.245,5.363,5.609
Mon Dec 02 20:58:08 2024,585,-26.753,-26.753,6.231,6.231,-0.982,21.353,8.710,2.183,17.283,11.137,-4.914,12.464,7.438,13.156,5.411,5.541
Mon Dec 02 20:58:08 2024,590,-26.670,-26.670,6.331,6.331,-0.968,21.333,8.714,2.209,17.271,11.134,-4.917,12.439,7.394,13.118,5.423,5.487
Mon Dec 02 20:58:08 2024,595,-26.565,-26.565,6.454,6.454,-0.903,21.289,8.771,2.278,17.227,11.154,-4.888,12.399,7.344,13.128,5.398,5.437
Mon Dec 02 20:58:08 2024,600,-26.468,-26.468,6.591,6.591,-0.857,21.246,8.801,2.320,17.192,11.160,-4.868,12.358,7.306,13.127,5.377,5.395
Mon Dec 02 20:58:08 2024,605,-26.404,-26.404,6.788,6.788,-0.897,21.204,8.712,2.240,17.194,11.099,-4.894,12.317,7.322,13.074,5.368,5.385
Mon Dec 02 20:58:08 2024,610,-26.348,-26.348,6.956,6.956,-0.932,21.175,8.638,2.173,17.190,11.048,-4.916,12.282,7.334,13.030,5.360,5.376
Mon Dec 02 20:58:08 2024,615,-26.286,-26.286,7.172,7.172,-0.901,21.189,8.686,2.171,17.189,10.987,-4.890,12.338,7.323,13.019,5.369,5.374
Mon Dec 02 20:58:08 2024,620,-26.238,-26.238,7.351,7.351,-0.857,21.220,8.764,2.192,17.190,10.939,-4.855,12.411,7.306,13.021,5.381,5.374
Mon Dec 02 20:58:08 2024,625,-26.165,-26.165,7.591,7.591,-0.840,21.217,8.808,2.212,17.173,10.911,-4.823,12.459,7.296,12.995,5.428,5.376
Mon Dec 02 20:58:08 2024,630,-26.089,-26.089,7.784,7.784,-0.882,21.149,8.766,2.217,17.138,10.936,-4.817,12.433,7.305,12.932,5.505,5.382
Mon Dec 02 20:58:08 2024,635,-25.996,-25.996,8.019,8.019,-0.934,21.090,8.714,2.224,17.095,10.966,-4.808,12.401,7.316,12.855,5.599,5.389
Mon Dec 02 20:58:08 2024,640,-26.002,-26.002,8.249,8.249,-0.946,21.131,8.727,2.204,17.198,10.908,-4.768,12.573,7.305,12.914,5.562,5.348
Mon Dec 02 20:58:08 2024,645,-26.014,-26.014,8.465,8.465,-0.956,21.176,8.740,2.184,17.296,10.850,-4.730,12.741,7.294,12.975,5.522,5.308
Mon Dec 02 20:58:08 2024,650,-25.989,-25.989,8.601,8.601,-0.943,21.195,8.737,2.197,17.335,10.811,-4.658,12.882,7.307,13.038,5.489,5.293
Mon Dec 02 20:58:08 2024,655,-25.941,-25.941,8.638,8.638,-0.917,21.190,8.720,2.233,17.318,10.797,-4.582,12.962,7.334,13.085,5.471,5.300
Mon Dec 02 20:58:08 2024,660,-25.895,-25.895,8.676,8.676,-0.891,21.186,8.704,2.267,17.300,10.783,-4.507,13.043,7.363,13.131,5.453,5.308
Mon Dec 02 20:58:08 2024,665,-25.855,-25.855,8.710,8.710,-0.868,21.183,8.690,2.299,17.283,10.771,-4.440,13.115,7.388,13.172,5.437,5.315
Mon Dec 02 20:58:08 2024,670,-25.853,-25.853,8.779,8.779,-0.882,21.169,8.692,2.306,17.257,10.758,-4.438,13.084,7.380,13.173,5.453,5.349
Mon Dec 02 20:58:08 2024,675,-25.885,-25.885,8.993,8.993,-0.956,21.122,8.714,2.304,17.179,10.726,-4.495,12.907,7.328,13.137,5.524,5.463
Mon Dec 02 20:58:08 2024,680,-25.882,-25.882,9.094,9.094,-0.976,21.109,8.717,2.316,17.140,10.708,-4.492,12.864,7.317,13.138,5.547,5.513
Mon Dec 02 20:58:08 2024,685,-25.899,-25.899,9.242,9.242,-1.005,21.125,8.726,2.329,17.138,10.706,-4.488,12.841,7.300,13.148,5.554,5.528
Mon Dec 02 20:58:08 2024,690,-25.948,-25.948,9.474,9.474,-1.051,21.190,8.744,2.344,17.200,10.736,-4.485,12.855,7.274,13.172,5.534,5.479
Mon Dec 02 20:58:08 2024,695,-25.991,-25.991,9.700,9.700,-1.090,21.247,8.763,2.355,17.251,10.754,-4.481,12.876,7.248,13.194,5.515,5.430
Mon Dec 02 20:58:08 2024,700,-25.959,-25.959,9.966,9.966,-1.050,21.226,8.788,2.321,17.240,10.646,-4.449,12.999,7.204,13.194,5.510,5.359
Mon Dec 02 20:58:08 2024,705,-25.912,-25.912,10.232,10.232,-0.996,21.189,8.814,2.278,17.214,10.514,-4.412,13.138,7.159,13.190,5.508,5.286
Mon Dec 02 20:58:08 2024,710,-25.828,-25.828,10.491,10.491,-0.974,21.170,8.852,2.252,17.219,10.492,-4.370,13.194,7.148,13.188,5.492,5.251
Mon Dec 02 20:58:08 2024,715,-25.732,-25.732,10.699,10.699,-0.981,21.166,8.892,2.242,17.249,10.554,-4.332,13.176,7.164,13.189,5.468,5.252
Mon Dec 02 20:58:08 2024,720,-25.616,-25.616,10.987,10.987,-1.001,21.170,8.941,2.225,17.290,10.620,-4.295,13.183,7.192,13.196,5.449,5.273
Mon Dec 02 20:58:08 2024,725,-25.427,-25.427,11.571,11.571,-1.074,21.211,9.023,2.183,17.364,10.681,-4.270,13.309,7.267,13.235,5.453,5.383
Mon Dec 02 20:58:08 2024,730,-25.272,-25.272,12.054,12.054,-1.134,21.248,9.091,2.147,17.425,10.731,-4.250,13.412,7.330,13.266,5.456,5.474
Mon Dec 02 20:58:08 2024,735,-25.091,-25.091,12.529,12.529,-1.106,21.199,9.164,2.163,17.402,10.742,-4.237,13.473,7.366,13.304,5.434,5.517
Mon Dec 02 20:58:08 2024,740,-24.893,-24.893,13.030,13.030,-1.036,21.106,9.244,2.204,17.338,10.735,-4.226,13.519,7.394,13.348,5.400,5.541
Mon Dec 02 20:58:08 2024,745,-24.727,-24.727,13.467,13.467,-0.975,21.026,9.314,2.240,17.283,10.730,-4.217,13.558,7.417,13.386,5.370,5.562
Mon Dec 02 20:58:08 2024,750,-24.628,-24.628,13.735,13.735,-0.937,20.978,9.356,2.261,17.249,10.726,-4.212,13.582,7.431,13.409,5.352,5.575
Mon Dec 02 20:58:08 2024,755,-24.594,-24.594,14.698,14.698,-1.006,21.058,9.632,2.154,17.355,10.897,-4.233,13.553,7.561,13.439,5.340,5.758
Mon Dec 02 20:58:08 2024,760,-24.535,-24.535,15.782,15.782,-1.063,21.120,9.926,2.053,17.449,11.069,-4.253,13.532,7.697,13.478,5.321,5.950
Mon Dec 02 20:58:08 2024,765,-24.491,-24.491,16.465,16.465,-1.073,21.129,10.086,2.023,17.478,11.147,-4.256,13.531,7.769,13.513,5.292,6.054
Mon Dec 02 20:58:08 2024,770,-24.469,-24.469,17.506,17.506,-1.057,21.105,10.269,2.052,17.475,11.206,-4.228,13.546,7.843,13.597,5.189,6.182
Mon Dec 02 20:58:08 2024,775,-24.499,-24.499,18.439,18.439,-1.009,21.046,10.372,2.154,17.425,11.200,-4.171,13.575,7.876,13.703,5.040,6.266
Mon Dec 02 20:58:08 2024,780,-24.531,-24.531,19.451,19.451,-0.979,20.998,10.470,2.231,17.376,11.196,-4.139,13.564,7.910,13.799,4.901,6.356
Mon Dec 02 20:58:08 2024,785,-24.505,-24.505,20.441,20.441,-1.026,21.027,10.517,2.185,17.358,11.199,-4.211,13.403,7.933,13.826,4.842,6.433
Mon Dec 02 20:58:08 2024,790,-24.489,-24.489,21.337,21.337,-1.068,21.081,10.559,2.144,17.338,11.204,-4.274,13.260,7.955,13.850,4.790,6.503
Mon Dec 02 20:58:08 2024,795,-24.493,-24.493,22.618,22.618,-1.128,18.833,10.742,2.067,17.347,11.323,-4.318,13.151,8.053,13.957,4.706,6.623
Mon Dec 02 20:58:08 2024,800,-24.516,-24.516,23.702,23.702,-1.178,18.761,10.930,1.997,17.364,11.456,-4.343,13.087,8.155,14.066,4.632,6.731
Mon Dec 02 20:58:08 2024,805,-24.382,-24.382,24.838,24.838,-1.265,18.639,11.036,1.950,17.417,11.661,-4.366,12.964,8.308,14.177,4.566,6.890
Mon Dec 02 20:58:08 2024,810,-24.010,-24.010,25.732,25.732,-1.388,18.470,10.982,1.952,17.514,11.929,-4.380,12.779,8.503,14.261,4.530,7.090
Mon Dec 02 20:58:08 2024,815,-23.621,-12.003,26.513,26.513,-1.462,18.328,10.946,1.958,17.575,12.168,-4.379,12.611,8.663,14.361,4.487,7.273
Mon Dec 02 20:58:08 2024,820,-23.036,23.036,27.010,27.010,-1.373,18.253,10.965,1.981,17.531,12.351,-4.328,12.469,8.733,14.546,4.413,7.435
Mon Dec 02 20:58:08 2024,825,-22.518,22.518,27.376,27.376,-1.252,18.166,10.996,2.008,17.465,12.491,-4.269,12.354,8.767,14.725,4.337,7.567
Mon Dec 02 20:58:08 2024,830,-22.202,22.202,28.418,28.418,-1.270,17.831,11.052,1.916,17.419,12.581,-4.336,12.142,8.757,14.858,4.262,7.755
Mon Dec 02 20:58:08 2024,835,-22.070,22.070,29.683,29.683,-1.367,17.420,11.112,1.772,17.372,12.624,-4.462,11.916,8.724,14.939,4.205,7.940
Mon Dec 02 20:58:08 2024,840,-22.112,22.112,31.177,31.177,-1.431,16.906,11.228,1.695,17.182,12.819,-4.557,11.548,8.769,15.051,4.090,8.216
Mon Dec 02 20:58:08 2024,845,-22.634,22.634,32.328,32.328,-1.365,16.413,11.432,1.860,16.759,13.327,-4.508,10.985,9.004,15.179,3.878,8.579
Mon Dec 02 20:58:08 2024,850,-23.259,23.259,33.627,33.627,-1.295,15.852,11.645,2.041,16.294,13.872,-4.454,10.359,9.256,15.315,3.650,8.973
Mon Dec 02 20:58:08 2024,855,-23.675,23.675,34.356,34.356,-1.309,15.453,11.582,2.105,16.040,13.960,-4.465,10.022,9.250,15.280,3.637,9.134
Mon Dec 02 20:58:08 2024,860,-24.155,24.155,35.104,35.104,-1.350,15.012,11.419,2.149,15.791,13.929,-4.499,9.697,9.165,15.183,3.685,9.259
Mon Dec 02 20:58:08 2024,865,-24.591,24.591,35.857,35.857,-1.322,14.817,11.310,2.201,15.524,13.777,-4.474,9.550,9.119,15.177,3.621,9.304
Mon Dec 02 20:58:08 2024,870,-25.004,25.004,36.724,36.724,-1.200,14.908,11.254,2.269,15.191,13.445,-4.369,9.609,9.116,15.285,3.401,9.250
Mon Dec 02 20:58:08 2024,875,-25.324,25.324,37.359,37.359,-1.111,14.993,11.193,2.320,14.983,13.193,-4.277,9.688,9.098,15.373,3.237,9.175
Mon Dec 02 20:58:08 2024,880,-25.647,25.647,37.570,37.570,-1.045,15.258,10.958,2.377,15.173,12.892,-4.069,10.090,8.922,15.527,3.097,8.772
Mon Dec 02 20:58:08 2024,885,-25.970,25.970,37.673,37.673,-0.984,15.563,10.684,2.437,15.453,12.586,-3.834,10.567,8.709,15.695,2.967,8.295
Mon Dec 02 20:58:08 2024,890,-26.214,26.214,37.737,37.737,-0.907,15.645,10.477,2.480,15.515,12.436,-3.644,10.867,8.647,15.861,2.854,8.054
Mon Dec 02 20:58:08 2024,895,-26.409,26.409,37.779,37.779,-0.835,15.637,10.324,2.511,15.495,12.362,-3.499,11.059,8.648,16.003,2.765,7.930
Mon Dec 02 20:58:08 2024,900,-26.707,26.707,37.878,37.878,-0.798,15.631,10.151,2.519,15.506,12.280,-3.360,11.283,8.666,16.176,2.661,7.834
Mon Dec 02 20:58:08 2024,905,-27.224,27.224,38.145,38.145,-0.919,15.640,9.993,2.429,15.638,12.208,-3.329,11.510,8.751,16.391,2.559,7.904
Mon Dec 02 20:58:08 2024,910,-27.634,27.634,38.366,38.366,-1.020,15.642,9.878,2.356,15.738,12.156,-3.315,11.674,8.821,16.550,2.480,7.969
Mon Dec 02 20:58:08 2024,915,-27.970,27.970,38.823,38.823,-1.101,15.476,9.846,2.362,15.473,12.149,-3.428,11.511,8.957,16.617,2.389,8.146
Mon Dec 02 20:58:08 2024,920,-28.259,28.259,39.333,39.333,-1.167,15.261,9.847,2.396,15.091,12.158,-3.578,11.241,9.104,16.643,2.302,8.349
Mon Dec 02 20:58:08 2024,925,-28.669,28.669,39.522,39.522,-1.157,15.204,9.904,2.373,14.854,12.216,-3.641,11.119,9.298,16.773,2.126,8.559
Mon Dec 02 20:58:08 2024,930,-29.243,29.243,39.320,39.320,-1.052,15.336,10.035,2.279,14.790,12.335,-3.600,11.174,9.558,17.034,1.837,8.787
Mon Dec 02 20:58:08 2024,935,-29.713,29.713,39.168,39.168,-0.969,15.438,10.137,2.204,14.738,12.430,-3.568,11.216,9.762,17.239,1.610,8.967
Mon Dec 02 20:58:08 2024,940,-30.435,30.435,38.344,38.344,-0.812,15.688,10.229,2.260,14.620,12.586,-3.493,11.066,9.924,17.389,1.331,9.077
Mon Dec 02 20:58:08 2024,945,-31.081,31.081,37.614,37.614,-0.677,15.902,10.301,2.318,14.518,12.719,-3.432,10.923,10.052,17.502,1.098,9.159
Mon Dec 02 20:58:08 2024,950,-31.729,31.729,36.297,36.297,-0.512,16.079,10.503,2.251,14.308,12.908,-3.406,10.705,10.268,17.497,1.011,9.369
Mon Dec 02 20:58:08 2024,955,-32.143,32.143,35.203,35.203,-0.395,16.168,10.692,2.149,14.121,13.051,-3.408,10.536,10.443,17.437,1.027,9.560
Mon Dec 02 20:58:08 2024,960,-32.617,32.617,33.724,33.724,-0.238,16.340,10.957,2.047,13.939,13.259,-3.363,10.404,10.675,17.365,1.054,9.768
Mon Dec 02 20:58:08 2024,965,-32.680,32.680,32.672,32.672,-0.128,16.600,11.173,2.068,14.002,13.441,-3.206,10.559,10.825,17.335,1.086,9.783
Mon Dec 02 20:58:08 2024,970,-32.778,32.778,31.471,31.471,0.004,16.888,11.416,2.092,14.071,13.645,-3.031,10.728,10.992,17.301,1.123,9.800
Mon Dec 02 20:58:08 2024,975,-32.654,32.654,30.378,30.378,0.101,16.978,11.397,2.026,13.998,13.629,-3.118,10.527,10.903,17.199,1.255,9.753
Mon Dec 02 20:58:08 2024,980,-32.530,32.530,29.515,29.515,0.168,17.019,11.343,1.959,13.916,13.585,-3.227,10.312,10.796,17.107,1.375,9.706
Mon Dec 02 20:58:08 2024,985,-32.336,32.336,28.432,28.432,0.242,17.082,11.263,1.922,13.897,13.566,-3.256,10.168,10.694,16.962,1.563,9.636
Mon Dec 02 20:58:08 2024,990,-32.072,32.072,27.207,27.207,0.311,17.169,11.157,1.937,13.978,13.589,-3.156,10.154,10.619,16.763,1.820,9.542
Mon Dec 02 20:58:08 2024,995,-31.838,31.838,26.166,26.166,0.362,17.230,11.056,1.939,14.042,13.602,-3.074,10.139,10.557,16.601,2.038,9.469
Mon Dec 02 20:58:09 2024,0,-31.492,31.492,25.238,25.238,0.360,17.215,10.892,1.870,14.076,13.584,-3.008,10.104,10.506,16.492,2.236,9.436
Mon Dec 02 20:58:09 2024,5,-31.149,31.149,24.388,24.388,0.342,17.180,10.719,1.785,14.098,13.557,-2.949,10.067,10.462,16.406,2.414,9.417
Mon Dec 02 20:58:09 2024,10,-30.772,30.772,23.648,23.648,0.399,17.212,10.604,1.771,14.204,13.527,-2.832,10.112,10.344,16.300,2.579,9.240
Mon Dec 02 20:58:09 2024,15,-30.496,30.496,23.193,23.193,0.485,17.272,10.560,1.806,14.328,13.504,-2.714,10.192,10.218,16.215,2.686,9.021
Mon Dec 02 20:58:09 2024,20,-30.263,30.263,22.733,22.733,0.555,17.344,10.542,1.835,14.398,13.496,-2.613,10.236,10.148,16.149,2.786,8.890
Mon Dec 02 20:58:09 2024,25,-30.058,30.058,22.181,22.181,0.603,17.463,10.582,1.856,14.363,13.520,-2.535,10.206,10.192,16.113,2.884,8.925
Mon Dec 02 20:58:09 2024,30,-29.870,29.870,21.628,21.628,0.648,17.581,10.628,1.875,14.316,13.546,-2.460,10.168,10.246,16.081,2.978,8.978
Mon Dec 02 20:58:09 2024,35,-29.534,29.534,21.536,21.536,0.659,17.646,10.593,1.908,14.289,13.514,-2.388,10.204,10.238,16.004,3.077,8.932
Mon Dec 02 20:58:09 2024,40,-29.193,29.193,21.561,21.561,0.661,17.692,10.542,1.941,14.267,13.470,-2.320,10.254,10.216,15.923,3.168,8.866
Mon Dec 02 20:58:09 2024,45,-28.934,28.934,21.471,21.471,0.684,17.745,10.531,1.972,14.214,13.370,-2.230,10.320,10.141,15.897,3.201,8.762
Mon Dec 02 20:58:09 2024,50,-28.864,28.864,21.295,21.295,0.723,17.782,10.568,1.987,14.149,13.249,-2.151,10.375,10.040,15.944,3.154,8.662
Mon Dec 02 20:58:09 2024,55,-28.783,28.783,21.102,21.102,0.757,17.829,10.605,2.004,14.097,13.140,-2.078,10.427,9.947,15.991,3.113,8.569
Mon Dec 02 20:58:09 2024,60,-28.522,28.522,20.703,20.703,0.749,18.007,10.633,2.053,14.210,13.196,-2.076,10.446,9.966,16.035,3.133,8.582
Mon Dec 02 20:58:09 2024,65,-28.270,28.270,20.306,20.306,0.740,18.182,10.661,2.102,14.321,13.251,-2.075,10.466,9.985,16.079,3.151,8.594
Mon Dec 02 20:58:09 2024,70,-28.059,28.059,20.117,20.117,0.793,18.324,10.719,2.141,14.385,13.259,-2.035,10.508,9.953,16.083,3.177,8.544
Mon Dec 02 20:58:09 2024,75,-27.911,27.911,20.081,20.081,0.871,18.411,10.784,2.168,14.411,13.238,-1.980,10.556,9.898,16.064,3.202,8.467
Mon Dec 02 20:58:09 2024,80,-27.741,27.741,20.030,20.030,0.941,18.487,10.850,2.198,14.435,13.215,-1.929,10.616,9.845,16.050,3.224,8.391
Mon Dec 02 20:58:09 2024,85,-27.531,27.531,19.926,19.926,0.928,18.534,10.886,2.227,14.438,13.186,-1.926,10.721,9.832,16.077,3.217,8.360
Mon Dec 02 20:58:09 2024,90,-27.329,27.329,19.825,19.825,0.916,18.581,10.923,2.252,14.438,13.156,-1.920,10.818,9.820,16.102,3.210,8.332
Mon Dec 02 20:58:09 2024,95,-27.221,27.221,19.795,19.795,0.908,18.636,10.971,2.240,14.406,13.142,-1.881,10.796,9.836,16.108,3.201,8.349
Mon Dec 02 20:58:09 2024,100,-27.138,27.138,19.783,19.783,0.902,18.688,11.021,2.218,14.368,13.131,-1.837,10.749,9.857,16.111,3.194,8.375
Mon Dec 02 20:58:09 2024,105,-27.060,27.060,19.881,19.881,0.941,18.693,11.108,2.248,14.340,13.162,-1.788,10.726,9.891,16.132,3.156,8.381
Mon Dec 02 20:58:09 2024,110,-26.987,26.987,20.141,20.141,1.048,18.625,11.250,2.351,14.322,13.253,-1.733,10.736,9.944,16.181,3.073,8.361
Mon Dec 02 20:58:09 2024,115,-26.943,26.943,20.348,20.348,1.119,18.592,11.384,2.419,14.286,13.307,-1.677,10.737,9.988,16.244,2.987,8.363
Mon Dec 02 20:58:09 2024,120,-26.976,26.976,20.488,20.488,1.120,18.661,11.557,2.410,14.176,13.264,-1.597,10.710,10.026,16.381,2.850,8.433
Mon Dec 02 20:58:09 2024,125,-27.032,27.032,20.579,20.579,1.108,18.728,11.698,2.390,14.076,13.214,-1.530,10.684,10.054,16.501,2.735,8.501
Mon Dec 02 20:58:09 2024,130,-27.236,27.236,21.435,21.435,1.102,18.728,11.933,2.462,13.972,13.244,-1.456,10.712,10.106,16.642,2.538,8.531
Mon Dec 02 20:58:09 2024,135,-27.495,27.495,22.440,22.440,1.100,18.694,12.149,2.561,13.896,13.306,-1.400,10.760,10.157,16.751,2.355,8.532
Mon Dec 02 20:58:09 2024,140,-27.848,27.848,23.692,23.692,1.114,18.640,12.382,2.641,13.772,13.355,-1.382,10.756,10.210,16.844,2.168,8.573
Mon Dec 02 20:58:09 2024,145,-28.304,28.304,25.574,25.574,1.186,18.527,12.608,2.618,13.492,13.329,-1.536,10.542,10.256,16.840,2.032,8.766
Mon Dec 02 20:58:09 2024,150,-28.796,28.796,27.320,27.320,1.257,18.420,12.816,2.590,13.223,13.302,-1.685,10.333,10.298,16.832,1.900,8.953
Mon Dec 02 20:58:09 2024,155,-29.306,29.306,29.030,29.030,1.208,18.375,12.981,2.664,13.129,13.319,-1.796,10.270,10.347,16.949,1.684,9.125
Mon Dec 02 20:58:09 2024,160,-29.896,29.896,30.675,30.675,1.135,18.331,13.132,2.757,13.072,13.345,-1.896,10.236,10.397,17.091,1.453,9.291
Mon Dec 02 20:58:09 2024,165,-29.840,29.840,32.328,32.328,1.085,18.299,13.277,2.842,13.073,13.298,-2.046,10.189,10.319,17.224,1.211,9.370
Mon Dec 02 20:58:09 2024,170,-29.205,29.205,34.263,34.263,1.047,18.278,13.436,2.932,13.125,13.178,-2.266,10.119,10.113,17.369,0.918,9.378
Mon Dec 02 20:58:09 2024,175,-28.589,28.589,36.122,36.122,0.988,18.205,13.550,3.016,13.172,13.052,-2.504,10.018,9.877,17.507,0.624,9.349
Mon Dec 02 20:58:09 2024,180,-27.887,27.887,36.812,36.812,0.853,17.881,13.393,3.039,13.184,12.956,-2.725,9.826,9.594,17.548,0.469,9.149
Mon Dec 02 20:58:09 2024,185,-27.300,27.300,37.375,37.375,0.716,17.496,13.216,3.053,13.193,12.866,-2.938,9.627,9.317,17.579,0.330,8.940
Mon Dec 02 20:58:09 2024,190,-26.648,26.648,37.367,37.367,0.618,17.430,13.192,3.000,13.508,12.831,-3.131,9.615,8.999,17.556,0.230,8.635
Mon Dec 02 20:58:09 2024,195,-25.950,25.950,36.973,36.973,0.541,17.593,13.273,2.901,14.038,12.831,-3.315,9.728,8.646,17.494,0.155,8.254
Mon Dec 02 20:58:09 2024,200,-25.441,25.441,36.627,36.627,0.423,17.630,13.345,2.796,14.323,12.870,-3.549,9.659,8.485,17.344,0.135,8.101
Mon Dec 02 20:58:09 2024,205,-25.031,25.031,36.260,36.260,0.211,17.462,13.415,2.658,14.286,12.982,-3.913,9.288,8.587,17.029,0.192,8.277
Mon Dec 02 20:58:09 2024,210,-24.715,24.715,35.922,35.922,-0.020,17.253,13.483,2.520,14.201,13.101,-4.283,8.885,8.721,16.704,0.243,8.491
Mon Dec 02 20:58:09 2024,215,-24.395,24.395,35.208,35.208,-0.226,17.011,13.541,2.302,14.080,13.340,-4.869,8.106,8.749,16.494,0.284,8.794
Mon Dec 02 20:58:09 2024,220,-24.155,24.155,34.630,34.630,-0.402,16.809,13.585,2.114,13.968,13.552,-5.371,7.418,8.754,16.353,0.313,9.050
Mon Dec 02 20:58:09 2024,225,-23.784,23.784,33.722,33.722,-0.536,17.022,13.638,1.916,14.160,13.541,-5.738,7.307,8.708,16.294,0.434,9.126
Mon Dec 02 20:58:09 2024,230,-23.175,23.175,32.130,32.130,-0.637,17.923,13.720,1.657,14.886,13.179,-5.976,8.057,8.570,16.347,0.719,8.936
Mon Dec 02 20:58:09 2024,235,-22.753,22.753,30.945,30.945,-0.722,18.606,13.789,1.446,15.483,12.882,-6.170,8.645,8.461,16.394,0.940,8.780
Mon Dec 02 20:58:09 2024,240,-22.674,22.674,28.881,28.881,-0.699,19.256,13.728,1.496,16.033,12.858,-6.162,9.337,8.497,16.486,0.937,8.500
Mon Dec 02 20:58:09 2024,245,-22.642,22.642,26.863,26.863,-0.673,20.998,13.661,1.552,16.580,12.833,-6.149,10.038,8.538,16.584,0.929,8.206
Mon Dec 02 20:58:09 2024,250,-22.899,22.899,24.640,24.640,-0.740,21.532,13.754,1.546,16.711,12.808,-6.207,10.457,8.606,16.585,1.008,8.065
Mon Dec 02 20:58:09 2024,255,-23.236,23.236,22.687,22.687,-0.837,21.912,13.902,1.513,16.647,12.787,-6.288,10.686,8.675,16.544,1.113,8.013
Mon Dec 02 20:58:09 2024,260,-23.535,23.535,20.376,20.376,-0.903,22.257,13.950,1.504,16.656,12.781,-6.321,10.979,8.724,16.496,1.240,7.902
Mon Dec 02 20:58:09 2024,265,-23.653,23.653,17.290,17.290,-0.874,22.439,13.709,1.568,16.867,12.820,-6.214,11.426,8.709,16.437,1.414,7.642
Mon Dec 02 20:58:09 2024,270,-23.760,23.760,14.277,14.277,-0.848,22.629,13.446,1.634,17.083,12.854,-6.094,11.864,8.688,16.400,1.576,7.380
Mon Dec 02 20:58:09 2024,275,-23.832,23.832,11.189,11.189,-0.895,22.952,13.006,1.711,17.403,12.824,-5.896,12.355,8.641,16.565,1.668,7.096
Mon Dec 02 20:58:09 2024,280,-23.886,23.886,8.393,8.393,-0.957,23.283,12.559,1.784,17.678,12.776,-5.694,12.810,8.591,16.770,1.714,6.836
Mon Dec 02 20:58:09 2024,285,-23.865,14.345,5.841,5.841,-0.989,23.458,12.078,1.870,17.829,12.771,-5.484,13.195,8.558,16.952,1.706,6.583
Mon Dec 02 20:58:09 2024,290,-23.783,-23.783,4.384,4.384,-0.979,23.419,11.730,1.940,17.846,12.810,-5.338,13.384,8.552,17.046,1.662,6.425
Mon Dec 02 20:58:09 2024,295,-23.713,-23.713,2.758,2.758,-0.971,23.414,11.357,2.001,17.864,12.857,-5.219,13.567,8.550,17.144,1.634,6.279
Mon Dec 02 20:58:09 2024,300,-23.694,-23.694,0.318,1.466,-0.973,23.538,11.105,1.998,17.919,12.904,-5.267,13.619,8.568,17.200,1.688,6.264
Mon Dec 02 20:58:09 2024,305,-23.694,-23.694,-0.543,0.543,-0.977,23.682,10.886,1.984,17.971,12.950,-5.345,13.642,8.590,17.247,1.751,6.275
Mon Dec 02 20:58:09 2024,310,-23.502,-23.502,-0.945,-0.945,-1.020,23.642,10.712,1.959,18.002,13.018,-5.338,13.670,8.657,17.300,1.731,6.240
Mon Dec 02 20:58:09 2024,315,-23.292,-23.292,-1.588,-1.588,-1.068,23.547,10.589,1.937,18.020,13.080,-5.303,13.696,8.727,17.343,1.689,6.196
Mon Dec 02 20:58:09 2024,320,-23.034,-23.034,-2.334,-2.334,-1.108,23.428,10.428,1.922,18.038,13.134,-5.280,13.694,8.762,17.376,1.648,6.130
Mon Dec 02 20:58:09 2024,325,-22.849,-22.849,-2.660,-2.660,-1.100,23.341,10.306,1.933,18.038,13.126,-5.304,13.630,8.689,17.359,1.643,6.065
Mon Dec 02 20:58:09 2024,330,-22.674,-22.674,-3.002,-3.002,-1.092,23.252,10.178,1.946,18.036,13.119,-5.328,13.561,8.612,17.341,1.638,5.997
Mon Dec 02 20:58:09 2024,335,-22.411,-22.411,-3.308,-3.308,-1.142,23.227,10.048,1.917,18.062,13.141,-5.346,13.520,8.621,17.281,1.692,5.971
Mon Dec 02 20:58:09 2024,340,-22.135,-22.135,-3.627,-3.627,-1.206,23.213,9.911,1.880,18.093,13.170,-5.364,13.479,8.643,17.210,1.759,5.951
Mon Dec 02 20:58:09 2024,345,-21.861,-21.861,-3.923,-3.923,-1.299,23.162,9.798,1.837,18.138,13.206,-5.355,13.470,8.646,17.162,1.800,5.908
Mon Dec 02 20:58:09 2024,350,-21.639,-21.639,-4.142,-4.142,-1.400,23.094,9.730,1.796,18.188,13.243,-5.323,13.492,8.631,17.146,1.811,5.855
Mon Dec 02 20:58:09 2024,355,-21.445,-21.445,-4.348,-4.348,-1.496,23.035,9.667,1.757,18.233,13.277,-5.293,13.513,8.616,17.131,1.821,5.806
Mon Dec 02 20:58:09 2024,360,-21.102,-21.102,-4.570,-4.570,-1.456,23.017,9.610,1.866,18.109,13.267,-5.270,13.384,8.540,17.131,1.759,5.678
Mon Dec 02 20:58:09 2024,365,-20.864,-20.864,-4.737,-4.737,-1.425,23.005,9.565,1.951,18.011,13.256,-5.254,13.281,8.483,17.132,1.711,5.581
Mon Dec 02 20:58:09 2024,370,-20.613,-20.613,-4.943,-4.943,-1.515,22.986,9.444,1.954,18.009,13.187,-5.238,13.267,8.453,17.102,1.709,5.494
Mon Dec 02 20:58:09 2024,375,-20.401,-20.401,-5.140,-5.140,-1.651,22.974,9.304,1.918,18.054,13.100,-5.225,13.299,8.440,17.062,1.729,5.423
Mon Dec 02 20:58:09 2024,380,-20.196,-20.196,-5.320,-5.320,-1.772,22.943,9.196,1.888,18.088,13.025,-5.210,13.327,8.442,17.025,1.752,5.364
Mon Dec 02 20:58:09 2024,385,-20.023,-20.023,-5.443,-5.443,-1.845,22.873,9.165,1.870,18.100,12.988,-5.194,13.343,8.471,16.999,1.775,5.341
Mon Dec 02 20:58:09 2024,390,-19.886,-19.886,-5.545,-5.545,-1.904,22.813,9.147,1.857,18.107,12.960,-5.180,13.355,8.500,16.977,1.796,5.325
Mon Dec 02 20:58:09 2024,395,-19.683,-19.683,-5.749,-5.749,-1.945,22.927,9.148,1.923,18.068,13.033,-5.003,13.649,8.570,17.122,1.705,5.235
Mon Dec 02 20:58:09 2024,400,-19.536,-19.536,-5.907,-5.907,-1.970,23.044,9.154,1.986,18.014,13.106,-4.847,13.909,8.628,17.258,1.618,5.159
Mon Dec 02 20:58:09 2024,405,-19.396,-19.396,-5.997,-5.997,-2.083,23.118,9.123,2.005,17.992,13.092,-4.774,14.039,8.635,17.328,1.582,5.112
Mon Dec 02 20:58:09 2024,410,-19.312,-19.312,-5.972,-5.972,-2.273,23.128,9.055,1.963,18.034,12.976,-4.828,13.966,8.576,17.294,1.623,5.116
Mon Dec 02 20:58:09 2024,415,-19.246,-19.246,-5.971,-5.971,-2.429,23.158,8.994,1.929,18.068,12.886,-4.867,13.911,8.532,17.276,1.655,5.123
Mon Dec 02 20:58:09 2024,420,-19.174,-19.174,-6.055,-6.055,-2.544,23.216,8.939,1.911,18.087,12.854,-4.872,13.891,8.513,17.311,1.671,5.142
Mon Dec 02 20:58:09 2024,425,-19.119,-19.119,-6.137,-6.137,-2.636,23.268,8.894,1.898,18.101,12.834,-4.872,13.877,8.501,17.346,1.681,5.159
Mon Dec 02 20:58:09 2024,430,-19.014,-19.014,-6.203,-6.203,-2.677,23.302,8.867,1.888,18.109,12.830,-4.811,13.978,8.566,17.359,1.696,5.194
Mon Dec 02 20:58:09 2024,435,-18.898,-18.898,-6.252,-6.252,-2.682,23.319,8.856,1.882,18.111,12.836,-4.722,14.132,8.670,17.356,1.714,5.234
Mon Dec 02 20:58:09 2024,440,-18.816,-18.816,-6.288,-6.288,-2.717,23.344,8.839,1.873,18.116,12.826,-4.656,14.245,8.727,17.365,1.716,5.244
Mon Dec 02 20:58:09 2024,445,-18.776,-18.776,-6.312,-6.312,-2.824,23.387,8.807,1.859,18.131,12.777,-4.627,14.291,8.695,17.398,1.687,5.191
Mon Dec 02 20:58:09 2024,450,-18.747,-18.747,-6.335,-6.335,-2.932,23.435,8.776,1.844,18.147,12.727,-4.603,14.328,8.658,17.432,1.658,5.138
Mon Dec 02 20:58:09 2024,455,-18.705,-18.705,-6.391,-6.391,-2.941,23.418,8.794,1.826,18.170,12.725,-4.657,14.234,8.632,17.460,1.651,5.179
Mon Dec 02 20:58:09 2024,460,-18.658,-18.658,-6.459,-6.459,-2.950,23.397,8.815,1.805,18.195,12.723,-4.724,14.120,8.600,17.493,1.643,5.231
Mon Dec 02 20:58:09 2024,465,-18.633,-18.633,-6.459,-6.459,-2.976,23.410,8.839,1.819,18.181,12.742,-4.740,14.110,8.611,17.514,1.633,5.248
Mon Dec 02 20:58:09 2024,470,-18.624,-18.624,-6.383,-6.383,-3.024,23.460,8.871,1.877,18.119,12.791,-4.703,14.211,8.669,17.526,1.620,5.233
Mon Dec 02 20:58:09 2024,475,-18.608,-18.608,-6.350,-6.350,-3.079,23.517,8.887,1.906,18.086,12.823,-4.686,14.280,8.712,17.528,1.623,5.236
Mon Dec 02 20:58:09 2024,480,-18.561,-18.561,-6.449,-6.449,-3.180,23.614,8.859,1.848,18.142,12.816,-4.721,14.267,8.720,17.505,1.686,5.302
Mon Dec 02 20:58:09 2024,485,-18.512,-18.512,-6.552,-6.552,-3.287,23.715,8.828,1.787,18.201,12.810,-4.751,14.258,8.734,17.488,1.741,5.375
Mon Dec 02 20:58:09 2024,490,-18.468,-18.468,-6.562,-6.562,-3.332,23.743,8.812,1.780,18.205,12.836,-4.701,14.305,8.799,17.543,1.684,5.409
Mon Dec 02 20:58:09 2024,495,-18.428,-18.428,-6.521,-6.521,-3.342,23.733,8.807,1.805,18.179,12.879,-4.607,14.386,8.891,17.637,1.564,5.421
Mon Dec 02 20:58:09 2024,500,-18.382,-18.382,-6.510,-6.510,-3.355,23.721,8.807,1.830,18.154,12.904,-4.553,14.419,8.942,17.682,1.499,5.428
Mon Dec 02 20:58:09 2024,505,-18.328,-18.328,-6.557,-6.557,-3.372,23.708,8.819,1.852,18.133,12.894,-4.580,14.365,8.913,17.629,1.546,5.425
Mon Dec 02 20:58:09 2024,510,-18.281,-18.281,-6.599,-6.599,-3.387,23.699,8.830,1.872,18.116,12.884,-4.607,14.313,8.884,17.579,1.591,5.422
Mon Dec 02 20:58:09 2024,515,-18.220,-18.220,-6.578,-6.578,-3.442,23.726,8.826,1.914,18.070,12.944,-4.597,14.300,8.922,17.594,1.596,5.510
Mon Dec 02 20:58:09 2024,520,-18.166,-18.166,-6.543,-6.543,-3.497,23.759,8.821,1.953,18.026,13.011,-4.580,14.297,8.971,17.623,1.588,5.603
Mon Dec 02 20:58:09 2024,525,-18.125,-18.125,-6.491,-6.491,-3.543,23.799,8.847,1.983,17.993,13.028,-4.560,14.317,8.985,17.687,1.541,5.637
Mon Dec 02 20:58:09 2024,530,-18.099,-18.099,-6.428,-6.428,-3.577,23.842,8.898,2.001,17.976,12.996,-4.538,14.355,8.966,17.775,1.461,5.612
Mon Dec 02 20:58:09 2024,535,-18.074,-18.074,-6.391,-6.391,-3.598,23.866,8.926,2.015,17.965,12.965,-4.529,14.363,8.942,17.822,1.416,5.584
Mon Dec 02 20:58:09 2024,540,-18.036,-18.036,-6.451,-6.451,-3.570,23.817,8.855,2.018,17.974,12.917,-4.565,14.235,8.885,17.706,1.497,5.530
Mon Dec 02 20:58:09 2024,545,-18.000,-18.000,-6.523,-6.523,-3.537,23.760,8.774,2.020,17.980,12.869,-4.606,14.094,8.826,17.571,1.592,5.476
Mon Dec 02 20:58:09 2024,550,-17.986,-17.986,-6.533,-6.533,-3.566,23.789,8.798,2.054,17.946,12.910,-4.579,14.106,8.856,17.589,1.557,5.466
Mon Dec 02 20:58:09 2024,555,-17.981,-17.981,-6.520,-6.520,-3.620,23.850,8.861,2.101,17.899,12.983,-4.527,14.178,8.920,17.664,1.474,5.472
Mon Dec 02 20:58:09 2024,560,-17.980,-17.980,-6.498,-6.498,-3.647,23.873,8.880,2.112,17.887,13.034,-4.482,14.239,8.974,17.712,1.431,5.505
Mon Dec 02 20:58:09 2024,565,-17.983,-17.983,-6.464,-6.464,-3.635,23.840,8.830,2.072,17.928,13.055,-4.446,14.285,9.016,17.720,1.450,5.576
Mon Dec 02 20:58:09 2024,570,-17.986,-17.986,-6.429,-6.429,-3.618,23.800,8.773,2.025,17.974,13.071,-4.413,14.327,9.055,17.722,1.475,5.651
Mon Dec 02 20:58:09 2024,575,-17.882,-17.882,-6.431,-6.431,-3.569,23.782,8.867,2.087,17.910,13.094,-4.419,14.350,9.042,17.729,1.446,5.583
Mon Dec 02 20:58:09 2024,580,-17.797,-17.797,-6.436,-6.436,-3.531,23.775,8.951,2.143,17.852,13.110,-4.429,14.364,9.026,17.734,1.420,5.518
Mon Dec 02 20:58:09 2024,585,-17.740,-17.740,-6.399,-6.399,-3.523,23.760,9.000,2.146,17.851,13.126,-4.479,14.281,9.005,17.681,1.454,5.507
Mon Dec 02 20:58:09 2024,590,-17.744,-17.744,-6.334,-6.334,-3.551,23.746,8.984,2.089,17.912,13.134,-4.544,14.138,8.989,17.594,1.534,5.562
Mon Dec 02 20:58:09 2024,595,-17.741,-17.741,-6.264,-6.264,-3.566,23.726,8.974,2.034,17.965,13.149,-4.604,14.006,8.981,17.507,1.612,5.612
Mon Dec 02 20:58:09 2024,600,-17.700,-17.700,-6.242,-6.242,-3.487,23.672,9.022,2.059,17.940,13.185,-4.555,14.095,9.028,17.520,1.577,5.570
Mon Dec 02 20:58:09 2024,605,-17.662,-17.662,-6.221,-6.221,-3.413,23.624,9.067,2.081,17.917,13.218,-4.509,14.179,9.072,17.532,1.546,5.532
Mon Dec 02 20:58:09 2024,610,-17.647,-17.647,-6.166,-6.166,-3.419,23.629,9.138,2.064,17.936,13.291,-4.477,14.250,9.134,17.528,1.573,5.612
Mon Dec 02 20:58:09 2024,615,-17.648,-17.648,-6.095,-6.095,-3.476,23.668,9.216,2.023,17.976,13.378,-4.459,14.304,9.200,17.514,1.634,5.758
Mon Dec 02 20:58:09 2024,620,-17.655,-17.655,-6.056,-6.056,-3.478,23.664,9.234,2.016,17.980,13.423,-4.457,14.310,9.227,17.505,1.660,5.820
Mon Dec 02 20:58:09 2024,625,-17.670,-17.670,-6.059,-6.059,-3.393,23.587,9.161,2.064,17.936,13.412,-4.479,14.242,9.202,17.502,1.637,5.761
Mon Dec 02 20:58:09 2024,630,-17.684,-17.684,-6.060,-6.060,-3.321,23.521,9.099,2.104,17.896,13.404,-4.498,14.184,9.181,17.499,1.618,5.712
Mon Dec 02 20:58:09 2024,635,-17.639,-17.639,-6.031,-6.031,-3.280,23.472,9.181,2.108,17.893,13.451,-4.462,14.236,9.242,17.449,1.662,5.735
Mon Dec 02 20:58:09 2024,640,-17.601,-17.601,-6.006,-6.006,-3.252,23.437,9.254,2.108,17.890,13.490,-4.432,14.285,9.295,17.407,1.699,5.758
Mon Dec 02 20:58:09 2024,645,-17.556,-17.556,-5.984,-5.984,-3.194,23.400,9.345,2.133,17.864,13.524,-4.417,14.308,9.308,17.365,1.741,5.763
Mon Dec 02 20:58:09 2024,650,-17.507,-17.507,-5.970,-5.970,-3.094,23.373,9.454,2.193,17.804,13.545,-4.430,14.289,9.256,17.327,1.783,5.739
Mon Dec 02 20:58:09 2024,655,-17.470,-17.470,-5.951,-5.951,-3.017,23.352,9.537,2.237,17.759,13.561,-4.433,14.275,9.220,17.304,1.810,5.723
Mon Dec 02 20:58:09 2024,660,-17.430,-17.430,-5.841,-5.841,-2.905,23.262,9.637,2.281,17.712,13.576,-4.368,14.268,9.211,17.334,1.772,5.733
Mon Dec 02 20:58:09 2024,665,-17.395,-17.395,-5.742,-5.742,-2.804,23.183,9.726,2.319,17.670,13.588,-4.310,14.260,9.203,17.362,1.739,5.741
Mon Dec 02 20:58:09 2024,670,-17.366,-17.366,-5.662,-5.662,-2.724,23.120,9.798,2.350,17.635,13.599,-4.264,14.252,9.196,17.383,1.712,5.749
Mon Dec 02 20:58:09 2024,675,-17.351,-17.351,-5.617,-5.617,-2.679,23.085,9.838,2.367,17.616,13.604,-4.238,14.247,9.192,17.395,1.696,5.753
Mon Dec 02 20:58:09 2024,680,-17.349,-17.349,-5.449,-5.449,-2.339,23.084,10.286,2.278,17.651,13.617,-4.129,14.484,9.354,17.169,1.931,5.838
Mon Dec 02 20:58:09 2024,685,-17.336,-17.336,-5.353,-5.353,-2.180,23.089,10.481,2.260,17.637,13.626,-4.069,14.564,9.408,17.098,2.002,5.873
Mon Dec 02 20:58:09 2024,690,-17.324,-17.324,-5.268,-5.268,-2.040,23.108,10.653,2.243,17.620,13.634,-4.016,14.635,9.456,17.036,2.065,5.903
Mon Dec 02 20:58:09 2024,695,-17.332,-17.332,-5.087,-5.087,-1.483,23.302,11.100,2.226,17.600,13.655,-4.076,14.692,9.416,16.948,2.201,5.980
Mon Dec 02 20:58:09 2024,700,-17.342,-17.342,-4.929,-4.929,-0.973,23.632,11.502,2.211,17.583,13.673,-4.141,14.729,9.369,16.876,2.317,6.048
Mon Dec 02 20:58:09 2024,705,-17.333,-17.333,-4.764,-4.764,-0.278,23.997,12.076,2.214,17.518,13.745,-4.152,14.775,9.356,16.773,2.397,6.058
Mon Dec 02 20:58:09 2024,710,-17.304,-17.304,-4.590,-4.590,0.618,24.459,12.828,2.235,17.399,13.872,-4.111,14.832,9.375,16.637,2.442,6.012
Mon Dec 02 20:58:09 2024,715,-17.277,-17.277,-4.425,-4.425,1.471,25.042,13.553,2.253,17.277,13.993,-4.071,14.886,9.393,16.507,2.481,5.969
Mon Dec 02 20:58:09 2024,720,-17.384,-17.384,-4.269,-4.269,2.605,26.469,15.070,2.353,16.965,13.969,-4.238,14.657,9.225,16.250,2.632,5.981
Mon Dec 02 20:58:09 2024,725,-17.471,-17.471,-4.144,-4.144,3.535,27.674,16.331,2.432,16.701,13.949,-4.374,14.473,9.091,16.041,2.753,5.991
Mon Dec 02 20:58:09 2024,730,-17.462,-17.462,-4.057,-4.057,4.204,29.048,18.461,2.702,16.359,13.883,-4.372,14.490,8.975,15.849,2.822,5.935
Mon Dec 02 20:58:09 2024,735,-17.405,-17.405,-3.982,-3.982,4.796,30.618,21.300,3.087,15.951,13.789,-4.298,14.611,8.862,15.650,2.864,5.843
Mon Dec 02 20:58:09 2024,740,-17.374,-17.374,-3.915,-3.915,5.231,32.087,24.084,3.413,15.624,13.736,-4.238,14.699,8.774,15.492,2.882,5.742
Mon Dec 02 20:58:09 2024,745,-17.400,-17.400,-3.833,-3.833,5.408,34.010,28.030,3.748,15.359,13.768,-4.185,14.736,8.708,15.368,2.849,5.560
Mon Dec 02 20:58:09 2024,750,-17.420,-17.420,-3.766,-3.766,5.594,35.671,31.493,4.031,15.122,13.790,-4.139,14.772,8.651,15.257,2.820,5.412
Mon Dec 02 20:58:09 2024,755,-17.207,-17.207,-4.064,-4.064,5.830,39.121,36.646,4.345,14.994,13.693,-3.966,15.093,8.630,15.228,2.906,5.235
Mon Dec 02 20:58:09 2024,760,-16.981,-16.981,-4.398,-4.398,6.061,42.466,41.704,4.617,14.884,13.583,-3.792,15.424,8.624,15.223,3.000,5.078
Mon Dec 02 20:58:09 2024,765,-16.729,-16.729,-4.695,-4.695,6.503,45.757,47.243,4.907,14.772,13.630,-3.500,15.825,8.745,15.193,3.126,4.985
Mon Dec 02 20:58:09 2024,770,-16.423,-16.423,-4.997,-4.997,7.203,49.420,54.452,5.244,14.607,13.818,-3.073,16.337,8.995,15.138,3.292,4.935
Mon Dec 02 20:58:09 2024,775,-16.191,-16.191,-5.215,-5.215,7.998,52.771,61.183,5.450,14.481,13.991,-2.804,16.666,9.162,15.018,3.470,4.883
Mon Dec 02 20:58:09 2024,780,-16.149,-16.149,-5.215,-5.215,8.880,55.137,65.167,5.322,14.604,14.120,-2.944,16.525,9.104,14.740,3.686,4.831
Mon Dec 02 20:58:09 2024,785,-16.103,-16.103,-5.215,-5.215,10.051,58.150,70.378,5.164,14.756,14.282,-3.117,16.350,9.032,14.394,3.950,4.768
Mon Dec 02 20:58:09 2024,790,-16.046,-16.046,-5.392,-5.392,10.565,58.208,73.112,5.176,14.619,14.950,-3.278,15.818,9.360,14.098,4.026,5.060
Mon Dec 02 20:58:09 2024,795,-16.009,-16.009,-5.602,-5.602,10.913,57.574,75.179,5.231,14.352,15.715,-3.424,15.161,9.772,13.826,4.034,5.424
Mon Dec 02 20:58:09 2024,800,-15.995,-15.995,-5.619,-5.619,11.317,56.890,76.484,5.370,14.055,16.430,-3.525,14.640,10.123,13.581,4.044,5.707
Mon Dec 02 20:58:09 2024,805,-15.988,-15.988,-5.508,-5.508,11.819,56.070,77.444,5.584,13.720,17.222,-3.612,14.148,10.486,13.316,4.060,5.978
Mon Dec 02 20:58:09 2024,810,-15.987,-15.987,-5.362,-5.362,12.309,55.295,78.164,5.806,13.404,17.967,-3.686,13.706,10.818,13.068,4.069,6.219
Mon Dec 02 20:58:09 2024,815,-15.959,-15.959,-5.318,-5.318,12.413,55.490,79.386,5.937,13.452,18.462,-3.785,13.678,10.925,12.886,4.240,6.202
Mon Dec 02 20:58:09 2024,820,-15.933,-15.933,-5.281,-5.281,12.494,55.705,80.522,6.052,13.488,18.912,-3.876,13.666,11.016,12.722,4.402,6.178
Mon Dec 02 20:58:09 2024,825,-15.858,-15.858,-5.346,-5.346,12.370,56.293,82.053,6.143,13.572,19.322,-3.811,13.863,11.203,12.666,4.554,6.221
Mon Dec 02 20:58:09 2024,830,-15.740,-15.740,-5.498,-5.498,12.069,57.252,84.050,6.224,13.664,19.749,-3.615,14.248,11.490,12.686,4.712,6.323
Mon Dec 02 20:58:09 2024,835,-15.647,-15.647,-5.600,-5.600,11.779,58.304,85.961,6.262,13.709,20.106,-3.446,14.590,11.741,12.702,4.843,6.410
Mon Dec 02 20:58:09 2024,840,-15.606,-15.606,-5.588,-5.588,11.453,59.873,88.116,6.191,13.804,20.333,-3.309,14.900,11.940,12.710,4.945,6.475
Mon Dec 02 20:58:09 2024,845,-15.567,-15.567,-5.576,-5.576,11.141,61.465,90.160,6.119,13.880,20.563,-3.174,15.207,12.140,12.717,5.044,6.539
Mon Dec 02 20:58:09 2024,850,-15.493,-15.493,-5.562,-5.562,10.671,63.373,92.271,6.109,13.846,20.745,-2.971,15.570,12.324,12.754,5.185,6.571
Mon Dec 02 20:58:09 2024,855,-15.412,-15.412,-5.548,-5.548,10.214,65.239,94.077,6.126,13.709,20.886,-2.759,15.918,12.482,12.801,5.325,6.584
Mon Dec 02 20:58:09 2024,860,-15.357,-15.357,-5.524,-5.524,9.904,67.301,95.725,6.239,26.628,21.103,-2.518,16.370,12.661,12.895,5.385,6.592
Mon Dec 02 20:58:09 2024,865,-15.340,-15.340,-5.489,-5.489,9.816,69.265,96.985,6.447,27.131,21.377,-2.281,16.868,12.838,13.032,5.349,6.592
Mon Dec 02 20:58:09 2024,870,-15.312,-15.312,-5.475,-5.475,9.907,71.193,97.996,6.629,27.654,21.687,-2.071,17.314,13.012,13.138,5.342,6.604
Mon Dec 02 20:58:09 2024,875,-15.260,-15.260,-5.494,-5.494,10.180,73.088,98.798,6.778,28.153,22.063,-1.898,17.695,13.185,13.192,5.389,6.636
Mon Dec 02 20:58:09 2024,880,-15.192,-15.192,-5.537,-5.537,10.629,75.050,99.442,6.912,28.674,22.506,-1.743,18.032,13.366,13.216,5.471,6.681
Mon Dec 02 20:58:09 2024,885,-15.147,-15.147,-5.492,-5.492,11.081,76.772,99.819,7.106,29.303,23.027,-1.640,18.317,13.564,13.220,5.488,6.629
Mon Dec 02 20:58:09 2024,890,-15.121,-15.121,-5.393,-5.393,11.497,78.166,99.994,7.325,29.948,23.556,-1.583,21.600,13.758,13.210,5.460,6.515
Mon Dec 02 20:58:09 2024,895,-15.098,-15.098,-5.295,-5.295,11.913,79.360,100.092,7.526,30.532,24.024,-1.519,21.694,13.942,13.189,5.454,6.447
Mon Dec 02 20:58:09 2024,900,-15.070,-15.070,-5.118,-5.118,12.461,80.643,100.093,7.814,31.256,24.558,-1.371,21.974,14.223,13.105,5.533,6.503
Mon Dec 02 20:58:09 2024,905,-15.045,-15.045,-4.954,-4.954,12.997,81.803,100.065,8.080,31.926,25.050,-1.234,22.404,14.486,13.024,5.611,6.565
Mon Dec 02 20:58:09 2024,910,-15.030,-15.030,-4.822,-4.822,13.536,82.767,100.144,8.300,32.558,25.480,-1.227,22.760,14.619,12.949,5.685,6.606
Mon Dec 02 20:58:09 2024,915,-15.019,-15.019,-4.701,-4.701,14.095,83.660,100.276,8.504,33.192,25.894,-1.286,23.057,14.690,12.876,5.757,6.638
Mon Dec 02 20:58:09 2024,920,-15.026,-15.026,-4.544,-4.544,14.888,84.819,100.385,8.741,33.906,26.330,-1.303,23.351,14.708,12.822,5.807,6.622
Mon Dec 02 20:58:09 2024,925,-15.057,-15.057,-4.405,-4.405,15.667,85.840,100.437,8.917,34.415,26.600,-1.265,23.498,14.630,12.819,5.802,6.542
Mon Dec 02 20:58:09 2024,930,-15.102,-15.102,-4.237,-4.237,16.579,86.958,100.465,9.099,34.996,26.932,-1.229,23.676,14.541,12.811,5.806,6.452
Mon Dec 02 20:58:09 2024,935,-15.207,-15.207,-3.999,-3.999,17.239,87.636,100.396,9.129,35.506,27.378,-1.253,23.893,14.448,12.766,5.880,6.384
Mon Dec 02 20:58:09 2024,940,-15.304,-15.304,-3.798,-3.798,17.707,88.065,100.317,9.115,35.896,27.758,-1.287,24.071,14.375,12.723,5.955,6.335
Mon Dec 02 20:58:09 2024,945,-15.362,-15.362,-3.639,-3.639,18.177,88.495,100.253,9.133,36.291,28.153,-1.296,24.280,14.344,12.666,6.032,6.272
Mon Dec 02 20:58:09 2024,950,-15.320,-15.320,-3.540,-3.540,18.828,89.121,100.209,9.257,36.873,28.775,-1.224,24.690,14.435,12.535,6.151,6.134
Mon Dec 02 20:58:09 2024,955,-15.303,-15.303,-3.438,-3.438,19.418,89.665,100.158,9.353,37.382,29.315,-1.173,25.038,14.496,12.428,6.254,6.021
Mon Dec 02 20:58:09 2024,960,-15.361,-15.361,-3.225,-3.225,19.958,90.214,100.126,9.355,37.950,30.061,-1.264,25.153,14.452,12.399,6.253,5.963
Mon Dec 02 20:58:09 2024,965,-15.404,-15.404,-3.064,-3.064,20.401,90.653,100.096,9.362,38.406,30.651,-1.329,25.255,14.422,12.371,6.257,5.915
Mon Dec 02 20:58:09 2024,970,-15.440,-15.440,-2.992,-2.992,20.791,91.192,99.828,9.389,38.990,31.204,-1.361,25.549,14.455,12.411,6.245,5.872
Mon Dec 02 20:58:09 2024,975,-15.465,-15.465,-3.000,-3.000,21.081,91.726,99.418,9.427,39.585,31.642,-1.363,25.947,14.531,12.498,6.221,5.838
Mon Dec 02 20:58:09 2024,980,-15.486,-15.486,-2.983,-2.983,21.359,92.140,99.184,9.465,40.077,32.047,-1.363,26.278,14.607,12.620,6.157,5.842
Mon Dec 02 20:58:09 2024,985,-15.510,-15.510,-2.942,-2.942,21.736,92.614,99.026,9.527,40.696,32.602,-1.352,26.732,14.740,12.877,5.991,5.904
Mon Dec 02 20:58:09 2024,990,-15.534,-15.534,-2.903,-2.903,22.078,93.033,98.893,9.583,41.250,33.098,-1.342,27.139,14.861,13.109,5.837,5.963
Mon Dec 02 20:58:09 2024,995,-15.701,-15.701,-2.836,-2.836,22.362,93.390,98.558,9.678,41.761,33.472,-1.445,27.283,14.776,13.270,5.649,5.817
Mon Dec 02 20:58:10 2024,0,-15.832,-15.832,-2.788,-2.788,22.551,93.627,98.306,9.751,42.108,33.713,-1.527,27.354,14.694,13.372,5.515,5.695
Mon Dec 02 20:58:10 2024,5,-15.917,-15.917,-2.870,-2.870,22.933,94.077,97.947,9.897,42.572,33.951,-1.568,27.571,14.665,13.528,5.395,5.591
Mon Dec 02 20:58:10 2024,10,-15.937,-15.937,-3.069,-3.069,23.428,94.640,97.559,10.083,43.048,34.130,-1.558,27.886,14.696,13.701,5.313,5.532
Mon Dec 02 20:58:10 2024,15,-15.994,-15.994,-3.200,-3.200,23.877,95.078,97.295,10.215,43.461,34.337,-1.576,28.114,14.682,13.836,5.243,5.464
Mon Dec 02 20:58:10 2024,20,-16.108,-16.108,-3.230,-3.230,24.277,95.361,97.203,10.274,43.805,34.600,-1.636,28.222,14.598,13.924,5.190,5.376
Mon Dec 02 20:58:10 2024,25,-16.229,-16.229,-3.247,-3.247,24.679,95.624,97.130,10.324,44.144,34.874,-1.700,28.316,14.504,14.007,5.140,5.284
Mon Dec 02 20:58:10 2024,30,-16.379,-16.379,-3.292,-3.292,25.126,96.082,97.002,10.285,44.583,35.140,-1.809,28.619,14.584,14.044,5.151,5.301
Mon Dec 02 20:58:10 2024,35,-16.524,-16.524,-3.343,-3.343,25.544,96.562,96.863,10.215,45.014,35.374,-1.925,28.965,14.718,14.060,5.184,5.354
Mon Dec 02 20:58:10 2024,40,-16.620,-16.620,-3.388,-3.388,25.853,96.898,96.741,10.172,45.369,35.589,-1.986,29.211,14.805,14.098,5.188,5.384
Mon Dec 02 20:58:10 2024,45,-16.644,-16.644,-3.450,-3.450,26.074,97.072,96.586,10.183,45.774,35.913,-1.922,29.341,14.804,14.241,5.097,5.358
Mon Dec 02 20:58:10 2024,50,-16.701,-16.701,-3.495,-3.495,26.291,97.238,96.473,10.195,46.123,36.196,-1.880,29.520,14.839,14.354,5.024,5.351
Mon Dec 02 20:58:10 2024,55,-16.795,-16.795,-3.508,-3.508,26.467,97.351,96.445,10.216,46.341,36.385,-1.864,29.742,14.919,14.416,4.981,5.371
Mon Dec 02 20:58:10 2024,60,-16.918,-16.918,-3.510,-3.510,26.646,97.455,96.448,10.244,46.530,36.559,-1.856,30.014,15.029,14.465,4.946,5.405
Mon Dec 02 20:58:10 2024,65,-16.962,-16.962,-3.528,-3.528,26.748,97.504,96.424,10.224,46.688,36.632,-1.888,30.152,15.027,14.459,4.957,5.370
Mon Dec 02 20:58:10 2024,70,-16.958,-16.958,-3.560,-3.560,26.804,97.518,96.381,10.174,46.832,36.644,-1.945,30.208,14.954,14.419,4.999,5.288
Mon Dec 02 20:58:10 2024,75,-16.967,-16.967,-3.568,-3.568,26.845,97.513,96.325,10.114,46.953,36.625,-1.977,30.262,14.899,14.384,5.032,5.223
Mon Dec 02 20:58:10 2024,80,-17.028,-17.028,-3.492,-3.492,26.836,97.440,96.221,10.013,46.988,36.496,-1.924,30.317,14.913,14.367,5.034,5.209
Mon Dec 02 20:58:10 2024,85,-17.089,-17.089,-3.417,-3.417,26.823,97.367,96.123,9.921,47.010,36.369,-1.867,30.365,14.932,14.354,5.033,5.201
Mon Dec 02 20:58:10 2024,90,-17.078,-17.078,-3.472,-3.472,26.650,97.351,96.001,9.865,46.879,35.989,-1.849,30.323,14.780,14.322,5.061,5.098
Mon Dec 02 20:58:10 2024,95,-17.037,-17.037,-3.586,-3.586,26.398,97.355,95.851,9.818,46.669,35.460,-1.845,30.240,14.540,14.278,5.106,4.942
Mon Dec 02 20:58:10 2024,100,-17.039,-17.039,-3.627,-3.627,26.159,97.230,95.781,9.722,46.424,34.944,-1.831,30.163,14.345,14.252,5.128,4.847
Mon Dec 02 20:58:10 2024,105,-17.082,-17.082,-3.596,-3.596,25.941,96.993,95.788,9.588,46.161,34.472,-1.808,30.096,14.206,14.242,5.127,4.813
Mon Dec 02 20:58:10 2024,110,-17.134,-17.134,-3.561,-3.561,25.697,96.726,95.802,9.424,45.834,33.922,-1.781,30.012,14.044,14.218,5.134,4.756
Mon Dec 02 20:58:10 2024,115,-17.202,-17.202,-3.528,-3.528,25.476,96.483,95.846,9.200,45.362,33.322,-1.744,29.890,13.858,14.110,5.185,4.578
Mon Dec 02 20:58:10 2024,120,-17.273,-17.273,-3.496,-3.496,25.260,96.244,95.895,8.963,44.863,32.713,-1.707,29.762,13.668,13.988,5.242,4.381
Mon Dec 02 20:58:10 2024,125,-17.312,-17.312,-3.526,-3.526,25.102,96.002,95.998,8.722,44.358,32.156,-1.681,29.694,13.522,13.977,5.208,4.227
Mon Dec 02 20:58:10 2024,130,-17.338,-17.338,-3.595,-3.595,24.968,95.740,96.138,8.459,43.810,31.583,-1.660,29.655,13.388,14.028,5.120,4.086
Mon Dec 02 20:58:10 2024,135,-17.369,-17.369,-3.659,-3.659,24.718,95.363,96.300,8.229,43.233,30.978,-1.635,29.562,13.276,14.047,5.052,3.959
Mon Dec 02 20:58:10 2024,140,-17.419,-17.419,-3.703,-3.703,24.057,94.584,96.535,8.125,42.575,30.289,-1.597,29.276,13.246,13.946,5.055,3.888
Mon Dec 02 20:58:10 2024,145,-17.470,-17.470,-3.754,-3.754,23.323,93.714,96.782,8.011,41.852,29.524,-1.553,28.981,13.218,13.842,5.051,3.818
Mon Dec 02 20:58:10 2024,150,-17.439,-17.439,-3.820,-3.820,22.185,92.679,96.942,7.929,41.104,28.585,-1.466,28.973,13.261,13.837,5.005,3.851
Mon Dec 02 20:58:10 2024,155,-17.392,-17.392,-3.883,-3.883,21.120,91.724,97.043,7.865,40.444,27.724,-1.380,29.036,13.316,13.857,4.955,3.906
Mon Dec 02 20:58:10 2024,160,-17.313,-17.313,-3.965,-3.965,19.956,90.593,97.143,7.797,39.745,26.833,-1.343,28.967,13.343,13.825,4.939,3.948
Mon Dec 02 20:58:10 2024,165,-17.188,-17.188,-4.069,-4.069,18.774,89.328,97.234,7.733,39.079,26.016,-1.399,28.673,13.314,13.704,4.986,3.959
Mon Dec 02 20:58:10 2024,170,-17.066,-17.066,-4.173,-4.173,17.675,88.094,97.297,7.668,38.436,25.231,-1.458,28.385,13.284,13.584,5.030,3.970
Mon Dec 02 20:58:10 2024,175,-17.017,-17.017,-4.340,-4.340,16.527,86.859,97.244,7.528,37.688,24.298,-1.390,28.227,13.359,13.518,5.017,4.027
Mon Dec 02 20:58:10 2024,180,-16.972,-16.972,-4.505,-4.505,15.484,85.668,97.158,7.389,36.970,23.410,-1.320,28.080,13.436,13.456,5.001,4.085
Mon Dec 02 20:58:10 2024,185,-16.853,-16.853,-4.777,-4.777,14.418,84.351,97.074,7.105,36.157,22.540,-1.274,27.963,13.496,13.399,5.016,4.155
Mon Dec 02 20:58:10 2024,190,-16.701,-16.701,-5.078,-5.078,13.549,83.181,96.996,6.774,35.426,21.840,-1.254,27.886,13.534,13.356,5.051,4.221
Mon Dec 02 20:58:10 2024,195,-16.552,-16.552,-5.377,-5.377,12.762,82.042,96.893,6.452,34.717,21.171,-1.234,27.811,13.571,13.313,5.086,4.285
Mon Dec 02 20:58:10 2024,200,-16.538,-16.538,-5.334,-5.334,11.981,80.611,96.289,6.207,34.130,20.580,-1.213,27.789,13.672,13.220,5.229,4.381
Mon Dec 02 20:58:10 2024,205,-16.508,-16.508,-5.348,-5.348,11.360,79.441,95.801,5.989,33.615,20.084,-1.195,27.763,13.750,13.147,5.336,4.458
Mon Dec 02 20:58:10 2024,210,-16.538,-16.538,-5.184,-5.184,10.771,77.970,94.906,5.842,33.008,19.760,-1.419,27.294,13.555,12.870,5.496,4.442
Mon Dec 02 20:58:10 2024,215,-16.589,-16.589,-4.950,-4.950,10.187,76.209,93.687,5.686,32.289,19.442,-1.741,26.672,13.271,12.500,5.683,4.402
Mon Dec 02 20:58:10 2024,220,-16.617,-16.617,-4.751,-4.751,9.716,74.451,91.945,5.546,31.563,18.970,-1.965,26.110,12.958,12.239,5.773,4.362
Mon Dec 02 20:58:10 2024,225,-16.620,-16.620,-4.606,-4.606,9.405,72.853,89.774,5.432,30.893,18.373,-2.062,25.648,12.639,12.117,5.751,4.326
Mon Dec 02 20:58:10 2024,230,-16.618,-16.618,-4.483,-4.483,9.216,71.427,87.602,5.331,30.293,17.815,-2.129,25.250,12.349,12.032,5.708,4.292
Mon Dec 02 20:58:10 2024,235,-16.525,-16.525,-4.392,-4.392,8.919,71.524,83.807,5.203,30.130,16.595,-2.086,25.356,11.722,12.013,5.969,3.857
Mon Dec 02 20:58:10 2024,240,-16.443,-16.443,-4.319,-4.319,8.709,71.728,80.489,5.096,30.031,15.540,-2.041,25.486,11.176,12.002,6.200,3.468
Mon Dec 02 20:58:10 2024,245,-16.406,-16.406,-4.169,-4.169,7.436,69.280,73.556,5.124,29.858,14.752,-1.982,25.440,10.734,12.112,6.306,3.229
Mon Dec 02 20:58:10 2024,250,-16.409,-16.409,-4.007,-4.007,6.092,65.859,65.910,5.232,29.687,14.321,-1.925,25.290,10.468,12.268,6.304,3.141
Mon Dec 02 20:58:10 2024,255,-16.451,-16.451,-3.815,-3.815,-2.023,61.917,57.551,5.270,29.365,13.943,-1.990,25.027,10.183,12.332,6.350,3.119
Mon Dec 02 20:58:10 2024,260,-16.637,-16.637,-3.575,-3.575,3.789,57.022,49.163,4.981,28.540,13.932,-2.527,24.484,9.941,11.995,6.583,3.375
Mon Dec 02 20:58:10 2024,265,-16.827,-16.827,-3.331,-3.331,2.844,52.248,41.835,4.694,27.712,13.924,-3.062,24.138,9.713,11.653,6.810,3.635
Mon Dec 02 20:58:10 2024,270,-16.937,-16.937,-3.209,-3.209,2.222,48.647,36.705,4.318,26.918,13.825,-3.175,23.889,9.594,11.713,6.741,3.855
Mon Dec 02 20:58:10 2024,275,-17.025,-17.025,-3.124,-3.124,1.760,45.568,32.496,3.957,26.195,13.710,-3.191,23.682,9.508,11.851,6.619,4.054
Mon Dec 02 20:58:10 2024,280,-17.064,-17.064,-3.048,-3.048,-1.364,42.471,28.202,3.579,25.424,13.518,-3.071,23.450,9.469,12.091,6.435,4.275
Mon Dec 02 20:58:10 2024,285,-16.997,-16.997,-3.015,-3.015,-1.136,40.388,24.817,3.296,24.832,13.256,-2.756,23.212,9.521,12.430,6.201,4.459
Mon Dec 02 20:58:10 2024,290,-16.922,-16.922,-2.994,-2.994,-0.963,38.481,21.906,3.040,24.285,13.009,-2.478,23.000,9.551,12.737,5.984,4.606
Mon Dec 02 20:58:10 2024,295,-16.765,-16.765,-3.012,-3.012,-0.890,36.758,19.665,2.834,23.770,12.789,-2.312,22.765,9.459,12.983,5.793,4.578
Mon Dec 02 20:58:10 2024,300,-16.620,-16.620,-3.057,-3.057,-0.936,35.313,17.927,2.656,23.333,12.632,-2.200,22.552,9.403,13.166,5.650,4.561
Mon Dec 02 20:58:10 2024,305,-16.473,-16.473,-3.118,-3.118,-1.020,33.841,16.203,2.471,22.885,12.492,-2.096,22.331,9.372,13.340,5.517,4.564
Mon Dec 02 20:58:10 2024,310,-16.380,-16.380,-3.222,-3.222,-1.153,32.876,15.213,2.341,22.585,12.487,-2.068,22.191,9.462,13.396,5.482,4.656
Mon Dec 02 20:58:10 2024,315,-16.274,-16.274,-3.329,-3.329,-1.343,31.839,14.147,2.184,22.300,12.473,-2.055,22.098,9.543,13.464,5.454,4.740
Mon Dec 02 20:58:10 2024,320,-16.173,-16.173,-3.385,-3.385,-1.577,31.122,13.359,2.029,22.135,12.429,-2.109,22.135,9.532,13.537,5.468,4.732
Mon Dec 02 20:58:10 2024,325,-16.079,-16.079,-3.440,-3.440,-1.816,30.426,12.594,1.876,21.969,12.386,-2.161,22.175,9.523,13.609,5.478,4.726
Mon Dec 02 20:58:10 2024,330,-16.038,-16.038,-3.495,-3.495,-2.007,29.757,11.990,1.642,21.685,12.269,-2.212,22.214,9.551,13.598,5.543,4.786
Mon Dec 02 20:58:10 2024,335,-16.002,-16.002,-3.562,-3.562,-2.231,28.959,11.301,1.335,18.664,12.108,-2.274,22.273,9.596,13.564,5.636,4.876
Mon Dec 02 20:58:10 2024,340,-15.947,-15.947,-3.621,-3.621,-2.440,28.248,10.721,1.127,18.867,11.980,-2.326,22.332,9.588,13.573,5.679,4.919
Mon Dec 02 20:58:10 2024,345,-15.861,-15.861,-3.682,-3.682,-2.673,27.504,10.154,1.002,18.981,11.866,-2.375,22.396,9.514,13.640,5.664,4.906
Mon Dec 02 20:58:10 2024,350,-15.780,-15.780,-3.745,-3.745,-2.919,26.778,9.577,0.872,19.093,11.750,-2.427,19.158,9.436,13.709,5.647,4.894
Mon Dec 02 20:58:10 2024,355,-15.782,-15.782,-3.743,-3.743,-3.156,26.304,9.280,0.743,19.190,11.625,-2.446,22.483,9.450,13.657,5.715,4.841
Mon Dec 02 20:58:10 2024,360,-15.785,-15.785,-3.741,-3.741,-3.384,25.895,8.995,0.618,19.266,11.506,-2.464,22.494,9.460,13.610,5.778,4.791
Mon Dec 02 20:58:10 2024,365,-15.750,-15.750,-3.772,-3.772,-3.542,25.392,8.757,0.528,19.153,11.341,-2.443,20.833,9.406,13.555,5.820,4.695
Mon Dec 02 20:58:10 2024,370,-15.708,-15.708,-3.814,-3.814,-3.627,24.980,8.602,0.476,18.921,11.189,-2.405,17.540,9.329,13.511,5.839,4.597
Mon Dec 02 20:58:10 2024,375,-15.668,-15.668,-3.851,-3.851,-3.736,24.614,8.442,0.414,18.660,11.027,-2.366,17.559,9.242,13.465,5.861,4.492
Mon Dec 02 20:58:10 2024,380,-15.639,-15.639,-3.833,-3.833,-3.856,24.471,8.386,0.370,18.636,10.941,-2.347,17.576,9.169,13.455,5.881,4.438
Mon Dec 02 20:58:10 2024,385,-15.617,-15.617,-3.816,-3.816,-3.972,24.383,8.334,0.326,18.613,10.861,-2.331,17.591,9.102,13.446,5.900,4.387
Mon Dec 02 20:58:10 2024,390,-15.586,-15.586,-3.785,-3.785,-4.118,24.346,8.272,0.293,18.452,10.837,-2.319,17.587,9.084,13.424,5.924,4.404
Mon Dec 02 20:58:10 2024,395,-15.552,-15.552,-3.750,-3.750,-4.270,24.367,8.206,0.261,18.257,10.825,-2.308,17.576,9.078,13.399,5.949,4.436
Mon Dec 02 20:58:10 2024,400,-15.520,-15.520,-3.729,-3.729,-4.417,24.436,8.123,0.194,18.023,10.757,-2.330,17.498,9.009,13.340,5.982,4.417
Mon Dec 02 20:58:10 2024,405,-15.486,-15.486,-3.734,-3.734,-4.572,24.570,8.006,0.056,17.702,10.586,-2.413,17.273,8.825,13.215,6.030,4.307
Mon Dec 02 20:58:10 2024,410,-15.458,-15.458,-3.737,-3.737,-4.708,24.744,7.907,-0.063,17.424,10.442,-2.485,17.058,8.669,13.108,6.067,4.215
Mon Dec 02 20:58:10 2024,415,-15.462,-15.462,-3.766,-3.766,-4.910,18.280,7.877,-0.167,17.254,10.337,-2.429,17.153,8.618,13.172,6.043,4.234
Mon Dec 02 20:58:10 2024,420,-15.466,-15.466,-3.794,-3.794,-5.109,14.736,7.845,-0.269,17.084,10.233,-2.377,17.241,8.566,13.232,6.019,4.252
Mon Dec 02 20:58:10 2024,425,-15.471,-15.471,-3.796,-3.796,-5.272,14.460,7.784,-0.252,16.885,10.108,-2.329,17.203,8.432,13.242,5.982,4.206
Mon Dec 02 20:58:10 2024,430,-15.481,-15.481,-3.784,-3.784,-5.427,14.141,7.705,-0.174,16.660,9.964,-2.283,17.078,8.248,13.225,5.937,4.125
Mon Dec 02 20:58:10 2024,435,-15.491,-15.491,-3.774,-3.774,-5.555,13.865,7.641,-0.114,16.479,9.850,-2.248,16.964,8.101,13.211,5.901,4.060
Mon Dec 02 20:58:10 2024,440,-15.490,-15.490,-3.855,-3.855,-5.819,13.455,7.576,-0.303,16.196,9.645,-2.191,17.190,8.108,13.288,5.869,4.015
Mon Dec 02 20:58:10 2024,445,-15.493,-15.493,-3.927,-3.927,-6.076,13.037,7.507,-0.469,15.913,9.447,-2.135,17.371,8.096,13.357,5.834,3.967
Mon Dec 02 20:58:10 2024,450,-15.550,-15.550,-3.786,-3.786,-6.216,12.628,7.444,-0.406,15.694,9.306,-2.056,17.414,8.038,13.406,5.780,3.954
Mon Dec 02 20:58:10 2024,455,-15.612,-15.612,-3.620,-3.620,-6.319,12.250,7.389,-0.308,15.511,9.192,-1.982,17.420,7.978,13.444,5.730,3.950
Mon Dec 02 20:58:10 2024,460,-15.648,-15.648,-3.536,-3.536,-6.420,11.918,7.312,-0.265,15.357,9.046,-1.920,17.444,7.874,13.422,5.730,3.880
Mon Dec 02 20:58:10 2024,465,-15.642,-15.642,-3.585,-3.585,-6.533,11.640,7.188,-0.315,15.236,8.817,-1.866,17.509,7.675,13.286,5.821,3.684
Mon Dec 02 20:58:10 2024,470,-15.647,-15.647,-3.604,-3.604,-6.656,11.334,7.075,-0.362,15.096,8.606,-1.820,17.550,7.499,13.169,5.900,3.528
Mon Dec 02 20:58:10 2024,475,-15.676,-15.676,-3.516,-3.516,-6.874,10.811,6.977,-0.448,14.820,8.404,-1.814,17.474,7.358,13.086,5.974,3.497
Mon Dec 02 20:58:10 2024,480,-15.706,-15.706,-3.430,-3.430,-7.076,10.326,6.892,-0.526,14.566,8.230,-1.812,17.394,7.240,13.016,6.037,3.484
Mon Dec 02 20:58:10 2024,485,-15.750,-15.750,-3.372,-3.372,-7.248,9.946,6.826,-0.554,14.454,8.107,-1.792,17.394,7.134,12.996,6.055,3.432
Mon Dec 02 20:58:10 2024,490,-15.804,-15.804,-3.337,-3.337,-7.394,9.652,6.774,-0.550,14.436,8.021,-1.763,17.446,7.039,13.005,6.044,3.357
Mon Dec 02 20:58:10 2024,495,-15.855,-15.855,-3.303,-3.303,-7.536,9.366,6.723,-0.546,14.419,7.938,-1.734,17.495,6.948,13.014,6.034,3.285
Mon Dec 02 20:58:10 2024,500,-15.925,-15.925,-3.292,-3.292,-7.751,9.001,6.635,-0.509,14.362,7.780,-1.565,17.499,6.759,12.979,6.004,3.129
Mon Dec 02 20:58:10 2024,505,-15.993,-15.993,-3.279,-3.279,-7.958,8.648,6.550,-0.476,14.310,7.632,-1.414,17.492,6.584,12.949,5.974,2.986
Mon Dec 02 20:58:10 2024,510,-16.019,-16.019,-3.223,-3.223,-8.046,8.429,6.505,-0.417,14.228,7.536,-1.263,17.532,6.523,13.012,5.946,3.030
Mon Dec 02 20:58:10 2024,515,-16.033,-16.033,-3.159,-3.159,-8.100,8.252,6.472,-0.355,14.143,7.460,-1.120,17.577,6.495,13.094,5.917,3.118
Mon Dec 02 20:58:10 2024,520,-16.046,-16.046,-3.111,-3.111,-8.180,8.052,6.423,-0.366,14.009,7.358,-1.053,17.450,6.412,13.071,5.926,3.124
Mon Dec 02 20:58:10 2024,525,-16.060,-16.060,-3.078,-3.078,-8.313,7.784,6.343,-0.483,13.785,7.205,-1.084,17.058,6.238,12.897,5.986,3.018
Mon Dec 02 20:58:10 2024,530,-16.081,-16.081,-3.035,-3.035,-8.451,7.505,6.257,-0.581,13.592,7.063,-1.119,16.660,6.062,12.732,6.040,2.922
Mon Dec 02 20:58:10 2024,535,-16.125,-16.125,-2.962,-2.962,-8.581,7.226,6.158,-0.584,13.560,6.987,-1.154,16.313,5.896,12.630,6.079,2.870
Mon Dec 02 20:58:10 2024,540,-16.171,-16.171,-2.885,-2.885,-8.712,6.944,6.056,-0.581,13.535,6.914,-1.190,15.964,5.728,12.531,6.118,2.820
Mon Dec 02 20:58:10 2024,545,-16.222,-16.222,-2.796,-2.796,-8.774,6.746,6.026,-0.635,13.417,6.842,-1.251,15.635,5.614,12.474,6.092,2.778
Mon Dec 02 20:58:10 2024,550,-16.279,-16.279,-2.693,-2.693,-8.806,6.578,6.028,-0.720,13.242,6.765,-1.330,15.294,5.517,12.433,6.032,2.740
Mon Dec 02 20:58:10 2024,555,-16.320,-16.320,-2.620,-2.620,-8.828,6.455,6.029,-0.782,13.116,6.709,-1.387,15.047,5.448,12.403,5.987,2.713
Mon Dec 02 20:58:10 2024,560,-16.395,-16.395,-2.609,-2.609,-8.937,6.244,6.078,-0.718,13.137,6.770,-1.501,14.604,5.316,12.362,5.928,2.667
Mon Dec 02 20:58:10 2024,565,-16.455,-16.455,-2.598,-2.598,-9.022,6.078,6.116,-0.673,13.147,6.814,-1.592,14.259,5.213,12.329,5.881,2.631
Mon Dec 02 20:58:10 2024,570,-16.489,-16.489,-2.543,-2.543,-9.074,5.909,6.065,-0.595,13.216,6.812,-1.627,14.004,5.182,12.339,5.877,2.673
Mon Dec 02 20:58:10 2024,575,-16.508,-16.508,-2.487,-2.487,-9.104,5.774,5.999,-0.524,13.286,6.797,-1.637,13.827,5.176,12.359,5.886,2.731
Mon Dec 02 20:58:10 2024,580,-16.533,-16.533,-2.441,-2.441,-9.157,5.640,5.958,-0.459,13.320,6.784,-1.672,13.596,5.130,12.354,5.865,2.743
Mon Dec 02 20:58:10 2024,585,-16.566,-16.566,-2.401,-2.401,-9.241,5.495,5.943,-0.396,13.312,6.774,-1.742,13.278,5.029,12.319,5.805,2.702
Mon Dec 02 20:58:10 2024,590,-16.603,-16.603,-2.357,-2.357,-9.335,5.333,5.926,-0.326,13.305,6.762,-1.819,12.924,4.920,12.281,5.735,2.659
Mon Dec 02 20:58:10 2024,595,-16.713,-16.713,-2.300,-2.300,-9.476,5.158,5.928,-0.303,13.348,6.833,-1.997,12.611,4.887,12.311,5.601,2.689
Mon Dec 02 20:58:10 2024,600,-16.809,-16.809,-2.249,-2.249,-9.601,5.002,5.929,-0.280,13.386,6.893,-2.153,12.327,4.854,12.336,5.479,2.712
Mon Dec 02 20:58:10 2024,605,-16.932,-16.932,-2.182,-2.182,-9.687,4.888,5.896,-0.259,13.412,6.894,-2.368,11.928,4.761,12.348,5.348,2.734
Mon Dec 02 20:58:10 2024,610,-17.074,-17.074,-2.104,-2.104,-9.730,4.823,5.832,-0.244,13.426,6.836,-2.627,11.440,4.615,12.348,5.213,2.751
Mon Dec 02 20:58:10 2024,615,-17.188,-17.188,-2.036,-2.036,-9.759,4.792,5.781,-0.219,13.459,6.785,-2.841,11.031,4.484,12.340,5.084,2.747
Mon Dec 02 20:58:10 2024,620,-17.255,-17.255,-1.978,-1.978,-9.722,4.906,5.741,-0.154,13.573,6.717,-2.972,10.730,4.340,12.292,4.942,2.661
Mon Dec 02 20:58:10 2024,625,-17.317,-17.317,-1.928,-1.928,-9.690,5.006,5.704,-0.115,13.672,6.657,-3.093,10.458,4.212,12.249,4.808,2.588
Mon Dec 02 20:58:10 2024,630,-17.319,-17.319,-1.944,-1.944,-9.642,5.067,5.730,0.119,13.776,6.724,-3.173,10.251,4.187,12.332,4.659,2.584
Mon Dec 02 20:58:10 2024,635,-17.302,-17.302,-1.981,-1.981,-9.592,5.112,5.773,0.182,13.875,6.828,-3.234,10.075,4.197,12.451,4.514,2.602
Mon Dec 02 20:58:10 2024,640,-17.321,-17.321,-1.958,-1.958,-9.559,5.184,5.789,0.278,14.055,6.904,-3.315,9.936,4.174,12.525,4.412,2.603
Mon Dec 02 20:58:10 2024,645,-17.398,-17.398,-1.840,-1.840,-9.545,5.315,5.769,0.432,14.404,6.954,-3.446,9.817,4.095,12.549,4.346,2.577
Mon Dec 02 20:58:10 2024,650,-17.470,-17.470,-1.728,-1.728,-9.532,5.439,5.751,0.581,14.730,7.002,-3.570,9.703,4.020,12.572,4.284,2.555
Mon Dec 02 20:58:10 2024,655,-17.527,-17.527,-1.686,-1.686,-9.523,5.482,5.881,0.848,15.011,7.189,-3.629,9.600,4.010,12.626,4.052,2.455
Mon Dec 02 20:58:10 2024,660,-17.588,-17.588,-1.639,-1.639,-9.514,5.531,6.002,1.111,15.275,7.367,-3.694,9.495,3.996,12.677,3.828,2.359
Mon Dec 02 20:58:10 2024,665,-17.604,-17.604,-1.587,-1.587,-9.476,5.598,6.059,1.556,15.727,7.659,-3.721,9.534,4.033,12.853,3.651,2.338
Mon Dec 02 20:58:10 2024,670,-17.582,-17.582,-1.533,-1.533,-9.414,5.678,6.061,2.139,16.199,8.041,-3.718,9.691,4.110,13.131,3.514,2.379
Mon Dec 02 20:58:10 2024,675,-17.564,-17.564,-1.488,-1.488,-9.364,5.744,6.063,2.615,16.425,8.357,-3.715,9.819,4.173,13.359,3.399,2.414
Mon Dec 02 20:58:10 2024,680,-17.552,-17.552,-1.457,-1.457,-9.328,5.792,6.065,2.950,16.471,8.581,-3.714,9.910,4.218,13.521,3.316,2.440
Mon Dec 02 20:58:10 2024,685,-17.545,-17.545,-1.443,-1.443,-9.311,5.813,6.066,3.100,16.461,8.681,-3.713,9.951,4.238,13.594,3.278,2.452
Mon Dec 02 20:58:10 2024,690,-17.502,-17.502,-1.507,-1.507,-9.053,5.897,6.616,4.354,15.615,9.989,-3.282,10.564,4.961,14.052,2.706,2.569
Mon Dec 02 20:58:10 2024,695,-17.483,-17.483,-1.510,-1.510,-8.958,5.945,6.779,4.885,15.113,10.482,-3.156,10.788,5.205,14.271,2.494,2.617
Mon Dec 02 20:58:10 2024,700,-17.497,-17.497,-1.503,-1.503,-8.770,6.171,6.999,5.409,14.537,10.982,-2.986,11.141,5.450,14.430,2.264,2.579
Mon Dec 02 20:58:10 2024,705,-17.548,-17.548,-1.483,-1.483,-8.481,6.595,7.273,5.897,26.055,11.461,-2.774,11.623,5.680,14.509,2.026,2.443
Mon Dec 02 20:58:10 2024,710,-17.587,-17.587,-1.468,-1.468,-8.259,6.922,7.484,6.271,26.542,11.825,-2.610,11.992,5.860,14.569,1.844,2.345
Mon Dec 02 20:58:10 2024,715,-17.568,-17.568,-1.546,-1.546,-8.142,7.076,7.597,6.694,27.136,12.316,-2.280,12.810,6.254,14.974,1.642,2.414
Mon Dec 02 20:58:10 2024,720,-17.546,-17.546,-1.627,-1.627,-8.046,7.198,7.687,7.077,27.699,12.770,-1.972,13.590,6.635,15.373,1.450,2.495
Mon Dec 02 20:58:10 2024,725,-17.550,-17.550,-1.643,-1.643,-7.883,7.339,7.887,7.432,28.163,13.242,-1.769,14.070,6.954,15.570,1.255,2.500
Mon Dec 02 20:58:10 2024,730,-17.563,-17.563,-1.634,-1.634,-7.713,7.472,8.107,7.738,28.536,13.668,-1.626,14.386,7.218,15.670,1.083,2.476
Mon Dec 02 20:58:10 2024,735,-17.580,-17.580,-1.663,-1.663,-7.575,7.530,8.314,8.062,28.925,14.125,-1.485,14.741,7.485,15.871,0.869,2.482
Mon Dec 02 20:58:10 2024,740,-17.600,-17.600,-1.794,-1.794,-7.570,7.365,8.429,8.341,29.241,14.535,-1.389,15.106,7.676,16.294,0.596,2.569
Mon Dec 02 20:58:10 2024,745,-17.619,-17.619,-1.917,-1.917,-7.566,7.211,8.535,8.600,29.535,14.914,-1.301,15.443,7.850,16.686,0.340,2.648
Mon Dec 02 20:58:10 2024,750,-17.742,-17.742,-1.896,-1.896,-7.650,6.956,8.629,8.702,29.699,15.472,-1.266,15.812,8.078,17.015,0.164,2.734
Mon Dec 02 20:58:10 2024,755,-17.844,-17.844,-1.855,-1.855,-7.723,6.765,8.691,8.741,29.787,15.883,-1.253,16.065,8.241,17.224,0.059,2.792
Mon Dec 02 20:58:10 2024,760,-17.956,-17.956,-1.811,-1.811,-7.801,6.558,8.757,8.783,29.884,16.334,-1.241,16.339,8.418,17.451,-0.057,2.855
Mon Dec 02 20:58:10 2024,765,-18.034,-18.034,-1.780,-1.780,-7.856,6.414,8.803,8.813,29.952,16.651,-1.232,16.530,8.541,17.609,-0.140,2.899
Mon Dec 02 20:58:10 2024,770,-18.059,-18.059,-1.771,-1.771,-7.872,6.369,8.818,8.822,29.974,16.752,-1.230,16.590,8.579,17.660,-0.166,2.912
Mon Dec 02 20:58:10 2024,775,-18.082,-18.082,-1.995,-1.995,-7.727,6.667,8.996,9.236,30.732,19.071,-1.129,16.940,9.106,17.794,-0.181,2.828
Mon Dec 02 20:58:10 2024,780,-18.130,-18.130,-2.043,-2.043,-7.712,6.679,9.072,9.370,30.994,19.925,-1.097,17.135,9.318,17.912,-0.230,2.825
Mon Dec 02 20:58:10 2024,785,-18.185,-18.185,-2.075,-2.075,-7.767,6.681,9.152,9.671,31.398,20.958,-1.074,17.578,9.504,18.135,-0.342,2.772
Mon Dec 02 20:58:10 2024,790,-18.224,-18.224,-2.084,-2.084,-7.844,6.676,9.204,9.958,31.731,21.698,-1.066,17.986,9.597,18.337,-0.452,2.709
Mon Dec 02 20:58:10 2024,795,-18.235,-18.235,-2.083,-2.083,-7.936,6.570,9.179,10.230,32.051,22.489,-1.039,18.357,9.728,18.554,-0.573,2.669
Mon Dec 02 20:58:10 2024,800,-18.203,-18.203,-2.062,-2.062,-8.067,6.292,9.029,10.518,32.402,23.488,-0.976,18.737,9.940,18.831,-0.729,2.660
Mon Dec 02 20:58:10 2024,805,-18.175,-18.175,-2.045,-2.045,-8.183,6.043,8.896,10.785,32.726,24.419,-0.923,19.005,10.132,19.082,-0.874,2.650
Mon Dec 02 20:58:10 2024,810,-18.242,-18.242,-1.903,-1.903,-8.274,5.907,8.828,11.044,32.919,24.944,-0.881,19.888,10.137,19.212,-0.983,2.554
Mon Dec 02 20:58:10 2024,815,-18.365,-18.365,-1.689,-1.689,-8.346,5.845,8.804,11.287,33.022,25.192,-0.845,21.010,10.028,19.265,-1.065,2.408
Mon Dec 02 20:58:10 2024,820,-18.462,-18.462,-1.561,-1.561,-8.566,5.662,8.615,11.517,33.277,25.527,-0.802,21.377,9.877,19.358,-1.124,2.293
Mon Dec 02 20:58:10 2024,825,-18.551,-18.551,-1.468,-1.468,-8.838,5.446,8.370,11.721,33.568,25.827,-0.764,21.846,9.692,19.448,-1.160,2.198
Mon Dec 02 20:58:10 2024,830,-18.631,-18.631,-1.385,-1.385,-9.082,5.252,8.153,11.907,33.833,26.109,-0.730,22.313,9.524,19.529,-1.195,2.127
Mon Dec 02 20:58:10 2024,835,-18.662,-18.662,-1.428,-1.428,-9.273,5.131,7.857,12.162,34.459,26.513,-0.566,22.938,9.298,19.625,-1.243,2.021
Mon Dec 02 20:58:10 2024,840,-18.688,-18.688,-1.455,-1.455,-9.421,5.035,7.636,12.354,34.935,26.832,-0.450,23.430,9.127,19.698,-1.279,1.957
Mon Dec 02 20:58:10 2024,845,-18.711,-18.711,-1.370,-1.370,-9.591,4.789,7.315,12.468,35.278,27.041,-0.359,24.056,9.037,19.736,-1.353,1.872
Mon Dec 02 20:58:10 2024,850,-18.730,-18.730,-1.204,-1.204,-9.773,4.437,6.929,12.517,35.508,27.166,-0.296,24.765,9.014,19.749,-1.454,1.770
Mon Dec 02 20:58:10 2024,855,-18.750,-18.750,-1.063,-1.063,-9.943,4.126,6.583,12.577,35.756,27.319,-0.239,25.424,8.977,19.768,-1.548,1.682
Mon Dec 02 20:58:10 2024,860,-18.873,-18.873,-1.013,-1.013,-9.920,4.152,6.495,12.355,35.836,27.496,0.153,26.322,9.039,19.710,-1.448,1.589
Mon Dec 02 20:58:10 2024,865,-18.940,-18.940,-0.908,-0.908,-9.862,4.135,6.233,12.143,35.970,27.641,0.386,27.130,8.919,19.708,-1.433,1.542
Mon Dec 02 20:58:10 2024,870,-18.958,-18.958,-0.754,-0.754,-9.645,4.209,5.792,11.812,36.106,27.727,0.637,27.872,8.523,19.768,-1.471,1.583
Mon Dec 02 20:58:10 2024,875,-18.962,-18.962,-0.574,-0.574,-9.339,4.325,5.232,11.375,36.291,27.870,0.914,28.680,7.970,19.859,-1.536,1.693
Mon Dec 02 20:58:10 2024,880,-18.999,-18.999,-0.444,-0.444,-9.099,4.249,5.035,11.494,35.857,27.330,0.919,29.018,7.699,19.842,-1.686,1.705
Mon Dec 02 20:58:10 2024,885,-19.061,-19.061,-0.391,0.391,-8.894,4.051,5.048,11.970,35.131,26.184,0.767,29.087,7.590,19.762,-1.912,1.648
Mon Dec 02 20:58:10 2024,890,-19.118,-19.118,-0.415,0.415,-8.730,3.885,5.061,12.365,34.664,25.136,0.647,29.144,7.503,19.700,-2.113,1.604
Mon Dec 02 20:58:10 2024,895,-19.173,-19.173,-0.872,0.872,-7.852,4.551,5.460,13.055,34.478,24.014,0.532,29.834,7.836,19.560,-2.180,1.618
Mon Dec 02 20:58:10 2024,900,-19.234,-19.234,-1.313,1.313,-7.248,4.959,5.736,13.587,34.469,23.058,0.447,30.308,8.051,19.459,-2.264,1.628
Mon Dec 02 20:58:10 2024,905,-19.368,-19.368,-0.760,1.683,-7.049,5.127,6.243,15.900,3.730,22.608,0.158,30.524,9.087,19.326,-2.652,1.456
Mon Dec 02 20:58:10 2024,910,-19.513,-19.513,2.004,2.004,-6.986,5.210,6.781,18.431,1.465,22.406,-0.366,30.657,10.332,19.189,-3.127,1.248
Mon Dec 02 20:58:10 2024,915,-19.624,-19.624,2.256,2.256,-6.937,5.274,7.199,20.267,-0.286,22.308,-0.552,30.769,11.324,19.077,-3.516,1.098
Mon Dec 02 20:58:10 2024,920,-19.695,-19.695,2.519,2.519,-6.558,6.042,7.490,20.107,-0.147,22.930,-0.818,31.571,12.269,18.819,-3.715,1.162
Mon Dec 02 20:58:10 2024,925,-19.773,-19.773,2.765,2.765,-6.290,6.580,7.795,20.456,-0.493,23.336,-1.064,32.158,13.206,18.611,-3.971,1.208
Mon Dec 02 20:58:10 2024,930,-19.915,-19.915,2.968,2.968,-6.150,7.281,7.923,20.440,-0.638,24.326,-1.532,32.780,13.462,18.609,-4.210,1.399
Mon Dec 02 20:58:10 2024,935,-20.062,-20.062,3.165,3.165,-6.026,7.988,8.034,20.385,-0.910,25.434,-2.027,33.418,13.658,18.627,-4.450,1.662
Mon Dec 02 20:58:10 2024,940,-20.193,-20.193,3.334,3.334,-5.866,8.463,8.137,20.195,27.121,26.758,-2.579,33.978,13.960,18.819,-4.615,1.660
Mon Dec 02 20:58:10 2024,945,-20.312,-20.312,3.479,3.479,-5.683,8.746,8.236,19.887,41.498,28.262,-3.170,34.468,14.344,19.148,-4.714,1.426
Mon Dec 02 20:58:10 2024,950,-20.422,-20.422,3.612,3.612,-5.524,9.025,8.328,19.600,41.897,29.681,-3.705,34.935,14.685,19.427,-4.815,1.244
Mon Dec 02 20:58:10 2024,955,-20.852,-20.852,4.125,4.125,-5.224,9.631,8.648,20.012,42.862,31.292,-4.208,35.566,15.600,19.508,-5.042,0.787
Mon Dec 02 20:58:10 2024,960,-21.190,-21.190,4.528,4.528,-4.980,10.124,8.907,20.283,43.688,32.733,-4.660,36.113,16.358,19.606,-5.229,0.518
Mon Dec 02 20:58:10 2024,965,-21.380,-21.380,4.658,4.658,-4.797,10.521,9.136,20.419,44.347,33.919,-4.880,36.587,17.078,19.611,-5.210,0.476
Mon Dec 02 20:58:10 2024,970,-21.547,-21.547,4.740,4.740,-4.623,10.910,9.370,20.530,45.011,35.113,-5.063,37.064,17.834,19.599,-5.150,0.604
Mon Dec 02 20:58:10 2024,975,-21.795,-21.795,4.877,4.877,-4.434,11.362,9.624,20.675,45.782,36.433,-5.242,37.560,18.663,19.540,-5.034,0.791
Mon Dec 02 20:58:10 2024,980,-22.012,-22.012,5.008,5.008,-4.312,11.678,9.788,20.792,46.317,37.298,-5.338,37.860,19.198,19.464,-4.914,0.887
Mon Dec 02 20:58:10 2024,985,-22.257,-22.257,5.157,5.157,-4.175,12.036,9.975,20.924,46.935,38.285,-5.448,38.201,19.818,19.379,-4.778,1.001
Mon Dec 02 20:58:10 2024,990,-22.469,-22.469,5.227,5.227,-4.070,12.661,10.264,21.087,47.679,39.139,-5.389,38.662,20.443,19.178,-4.478,1.138
Mon Dec 02 20:58:10 2024,995,-22.620,-22.620,5.274,5.274,-3.998,13.120,10.479,21.207,48.232,39.752,-5.338,39.004,20.906,19.027,-4.252,1.242
Mon Dec 02 20:58:11 2024,0,-22.765,-22.765,5.331,5.331,-3.869,13.515,10.676,21.269,48.578,40.271,-5.444,39.354,21.493,18.919,-4.069,1.438
Mon Dec 02 20:58:11 2024,5,-22.893,-22.893,5.391,5.391,-3.714,13.840,10.842,21.289,48.761,40.685,-5.641,39.678,22.109,18.847,-3.928,1.675
Mon Dec 02 20:58:11 2024,10,-22.998,-22.998,5.439,5.439,-3.589,14.102,10.977,21.303,48.904,41.021,-5.809,39.943,22.621,18.789,-3.816,1.872
Mon Dec 02 20:58:11 2024,15,-23.130,-23.130,5.711,5.711,-3.365,14.450,11.041,21.304,49.163,41.616,-5.941,40.193,23.055,18.569,-3.705,1.924
Mon Dec 02 20:58:11 2024,20,-23.230,-23.230,5.901,5.901,-3.174,14.743,11.094,21.254,49.363,42.172,-6.048,40.442,23.477,18.420,-3.602,2.011
Mon Dec 02 20:58:11 2024,25,-23.290,-23.290,6.001,6.001,-2.937,15.073,11.123,20.966,49.523,43.079,-6.118,40.856,24.118,18.377,-3.446,2.250
Mon Dec 02 20:58:11 2024,30,-23.323,-23.323,6.049,6.049,-2.713,15.373,11.138,20.611,49.652,44.022,-6.165,41.287,24.778,18.384,-3.291,2.522
Mon Dec 02 20:58:11 2024,35,-23.355,-23.355,6.077,6.077,-2.443,15.744,11.173,20.198,49.828,45.103,-6.262,41.858,25.566,18.351,-3.043,2.922
Mon Dec 02 20:58:11 2024,40,-23.371,-23.371,6.011,6.011,-2.122,16.212,11.269,19.785,50.071,46.162,-6.500,42.686,26.414,18.168,-2.548,3.626
Mon Dec 02 20:58:11 2024,45,-23.383,-23.383,5.980,5.980,-1.864,16.569,11.340,19.468,50.312,47.068,-6.646,43.290,27.103,18.073,-2.233,4.126
Mon Dec 02 20:58:11 2024,50,-23.392,-23.392,5.998,5.998,-1.478,17.008,11.430,19.148,50.842,48.472,-6.667,43.916,28.023,18.109,-2.058,4.624
Mon Dec 02 20:58:11 2024,55,-23.398,-23.398,6.024,6.024,-1.143,17.363,11.506,18.891,51.346,49.705,-6.654,44.416,28.826,18.170,-1.959,5.015
Mon Dec 02 20:58:11 2024,60,-23.415,-23.415,6.041,6.041,-0.850,17.659,11.572,18.594,51.875,50.951,-6.649,44.935,29.710,18.253,-1.834,5.518
Mon Dec 02 20:58:11 2024,65,-23.465,-23.465,6.029,6.029,-0.752,17.742,11.590,18.247,52.335,51.956,-6.658,45.386,30.590,18.385,-1.650,6.260
Mon Dec 02 20:58:11 2024,70,-23.500,-23.500,6.025,6.025,-0.630,17.851,11.617,17.958,52.747,52.851,-6.668,45.785,31.351,18.480,-1.513,6.846
Mon Dec 02 20:58:11 2024,75,-23.605,-23.605,6.042,6.042,-0.615,18.088,11.674,18.152,53.324,53.448,-6.715,46.391,31.835,18.488,-1.394,7.024
Mon Dec 02 20:58:11 2024,80,-23.697,-23.697,6.055,6.055,-0.579,18.303,11.727,18.252,53.877,54.114,-6.759,46.971,32.402,18.513,-1.273,7.287
Mon Dec 02 20:58:11 2024,85,-23.750,-23.750,6.015,6.015,-0.452,18.527,11.765,18.326,54.368,54.806,-6.695,47.397,32.934,18.490,-1.138,7.482
Mon Dec 02 20:58:11 2024,90,-23.770,-23.770,5.941,5.941,-0.271,18.729,11.788,18.374,54.759,55.440,-6.558,47.664,33.380,18.435,-1.008,7.607
Mon Dec 02 20:58:11 2024,95,-23.795,-23.795,5.882,5.882,-0.122,18.903,11.812,18.423,55.133,56.024,-6.450,47.941,33.809,18.392,-0.890,7.736
Mon Dec 02 20:58:11 2024,100,-23.892,-23.892,5.950,5.950,0.000,19.045,11.657,18.643,55.172,55.622,-6.631,48.304,34.014,18.103,-0.498,7.979
Mon Dec 02 20:58:11 2024,105,-23.952,-23.952,5.977,5.977,0.117,19.147,11.574,18.779,55.275,55.516,-6.714,48.573,34.229,17.929,-0.251,8.145
Mon Dec 02 20:58:11 2024,110,-23.964,-23.964,5.850,5.850,0.281,19.320,11.614,18.882,55.492,55.760,-6.599,48.892,34.570,17.722,-0.012,8.330
Mon Dec 02 20:58:11 2024,115,-23.954,-23.954,5.648,5.648,0.470,19.423,11.713,18.966,55.763,56.176,-6.388,49.234,34.973,17.503,0.221,8.522
Mon Dec 02 20:58:11 2024,120,-23.948,-23.948,5.570,5.570,0.673,19.321,11.714,19.004,56.221,56.639,-6.308,49.805,35.419,17.272,0.535,8.729
Mon Dec 02 20:58:11 2024,125,-23.938,-23.938,5.589,5.589,0.846,20.050,11.655,18.985,56.744,57.090,-6.325,50.433,35.815,17.084,0.836,8.898
Mon Dec 02 20:58:11 2024,130,-23.928,-23.928,5.598,5.598,1.031,21.111,11.600,18.971,57.296,57.577,-6.338,51.101,36.258,16.882,1.151,9.078
Mon Dec 02 20:58:11 2024,135,-23.946,-23.946,5.641,5.641,1.216,21.441,11.525,18.922,58.055,58.149,-6.289,51.684,36.617,16.758,1.382,9.092
Mon Dec 02 20:58:11 2024,140,-23.972,-23.972,5.693,5.693,1.408,21.799,11.442,18.865,58.889,58.761,-6.223,52.272,36.973,16.645,1.605,9.073
Mon Dec 02 20:58:11 2024,145,-23.969,-23.969,5.705,5.705,1.561,22.049,11.401,18.881,59.647,59.885,-6.194,52.868,37.669,16.401,1.798,8.951
Mon Dec 02 20:58:11 2024,150,-23.964,-23.964,5.711,5.711,1.686,22.248,11.371,18.905,60.290,60.919,-6.174,53.374,38.323,16.182,1.955,8.835
Mon Dec 02 20:58:11 2024,155,-23.959,-23.959,5.719,5.719,1.824,22.466,11.338,18.932,61.004,62.082,-6.153,53.935,39.079,15.943,2.125,8.708
Mon Dec 02 20:58:11 2024,160,-23.913,-23.913,5.661,5.661,1.941,22.717,11.369,18.794,62.134,63.654,-5.951,54.807,40.370,15.827,2.450,9.073
Mon Dec 02 20:58:11 2024,165,-23.881,-23.881,5.623,5.623,2.051,22.941,11.385,18.702,63.085,65.015,-5.821,55.552,41.498,15.692,2.708,9.297
Mon Dec 02 20:58:11 2024,170,-23.828,-23.828,5.653,5.653,2.163,23.131,11.402,18.524,63.597,65.675,-5.770,55.974,42.094,15.671,2.748,9.249
Mon Dec 02 20:58:11 2024,175,-23.783,-23.783,5.675,5.675,2.261,23.303,11.418,18.369,64.078,66.301,-5.724,56.371,42.671,15.646,2.795,9.220
Mon Dec 02 20:58:11 2024,180,-23.731,-23.731,5.671,5.671,2.343,23.551,11.476,18.249,64.564,67.066,-5.637,56.860,43.324,15.566,2.917,9.266
Mon Dec 02 20:58:11 2024,185,-23.680,-23.680,5.646,5.646,2.399,23.823,11.557,18.177,64.972,67.815,-5.535,57.339,43.930,15.457,3.076,9.361
Mon Dec 02 20:58:11 2024,190,-23.635,-23.635,5.630,5.630,2.452,24.068,11.636,18.132,65.398,68.559,-5.475,57.789,44.545,15.374,3.204,9.437
Mon Dec 02 20:58:11 2024,195,-23.624,-23.624,5.658,5.658,2.474,24.091,11.689,18.221,65.772,69.028,-5.584,57.950,44.954,15.433,3.152,9.406
Mon Dec 02 20:58:11 2024,200,-23.614,-23.614,5.682,5.682,2.495,24.115,11.736,18.299,66.107,69.452,-5.678,58.099,45.328,15.482,3.109,9.380
Mon Dec 02 20:58:11 2024,205,-23.583,-23.583,5.679,5.679,2.486,24.137,11.792,18.218,66.527,70.073,-5.681,58.427,45.994,15.452,3.154,9.346
Mon Dec 02 20:58:11 2024,210,-23.547,-23.547,5.669,5.669,2.471,24.158,11.852,18.098,66.973,70.744,-5.667,58.803,46.752,15.403,3.221,9.309
Mon Dec 02 20:58:11 2024,215,-23.540,-23.540,5.672,5.672,2.431,24.158,11.884,17.974,67.297,71.279,-5.624,59.071,47.317,15.348,3.261,9.238
Mon Dec 02 20:58:11 2024,220,-23.608,-23.608,5.713,5.713,2.308,24.102,11.856,17.790,67.418,71.672,-5.476,59.152,47.556,15.258,3.238,9.044
Mon Dec 02 20:58:11 2024,225,-23.652,-23.652,5.741,5.741,2.220,24.068,11.841,17.649,67.547,72.012,-5.376,59.245,47.801,15.190,3.228,8.904
Mon Dec 02 20:58:11 2024,230,-23.641,-23.641,5.690,5.690,2.162,24.080,11.860,17.549,67.748,72.450,-5.254,59.537,48.551,15.133,3.294,9.007
Mon Dec 02 20:58:11 2024,235,-23.630,-23.630,5.646,5.646,2.112,24.092,11.877,17.464,67.922,72.828,-5.159,59.791,49.204,15.084,3.352,9.098
Mon Dec 02 20:58:11 2024,240,-23.594,-23.594,5.655,5.655,2.074,24.041,11.875,17.308,68.153,73.253,-5.168,59.967,49.713,15.138,3.319,9.154
Mon Dec 02 20:58:11 2024,245,-23.536,-23.536,5.704,5.704,2.045,23.941,11.858,17.099,68.424,73.707,-5.253,60.078,50.104,15.270,3.218,9.185
Mon Dec 02 20:58:11 2024,250,-23.488,-23.488,5.747,5.747,2.021,23.858,11.844,16.921,68.656,74.090,-5.326,60.172,50.438,15.380,3.132,9.211
Mon Dec 02 20:58:11 2024,255,-23.527,-23.527,5.780,5.780,2.054,24.156,11.930,16.860,68.896,74.447,-5.215,60.515,50.773,15.313,3.182,9.149
Mon Dec 02 20:58:11 2024,260,-23.557,-23.557,5.816,5.816,2.082,24.413,12.005,16.784,69.140,74.812,-5.142,60.835,51.122,15.269,3.214,9.098
Mon Dec 02 20:58:11 2024,265,-23.525,-23.525,5.864,5.864,2.034,24.449,12.073,16.652,69.312,74.953,-5.167,60.868,51.291,15.377,3.091,8.958
Mon Dec 02 20:58:11 2024,270,-23.492,-23.492,5.902,5.902,1.988,24.442,12.120,16.548,69.426,75.018,-5.201,60.847,51.384,15.480,2.977,8.843
Mon Dec 02 20:58:11 2024,275,-23.446,-23.446,5.946,5.946,1.929,24.433,12.188,16.374,69.536,75.114,-5.246,60.839,51.512,15.612,2.829,8.711
Mon Dec 02 20:58:11 2024,280,-23.402,-23.402,5.970,5.970,1.884,24.424,12.265,16.122,69.516,75.235,-5.282,60.883,51.634,15.714,2.709,8.651
Mon Dec 02 20:58:11 2024,285,-23.366,-23.366,5.993,5.993,1.845,24.418,12.329,15.922,69.517,75.327,-5.314,60.912,51.736,15.804,2.605,8.591
Mon Dec 02 20:58:11 2024,290,-23.202,-23.202,5.938,5.938,1.840,24.479,12.429,15.630,69.665,74.967,-5.388,60.708,51.275,16.131,2.283,8.427
Mon Dec 02 20:58:11 2024,295,-23.057,-23.057,5.886,5.886,1.839,24.535,12.515,15.384,69.798,74.633,-5.458,60.523,50.858,16.420,2.000,8.286
Mon Dec 02 20:58:11 2024,300,-22.924,-22.924,5.868,5.868,1.875,24.556,12.642,15.112,69.976,74.414,-5.530,60.312,50.586,16.673,1.703,8.134
Mon Dec 02 20:58:11 2024,305,-22.868,-22.868,5.941,5.941,1.991,24.481,12.828,14.872,70.201,74.553,-5.575,60.106,50.755,16.745,1.478,8.008
Mon Dec 02 20:58:11 2024,310,-22.786,-22.786,5.992,5.992,2.090,24.435,13.010,14.610,70.424,74.577,-5.635,59.887,50.803,16.877,1.212,7.870
Mon Dec 02 20:58:11 2024,315,-22.628,-22.628,5.951,5.951,2.182,24.388,13.183,14.355,70.237,74.180,-5.749,59.320,50.126,17.026,1.005,7.796
Mon Dec 02 20:58:11 2024,320,-22.490,-22.490,5.927,5.927,2.270,24.347,13.350,14.113,70.126,73.878,-5.858,58.845,49.620,17.165,0.797,7.718
Mon Dec 02 20:58:11 2024,325,-22.328,-22.328,5.924,5.924,2.239,24.179,13.435,14.162,69.536,72.767,-5.857,57.986,48.243,17.170,0.690,7.437
Mon Dec 02 20:58:11 2024,330,-22.132,-22.132,5.934,5.934,2.115,23.897,13.467,14.438,68.541,70.943,-5.783,56.760,46.126,17.078,0.646,6.979
Mon Dec 02 20:58:11 2024,335,-21.992,-21.992,5.939,5.939,2.043,23.711,13.501,14.604,67.901,69.747,-5.757,55.938,44.778,17.031,0.595,6.682
Mon Dec 02 20:58:11 2024,340,-21.815,-21.815,5.755,5.755,2.011,23.370,13.618,15.151,65.501,66.896,-5.343,53.925,41.889,16.718,0.431,6.431
Mon Dec 02 20:58:11 2024,345,-21.653,-21.653,5.627,5.627,1.969,23.090,13.710,15.607,63.696,64.529,-5.079,52.322,39.718,16.483,0.274,6.195
Mon Dec 02 20:58:11 2024,350,-21.418,-21.418,5.579,5.579,1.804,22.909,13.912,16.006,60.372,59.634,-4.786,49.983,36.189,16.436,-0.119,5.968
Mon Dec 02 20:58:11 2024,355,-21.195,-21.195,5.532,5.532,1.647,22.739,14.104,16.396,57.312,55.089,-4.559,47.802,33.326,16.386,-0.508,5.779
Mon Dec 02 20:58:11 2024,360,-20.979,-20.979,5.381,5.381,1.317,22.431,14.138,16.281,53.538,50.025,-4.481,45.532,30.453,16.442,-0.710,5.747
Mon Dec 02 20:58:11 2024,365,-20.783,-20.783,5.156,5.156,0.864,22.061,14.037,15.785,49.505,45.100,-4.538,43.389,27.884,16.584,-0.732,5.830
Mon Dec 02 20:58:11 2024,370,-20.654,-20.654,4.913,4.913,0.394,21.858,13.886,14.746,46.508,41.427,-4.655,41.504,25.603,16.632,-0.593,5.698
Mon Dec 02 20:58:11 2024,375,-20.702,-20.702,4.639,4.639,-0.094,22.033,13.616,12.400,45.908,39.760,-4.849,40.226,23.345,16.449,-0.066,5.058
Mon Dec 02 20:58:11 2024,380,-20.751,-20.751,4.378,4.378,-0.560,22.307,13.357,10.170,45.525,38.132,-5.046,39.041,21.301,16.278,0.431,4.446
Mon Dec 02 20:58:11 2024,385,-20.591,-20.591,4.159,4.159,-0.701,22.348,13.092,8.422,43.954,35.529,-4.541,36.701,20.115,16.339,0.634,4.442
Mon Dec 02 20:58:11 2024,390,-20.434,-20.434,4.027,4.027,-0.711,22.306,12.918,7.458,42.679,33.822,-4.054,34.904,19.591,16.433,0.691,4.593
Mon Dec 02 20:58:11 2024,395,-20.199,-20.199,3.884,3.884,-0.640,22.437,12.492,6.603,40.817,31.270,-3.634,32.919,18.732,16.445,0.873,4.771
Mon Dec 02 20:58:11 2024,400,-19.813,-19.813,3.775,3.775,-0.314,23.146,11.388,6.458,37.691,26.514,-3.639,31.331,16.974,16.155,1.427,4.950
Mon Dec 02 20:58:11 2024,405,-19.477,-19.477,3.671,3.671,-0.072,23.774,10.441,6.236,35.086,22.747,-3.584,29.811,15.519,15.916,1.891,5.158
Mon Dec 02 20:58:11 2024,410,-19.530,-19.530,3.478,3.478,-0.050,24.081,10.058,5.966,33.442,19.972,-3.526,28.796,14.409,15.866,1.874,4.924
Mon Dec 02 20:58:11 2024,415,-19.580,-19.580,-3.277,3.277,0.056,24.408,9.633,5.670,31.726,17.153,-3.475,27.732,13.237,15.810,1.862,4.679
Mon Dec 02 20:58:11 2024,420,-19.605,-19.605,-3.013,3.013,0.082,24.581,9.487,5.384,30.193,15.706,-3.481,26.671,12.359,15.831,1.841,4.563
Mon Dec 02 20:58:11 2024,425,-19.617,-19.617,-2.752,2.752,0.114,24.660,9.492,5.135,28.939,15.030,-3.516,25.786,11.738,15.887,1.819,4.524
Mon Dec 02 20:58:11 2024,430,-19.613,-19.613,-2.478,2.478,0.145,24.715,9.464,4.846,27.764,14.341,-3.578,24.955,11.044,15.956,1.804,4.468
Mon Dec 02 20:58:11 2024,435,-19.557,-19.557,-2.220,2.220,0.161,24.702,9.358,4.524,26.959,13.746,-3.681,24.312,10.256,16.052,1.808,4.374
Mon Dec 02 20:58:11 2024,440,-19.506,-19.506,-1.973,1.973,0.177,24.687,9.254,4.206,26.174,13.160,-3.786,23.936,9.508,16.143,1.812,4.285
Mon Dec 02 20:58:11 2024,445,-19.495,-19.495,-1.668,1.668,0.036,24.662,9.280,3.768,25.332,12.885,-3.997,24.005,9.147,16.149,1.931,4.459
Mon Dec 02 20:58:11 2024,450,-19.498,-19.498,-1.440,1.440,-0.115,24.644,9.328,3.427,24.712,12.756,-4.170,24.179,8.975,16.132,2.042,4.642
Mon Dec 02 20:58:11 2024,455,-19.501,-19.501,-1.217,1.217,-0.234,24.630,9.377,3.083,24.088,12.622,-4.343,24.409,8.809,16.114,2.154,4.828
Mon Dec 02 20:58:11 2024,460,-19.433,-19.433,-1.012,1.012,-0.306,24.619,9.444,2.845,23.781,12.771,-4.418,15.463,8.849,16.314,2.027,5.014
Mon Dec 02 20:58:11 2024,465,-19.387,-19.387,-0.868,0.868,-0.387,24.611,9.502,2.603,23.425,12.841,-4.508,15.299,8.843,16.446,1.964,5.186
Mon Dec 02 20:58:11 2024,470,-19.427,-19.427,-0.838,0.838,-0.482,24.560,9.458,2.503,23.161,12.692,-4.588,15.149,8.750,16.310,2.074,5.177
Mon Dec 02 20:58:11 2024,475,-19.472,-19.472,-0.816,0.816,-0.577,24.510,9.408,2.412,22.916,12.533,-4.667,14.995,8.654,16.161,2.192,5.158
Mon Dec 02 20:58:11 2024,480,-19.490,-19.490,-0.796,0.796,-0.582,24.447,9.452,2.424,22.741,12.478,-4.719,14.804,8.576,16.058,2.248,5.183
Mon Dec 02 20:58:11 2024,485,-19.493,-19.493,-0.788,0.788,-0.546,24.392,9.530,2.481,22.666,12.484,-4.747,14.626,8.523,15.998,2.261,5.223
Mon Dec 02 20:58:11 2024,490,-19.513,-19.513,-0.783,0.783,-0.542,24.344,9.610,2.504,20.050,12.468,-4.799,14.401,8.465,15.933,2.289,5.272
Mon Dec 02 20:58:11 2024,495,-19.573,-19.573,-0.779,0.779,-0.643,24.349,9.646,2.405,17.583,12.397,-4.888,14.208,8.418,15.892,2.346,5.314
Mon Dec 02 20:58:11 2024,500,-19.627,-19.627,-0.776,0.776,-0.734,24.354,9.681,2.316,17.683,12.333,-4.970,14.029,8.378,15.854,2.398,5.354
Mon Dec 02 20:58:11 2024,505,-19.679,-19.679,-0.778,0.778,-0.744,24.370,9.684,2.198,17.758,12.257,-5.036,13.774,8.325,15.872,2.386,5.430
Mon Dec 02 20:58:11 2024,510,-19.731,-19.731,-0.779,0.779,-0.735,24.387,9.680,2.073,17.777,12.178,-5.101,13.493,8.271,15.903,2.358,5.514
Mon Dec 02 20:58:11 2024,515,-19.741,-19.741,-0.774,0.774,-0.713,24.415,9.714,1.961,17.745,12.148,-5.190,13.218,8.230,15.925,2.359,5.608
Mon Dec 02 20:58:11 2024,520,-19.699,-19.699,-0.766,0.766,-0.671,24.456,9.798,1.864,17.700,12.180,-5.308,12.955,8.204,15.937,2.393,5.716
Mon Dec 02 20:58:11 2024,525,-19.668,-19.668,-0.766,0.766,-0.639,24.489,9.862,1.788,17.643,12.202,-5.399,12.750,8.185,15.946,2.418,5.801
Mon Dec 02 20:58:11 2024,530,-19.672,-19.672,-0.782,0.782,-0.629,24.569,9.942,1.592,17.506,12.051,-5.476,12.495,8.058,15.825,2.536,5.799
Mon Dec 02 20:58:11 2024,535,-19.677,-19.677,-0.794,0.794,-0.623,24.635,10.007,1.429,17.348,11.922,-5.537,12.288,7.952,15.722,2.635,5.794
Mon Dec 02 20:58:11 2024,540,-19.679,-19.679,-0.783,0.783,-0.565,24.668,10.061,1.297,17.110,11.818,-5.590,12.102,7.918,15.639,2.722,5.853
Mon Dec 02 20:58:11 2024,545,-19.677,-19.677,-0.751,0.751,-0.454,24.678,10.114,1.178,16.780,11.722,-5.642,11.914,7.941,15.564,2.810,5.975
Mon Dec 02 20:58:11 2024,550,-19.676,-19.676,-0.720,0.720,-0.346,24.696,10.169,1.049,16.420,11.619,-5.698,11.715,7.955,15.482,2.901,6.094
Mon Dec 02 20:58:11 2024,555,-19.664,-19.664,-0.799,-0.799,-0.440,24.687,10.289,0.798,16.137,11.587,-5.927,11.303,7.884,15.430,3.051,6.231
Mon Dec 02 20:58:11 2024,560,-19.656,-19.656,-0.865,-0.865,-0.486,24.685,10.375,0.615,15.880,11.550,-6.085,11.006,7.841,15.386,3.160,6.338
Mon Dec 02 20:58:11 2024,565,-19.665,-19.665,-0.874,-0.874,-0.396,24.697,10.418,0.460,15.499,11.386,-6.195,10.648,7.735,15.336,3.198,6.380
Mon Dec 02 20:58:11 2024,570,-19.694,-19.694,-0.812,-0.006,-0.141,24.734,10.414,0.330,14.952,11.064,-6.257,10.194,7.546,15.276,3.154,6.350
Mon Dec 02 20:58:11 2024,575,-19.679,-19.679,-0.821,-0.291,-0.066,24.690,10.388,0.150,14.532,10.810,-6.334,9.847,7.404,15.177,3.216,6.368
Mon Dec 02 20:58:11 2024,580,-19.618,-19.618,-0.889,-0.889,-0.228,24.554,10.318,-0.170,14.244,10.595,-6.396,9.644,7.300,15.036,3.367,6.411
Mon Dec 02 20:58:11 2024,585,-19.572,-19.572,-0.944,-0.944,-0.334,24.452,10.262,-0.392,13.942,10.388,-6.449,9.437,7.199,14.905,3.518,6.461
Mon Dec 02 20:58:11 2024,590,-19.579,-19.579,-0.879,-0.879,-0.318,24.473,10.263,-0.534,13.688,10.252,-6.460,9.271,7.127,14.823,3.659,6.542
Mon Dec 02 20:58:11 2024,595,-19.592,-19.592,-0.820,-0.285,-0.292,24.506,10.271,-0.650,13.468,10.139,-6.465,9.127,7.067,14.756,3.783,6.617
Mon Dec 02 20:58:11 2024,600,-19.604,-19.604,-0.786,0.786,-0.269,24.534,10.277,-0.747,13.282,10.045,-6.469,9.005,7.017,14.700,3.886,6.680
Mon Dec 02 20:58:11 2024,605,-19.624,-19.624,-0.840,-0.840,-0.355,24.579,10.213,-0.833,12.966,9.839,-6.519,8.795,6.897,14.432,4.035,6.574
Mon Dec 02 20:58:11 2024,610,-19.637,-19.637,-0.859,-0.859,-0.390,24.607,10.184,-0.899,12.772,9.720,-6.544,8.665,6.829,14.292,4.129,6.540
Mon Dec 02 20:58:11 2024,615,-19.647,-19.647,-0.826,0.826,-0.385,24.298,10.116,-1.017,12.278,9.510,-6.539,8.437,6.780,14.308,4.110,6.632
Mon Dec 02 20:58:11 2024,620,-19.655,-19.655,-0.807,0.807,-0.384,24.075,10.063,-1.111,11.900,9.346,-6.537,8.256,6.738,14.307,4.105,6.695
Mon Dec 02 20:58:11 2024,625,-19.714,-19.714,-0.810,0.810,-0.383,23.998,9.972,-1.342,11.404,9.035,-6.468,8.134,6.594,14.176,4.171,6.586
Mon Dec 02 20:58:11 2024,630,-19.778,-19.778,-0.818,0.818,-0.382,23.958,9.880,-1.588,10.918,8.719,-6.390,8.031,6.440,14.026,4.246,6.450
Mon Dec 02 20:58:11 2024,635,-19.835,-19.835,-0.826,0.826,-0.381,23.922,9.799,-1.807,10.490,8.444,-6.321,7.938,6.304,13.894,4.311,6.330
Mon Dec 02 20:58:11 2024,640,-19.912,-19.912,-0.783,0.783,-0.380,23.815,9.775,-2.212,9.927,8.158,-6.222,7.752,6.230,13.718,4.443,6.407
Mon Dec 02 20:58:11 2024,645,-19.970,-19.970,-0.780,0.780,-0.379,23.745,9.742,-2.500,9.499,7.933,-6.150,7.619,6.157,13.585,4.533,6.426
Mon Dec 02 20:58:11 2024,650,-20.045,-20.045,-0.777,0.777,-0.361,23.773,9.746,-2.718,9.389,7.831,-6.068,7.661,6.088,13.667,4.506,6.358
Mon Dec 02 20:58:11 2024,655,-20.111,-20.111,-0.777,0.777,-0.345,23.797,9.749,-2.903,9.294,7.743,-5.999,7.697,6.029,13.737,4.482,6.300
Mon Dec 02 20:58:11 2024,660,-20.150,-20.150,-0.775,0.775,-0.394,23.664,9.672,-3.019,9.196,7.710,-5.987,7.748,6.023,13.702,4.504,6.240
Mon Dec 02 20:58:11 2024,665,-20.176,-20.176,-0.776,0.776,-0.475,23.462,9.559,-3.101,9.097,7.700,-6.003,7.807,6.040,13.618,4.546,6.180
Mon Dec 02 20:58:11 2024,670,-20.201,-20.201,-0.785,0.785,-0.553,23.270,9.449,-3.179,9.000,7.691,-6.019,7.862,6.058,13.536,4.586,6.123
Mon Dec 02 20:58:11 2024,675,-20.304,-20.304,-0.801,0.801,-0.523,23.291,9.553,-3.242,9.008,7.640,-5.936,8.104,6.089,13.655,4.455,6.093
Mon Dec 02 20:58:11 2024,680,-20.390,-20.390,-0.821,0.821,-0.511,23.279,9.618,-3.304,8.999,7.598,-5.872,8.305,6.116,13.736,4.357,6.059
Mon Dec 02 20:58:11 2024,685,-20.468,-20.468,-0.839,0.839,-0.501,23.268,9.676,-3.359,8.991,7.561,-5.815,8.484,6.141,13.809,4.269,6.030
Mon Dec 02 20:58:11 2024,690,-20.504,-20.504,-0.849,0.849,-0.496,23.263,9.703,-3.385,8.988,7.544,-5.788,8.566,6.152,13.843,4.229,6.016
Mon Dec 02 20:58:11 2024,695,-20.659,-20.659,-0.894,0.894,-0.708,23.045,9.487,-3.543,8.787,7.396,-5.852,8.570,6.115,13.806,4.216,5.953
Mon Dec 02 20:58:11 2024,700,-20.816,-20.816,-0.950,0.950,-0.893,22.859,9.308,-3.697,8.606,7.258,-5.895,8.615,6.089,13.789,4.185,5.891
Mon Dec 02 20:58:11 2024,705,-20.934,-20.934,-1.003,1.003,-1.003,22.755,9.215,-3.805,8.494,7.163,-5.906,8.690,6.079,13.800,4.141,5.845
Mon Dec 02 20:58:11 2024,710,-21.166,-21.166,-1.104,1.104,-1.108,22.762,9.118,-3.811,8.575,7.075,-5.963,8.724,6.024,13.964,3.970,5.832
Mon Dec 02 20:58:11 2024,715,-21.372,-21.372,-1.200,1.200,-1.202,22.771,9.033,-3.817,8.646,6.995,-6.014,8.753,5.976,14.109,3.818,5.819
Mon Dec 02 20:58:11 2024,720,-21.541,-21.541,-1.230,1.230,-1.366,22.725,8.873,-3.856,8.789,6.928,-5.989,8.908,5.943,14.376,3.575,5.782
Mon Dec 02 20:58:11 2024,725,-21.616,-21.616,-1.174,1.174,-1.553,22.646,8.683,-3.919,8.966,6.896,-5.888,9.150,5.937,14.690,3.308,5.729
Mon Dec 02 20:58:11 2024,730,-21.699,-21.699,-1.132,1.132,-1.726,22.603,8.508,-3.977,9.128,6.861,-5.804,9.367,5.927,14.982,3.057,5.683
Mon Dec 02 20:58:11 2024,735,-21.843,-21.843,-1.174,1.174,-1.896,22.452,8.408,-3.987,9.164,6.865,-5.839,9.343,5.946,15.212,2.898,5.808
Mon Dec 02 20:58:11 2024,740,-21.942,-21.942,-1.194,1.194,-2.023,22.399,8.322,-4.002,9.210,6.862,-5.847,9.362,5.957,15.394,2.764,5.876
Mon Dec 02 20:58:11 2024,745,-22.052,-22.052,-1.134,1.134,-2.140,22.402,8.236,-3.826,9.479,6.879,-5.837,9.517,5.959,15.637,2.528,5.844
Mon Dec 02 20:58:11 2024,750,-22.166,-22.166,-1.046,1.046,-2.252,22.433,8.151,-3.581,9.827,6.904,-5.820,9.719,5.958,15.901,2.258,5.775
Mon Dec 02 20:58:11 2024,755,-22.240,-22.240,-0.965,0.965,-2.343,22.462,8.094,-3.392,10.090,6.952,-5.766,9.914,5.991,16.138,2.014,5.735
Mon Dec 02 20:58:11 2024,760,-22.275,-22.275,-0.850,0.850,-2.444,22.494,8.057,-3.201,10.341,7.074,-5.606,10.214,6.112,16.467,1.675,5.728
Mon Dec 02 20:58:11 2024,765,-22.304,-22.304,-0.773,0.773,-2.515,22.535,8.028,-3.065,10.521,7.156,-5.500,10.421,6.193,16.698,1.438,5.720
Mon Dec 02 20:58:11 2024,770,-22.441,-22.441,-0.775,0.775,-2.613,22.614,7.931,-2.966,10.686,7.194,-5.463,10.631,6.276,16.965,1.134,5.636
Mon Dec 02 20:58:11 2024,775,-22.562,-22.562,-0.778,0.778,-2.698,22.698,7.845,-2.880,10.830,7.226,-5.432,10.812,6.350,17.199,0.868,5.562
Mon Dec 02 20:58:11 2024,780,-22.674,-22.674,-0.727,0.727,-2.799,22.807,7.817,-2.843,10.924,7.269,-5.341,11.078,6.448,17.441,0.589,5.497
Mon Dec 02 20:58:11 2024,785,-22.803,-22.803,-0.612,0.612,-2.941,22.966,7.840,-2.846,10.995,7.333,-5.168,11.493,6.594,17.750,0.231,5.425
Mon Dec 02 20:58:11 2024,790,-22.904,-22.904,-0.536,0.536,-3.052,23.094,7.854,-2.844,11.054,7.383,-5.037,11.811,6.708,17.993,-0.051,5.368
Mon Dec 02 20:58:11 2024,795,-23.017,-23.017,-0.485,0.485,-3.217,23.268,7.776,-2.992,10.937,7.363,-4.793,12.517,7.019,18.271,-0.182,5.488
Mon Dec 02 20:58:11 2024,800,-23.113,-23.113,-0.448,0.448,-3.351,23.413,7.725,-3.095,10.865,7.358,-4.607,13.054,7.257,18.507,-0.326,5.562
Mon Dec 02 20:58:11 2024,805,-23.223,-23.223,-0.473,0.473,-3.361,23.427,7.820,-3.135,10.666,7.285,-4.261,13.846,7.468,18.686,-0.567,5.417
Mon Dec 02 20:58:11 2024,810,-23.318,-23.318,-0.526,0.526,-3.351,23.420,7.921,-3.161,10.483,7.214,-3.949,14.532,7.640,18.826,-0.783,5.265
Mon Dec 02 20:58:11 2024,815,-23.402,-23.402,-0.586,0.586,-3.342,23.413,8.013,-3.185,10.315,7.150,-3.668,15.145,7.796,18.953,-0.979,5.130
Mon Dec 02 20:58:11 2024,820,-23.663,-23.663,-0.716,0.716,-3.508,23.582,8.071,-3.120,10.532,7.207,-3.345,16.308,8.362,19.099,-1.214,4.888
Mon Dec 02 20:58:11 2024,825,-23.825,-23.825,-0.815,0.815,-3.598,23.674,8.121,-3.088,10.620,7.226,-3.112,21.954,8.717,19.205,-1.385,4.728
Mon Dec 02 20:58:11 2024,830,-23.864,-23.864,-0.894,0.894,-3.651,21.229,8.231,-2.761,10.956,7.539,-2.952,23.031,9.315,19.496,-1.672,4.749
Mon Dec 02 20:58:11 2024,835,-23.909,-23.909,-0.304,0.982,-3.706,16.194,8.342,-2.436,11.289,7.852,-2.792,23.342,9.931,19.789,-1.963,4.765
Mon Dec 02 20:58:11 2024,840,-23.945,-23.945,1.056,1.056,-3.748,16.141,8.429,-2.182,11.549,8.099,-2.671,23.839,10.421,20.020,-2.193,4.778
Mon Dec 02 20:58:11 2024,845,-24.022,-24.022,1.396,1.396,-3.743,16.112,8.336,-1.672,12.089,8.232,-2.362,24.820,11.238,20.359,-2.548,4.563
Mon Dec 02 20:58:11 2024,850,-24.082,-24.082,1.643,1.643,-3.755,16.073,8.307,-1.265,12.505,8.398,-2.126,25.840,11.956,20.653,-2.853,4.431
Mon Dec 02 20:58:11 2024,855,-24.172,-24.172,1.826,1.826,-3.899,22.690,8.440,-1.031,12.698,8.498,-1.959,27.644,13.485,20.756,-3.128,4.334
Mon Dec 02 20:58:11 2024,860,-24.257,-24.257,2.017,2.017,-4.025,24.077,8.553,-0.782,12.906,8.603,-1.790,29.409,14.971,20.878,-3.404,4.232
Mon Dec 02 20:58:11 2024,865,-24.354,-24.354,2.424,2.424,-3.965,23.994,8.803,-0.418,13.296,8.923,-1.570,30.644,16.868,21.059,-3.773,4.717
Mon Dec 02 20:58:11 2024,870,-24.434,-24.434,2.782,2.782,-3.892,23.908,9.022,-0.143,13.619,9.204,-1.387,31.594,18.537,21.210,-4.084,5.241
Mon Dec 02 20:58:11 2024,875,-24.534,-24.534,3.190,3.190,-3.851,23.854,9.253,0.192,13.872,9.138,-1.205,33.056,20.662,21.360,-4.302,6.110
Mon Dec 02 20:58:11 2024,880,-24.648,-24.648,3.596,3.596,-3.879,23.888,9.451,0.247,13.962,8.463,-1.087,35.129,23.180,21.479,-4.296,7.378
Mon Dec 02 20:58:11 2024,885,-24.754,-24.754,3.983,3.983,-3.905,23.955,9.640,0.310,14.057,7.885,-1.044,37.171,25.903,21.592,-4.304,8.608
