Timestamp,Millis,thumb_tm_aa,thumb_tm_flex,thumb_mcp_aa,thumb_mcp_flex,index_mcp_aa,index_mcp_flex,index_pip,middle_mcp_aa,middle_mcp_flex,middle_pip,ring_mcp_aa,ring_mcp_flex,ring_pip,little_mcp_aa,little_mcp_flex,little_pip
Mon Dec 02 21:09:27 2024,160,-24.174,-24.174,-0.951,-0.951,-2.178,17.413,7.412,1.531,15.299,9.480,-4.292,9.398,6.847,12.375,6.919,6.063
Mon Dec 02 21:09:27 2024,165,-24.142,-24.142,-0.964,-0.964,-2.164,17.452,7.388,1.572,15.351,9.468,-4.254,9.458,6.816,12.379,6.916,6.001
Mon Dec 02 21:09:27 2024,170,-24.113,-24.113,-0.958,-0.958,-2.131,17.518,7.358,1.654,15.390,9.466,-4.181,9.505,6.769,12.363,6.932,5.918
Mon Dec 02 21:09:27 2024,175,-24.089,-24.089,-0.953,-0.953,-2.104,17.570,7.334,1.720,15.419,9.465,-4.122,9.543,6.731,12.350,6.946,5.852
Mon Dec 02 21:09:27 2024,180,-24.118,-24.118,-0.905,-0.905,-2.112,17.572,7.331,1.709,15.455,9.442,-4.133,9.503,6.709,12.351,6.926,5.868
Mon Dec 02 21:09:27 2024,185,-24.146,-24.146,-0.856,-0.856,-2.120,17.574,7.328,1.697,15.491,9.419,-4.144,9.463,6.688,12.351,6.906,5.885
Mon Dec 02 21:09:27 2024,190,-24.144,-24.144,-0.888,-0.888,-2.122,17.565,7.320,1.705,15.511,9.440,-4.132,9.460,6.683,12.354,6.900,5.862
Mon Dec 02 21:09:27 2024,195,-24.120,-24.120,-0.980,-0.980,-2.121,17.547,7.306,1.726,15.526,9.495,-4.102,9.484,6.689,12.360,6.903,5.808
Mon Dec 02 21:09:27 2024,200,-24.098,-24.098,-1.052,-1.052,-2.124,17.518,7.292,1.744,15.532,9.544,-4.082,9.479,6.698,12.371,6.897,5.784
Mon Dec 02 21:09:27 2024,205,-24.071,-24.071,-1.066,-1.066,-2.141,17.434,7.267,1.752,15.500,9.584,-4.103,9.346,6.728,12.412,6.848,5.878
Mon Dec 02 21:09:27 2024,210,-24.048,-24.048,-1.074,-1.074,-2.156,17.362,7.247,1.757,15.472,9.616,-4.122,9.231,6.752,12.446,6.806,5.960
Mon Dec 02 21:09:27 2024,215,-24.061,-24.061,-1.049,-1.049,-2.143,17.355,7.216,1.736,15.388,9.545,-4.098,9.203,6.729,12.433,6.800,5.927
Mon Dec 02 21:09:27 2024,220,-24.088,-24.088,-1.015,-1.015,-2.120,17.382,7.188,1.706,15.296,9.444,-4.060,9.222,6.689,12.403,6.812,5.847
Mon Dec 02 21:09:27 2024,225,-24.086,-24.086,-1.025,-1.025,-2.099,17.407,7.184,1.691,15.225,9.379,-4.037,9.246,6.659,12.393,6.814,5.790
Mon Dec 02 21:09:27 2024,230,-24.008,-24.008,-1.161,-1.161,-2.081,17.427,7.250,1.722,15.216,9.414,-4.054,9.289,6.656,12.446,6.788,5.797
Mon Dec 02 21:09:27 2024,235,-23.944,-23.944,-1.273,-1.273,-2.067,17.443,7.304,1.748,15.207,9.442,-4.068,9.324,6.654,12.489,6.766,5.803
Mon Dec 02 21:09:27 2024,240,-23.966,-23.966,-1.142,-1.142,-2.101,17.448,7.316,1.764,15.311,9.514,-4.034,9.363,6.707,12.528,6.735,5.847
Mon Dec 02 21:09:27 2024,245,-24.014,-24.014,-0.945,-0.945,-2.147,17.446,7.313,1.775,15.441,9.593,-3.988,9.400,6.774,12.562,6.702,5.901
Mon Dec 02 21:09:27 2024,250,-24.030,-24.030,-0.873,-0.873,-2.161,17.425,7.292,1.788,15.471,9.600,-3.997,9.366,6.761,12.549,6.706,5.901
Mon Dec 02 21:09:27 2024,255,-24.007,-24.007,-0.954,-0.954,-2.136,17.370,7.244,1.804,15.378,9.512,-4.084,9.232,6.640,12.471,6.758,5.830
Mon Dec 02 21:09:27 2024,260,-23.984,-23.984,-1.022,-1.022,-2.105,17.325,7.210,1.810,15.268,9.438,-4.156,9.094,6.540,12.407,6.788,5.767
Mon Dec 02 21:09:27 2024,265,-23.970,-23.970,-1.034,-1.034,-2.067,17.328,7.222,1.791,15.147,9.429,-4.171,8.988,6.522,12.393,6.751,5.744
Mon Dec 02 21:09:27 2024,270,-23.959,-23.959,-1.020,-1.020,-2.023,17.355,7.258,1.757,15.010,9.449,-4.158,8.885,6.542,12.402,6.676,5.738
Mon Dec 02 21:09:27 2024,275,-23.957,-23.957,-1.003,-1.003,-1.997,17.401,7.263,1.763,14.959,9.428,-4.118,8.910,6.537,12.444,6.622,5.723
Mon Dec 02 21:09:27 2024,280,-23.966,-23.966,-0.978,-0.978,-1.987,17.484,7.229,1.821,15.006,9.345,-4.027,9.113,6.500,12.544,6.578,5.691
Mon Dec 02 21:09:27 2024,285,-23.973,-23.973,-0.959,-0.959,-1.979,17.548,7.202,1.866,15.042,9.279,-3.955,9.273,6.469,12.623,6.542,5.666
Mon Dec 02 21:09:27 2024,290,-23.936,-23.936,-1.025,-1.025,-1.960,17.524,7.205,1.868,15.040,9.297,-3.950,9.282,6.505,12.615,6.535,5.630
Mon Dec 02 21:09:27 2024,295,-23.900,-23.900,-1.088,-1.088,-1.941,17.500,7.209,1.869,15.037,9.315,-3.946,9.290,6.539,12.607,6.529,5.596
Mon Dec 02 21:09:27 2024,300,-23.863,-23.863,-1.154,-1.154,-1.922,17.474,7.212,1.869,15.035,9.333,-3.941,9.298,6.575,12.598,6.522,5.561
Mon Dec 02 21:09:27 2024,305,-23.843,-23.843,-1.190,-1.190,-1.912,17.458,7.214,1.870,15.034,9.342,-3.939,9.302,6.594,12.594,6.518,5.542
Mon Dec 02 21:09:27 2024,310,-23.933,-23.933,-1.095,-1.095,-2.027,17.287,7.088,1.842,14.961,9.259,-3.983,9.224,6.514,12.656,6.444,5.513
Mon Dec 02 21:09:27 2024,315,-23.953,-23.953,-1.083,-1.083,-2.063,17.214,7.043,1.832,14.933,9.234,-3.997,9.198,6.498,12.676,6.415,5.490
Mon Dec 02 21:09:27 2024,320,-23.969,-23.969,-1.073,-1.073,-2.093,17.154,7.006,1.824,14.910,9.214,-4.009,9.177,6.484,12.692,6.390,5.471
Mon Dec 02 21:09:27 2024,325,-23.940,-23.940,-1.111,-1.111,-2.050,17.218,7.048,1.851,14.904,9.250,-4.010,9.201,6.497,12.712,6.363,5.471
Mon Dec 02 21:09:27 2024,330,-23.891,-23.891,-1.165,-1.165,-1.972,17.345,7.130,1.891,14.915,9.310,-4.002,9.247,6.525,12.723,6.351,5.486
Mon Dec 02 21:09:27 2024,335,-23.846,-23.846,-1.216,-1.216,-1.904,17.454,7.195,1.923,14.920,9.360,-4.006,9.277,6.542,12.721,6.353,5.493
Mon Dec 02 21:09:27 2024,340,-23.850,-23.850,-1.215,-1.215,-1.929,17.400,7.142,1.900,14.903,9.333,-4.054,9.222,6.508,12.674,6.407,5.464
Mon Dec 02 21:09:27 2024,345,-23.854,-23.854,-1.214,-1.214,-1.953,17.346,7.089,1.876,14.885,9.305,-4.103,9.167,6.474,12.627,6.461,5.434
Mon Dec 02 21:09:27 2024,350,-23.860,-23.860,-1.190,-1.190,-1.993,17.291,7.061,1.849,14.927,9.240,-4.072,9.202,6.440,12.652,6.434,5.403
Mon Dec 02 21:09:27 2024,355,-23.867,-23.867,-1.158,-1.158,-2.037,17.240,7.045,1.821,14.992,9.163,-4.008,9.272,6.407,12.705,6.373,5.374
Mon Dec 02 21:09:27 2024,360,-23.887,-23.887,-1.140,-1.140,-2.074,17.228,7.023,1.817,15.046,9.144,-3.987,9.329,6.404,12.752,6.346,5.374
Mon Dec 02 21:09:27 2024,365,-23.917,-23.917,-1.133,-1.133,-2.106,17.252,6.992,1.831,15.091,9.179,-4.004,9.377,6.428,12.793,6.347,5.398
Mon Dec 02 21:09:27 2024,370,-23.949,-23.949,-1.135,-1.135,-2.133,17.282,6.962,1.851,15.125,9.228,-4.028,9.416,6.460,12.834,6.350,5.428
Mon Dec 02 21:09:27 2024,375,-23.934,-23.934,-1.195,-1.195,-2.102,17.272,6.976,1.855,15.034,9.256,-3.994,9.358,6.486,12.861,6.304,5.408
Mon Dec 02 21:09:27 2024,380,-23.909,-23.909,-1.265,-1.265,-2.061,17.252,7.002,1.855,14.920,9.278,-3.948,9.282,6.508,12.882,6.249,5.376
Mon Dec 02 21:09:27 2024,385,-23.911,-23.911,-1.280,-1.280,-2.030,17.280,7.044,1.868,14.901,9.325,-3.900,9.284,6.553,12.900,6.225,5.384
Mon Dec 02 21:09:27 2024,390,-23.940,-23.940,-1.236,-1.236,-2.018,17.352,7.094,1.892,14.982,9.387,-3.859,9.366,6.612,12.908,6.236,5.430
Mon Dec 02 21:09:27 2024,395,-23.974,-23.974,-1.180,-1.180,-2.007,17.433,7.149,1.919,15.084,9.456,-3.816,9.465,6.678,12.916,6.254,5.487
Mon Dec 02 21:09:27 2024,400,-23.961,-23.961,-1.169,-1.169,-2.008,17.474,7.128,1.918,15.147,9.447,-3.833,9.478,6.644,12.952,6.236,5.479
Mon Dec 02 21:09:27 2024,405,-23.939,-23.939,-1.164,-1.164,-2.009,17.511,7.093,1.913,15.209,9.427,-3.860,9.477,6.593,12.996,6.212,5.462
Mon Dec 02 21:09:27 2024,410,-23.950,-23.950,-1.143,-1.143,-2.028,17.508,7.079,1.896,15.212,9.398,-3.880,9.454,6.557,13.025,6.183,5.457
Mon Dec 02 21:09:27 2024,415,-23.994,-23.994,-1.110,-1.110,-2.060,17.461,7.094,1.870,15.146,9.368,-3.882,9.412,6.552,13.027,6.159,5.468
Mon Dec 02 21:09:27 2024,420,-24.039,-24.039,-1.077,-1.077,-2.092,17.415,7.108,1.845,15.080,9.339,-3.885,9.370,6.548,13.029,6.135,5.479
Mon Dec 02 21:09:27 2024,425,-24.011,-24.011,-1.102,-1.102,-2.092,17.419,7.079,1.891,15.156,9.376,-3.879,9.352,6.560,13.052,6.120,5.476
Mon Dec 02 21:09:27 2024,430,-23.989,-23.989,-1.124,-1.124,-2.091,17.423,7.056,1.929,15.218,9.406,-3.874,9.336,6.570,13.071,6.108,5.474
Mon Dec 02 21:09:27 2024,435,-23.986,-23.986,-1.141,-1.141,-2.097,17.441,7.049,1.936,15.283,9.427,-3.875,9.367,6.587,13.122,6.084,5.492
Mon Dec 02 21:09:27 2024,440,-24.015,-24.015,-1.154,-1.154,-2.112,17.480,7.071,1.894,15.358,9.435,-3.888,9.470,6.616,13.223,6.040,5.544
Mon Dec 02 21:09:27 2024,445,-24.029,-24.029,-1.157,-1.157,-2.105,17.512,7.085,1.877,15.380,9.438,-3.895,9.501,6.620,13.277,6.010,5.557
Mon Dec 02 21:09:27 2024,450,-24.018,-24.018,-1.138,-1.138,-2.024,17.569,7.102,1.910,15.281,9.433,-3.887,9.374,6.556,13.265,5.982,5.481
Mon Dec 02 21:09:27 2024,455,-23.998,-23.998,-1.111,-1.111,-1.921,17.627,7.117,1.961,15.143,9.425,-3.875,9.193,6.471,13.225,5.958,5.374
Mon Dec 02 21:09:27 2024,460,-23.978,-23.978,-1.117,-1.117,-1.881,17.634,7.118,1.978,15.058,9.416,-3.904,9.060,6.412,13.204,5.933,5.306
Mon Dec 02 21:09:27 2024,465,-23.949,-23.949,-1.174,-1.174,-1.907,17.579,7.100,1.958,14.998,9.399,-4.012,8.910,6.353,13.196,5.893,5.251
Mon Dec 02 21:09:27 2024,470,-23.930,-23.930,-1.212,-1.212,-1.928,17.530,7.084,1.946,14.976,9.396,-4.085,8.814,6.320,13.184,5.873,5.228
Mon Dec 02 21:09:27 2024,475,-23.930,-23.930,-1.206,-1.206,-1.930,17.497,7.074,1.954,15.024,9.419,-4.090,8.807,6.332,13.157,5.896,5.263
Mon Dec 02 21:09:27 2024,480,-23.943,-23.943,-1.173,-1.173,-1.922,17.470,7.065,1.973,15.119,9.462,-4.053,8.854,6.374,13.119,5.947,5.338
Mon Dec 02 21:09:27 2024,485,-23.951,-23.951,-1.187,-1.187,-1.917,17.481,7.029,1.975,15.138,9.419,-4.027,8.888,6.362,13.121,5.946,5.324
Mon Dec 02 21:09:27 2024,490,-23.959,-23.959,-1.252,-1.252,-1.912,17.535,6.953,1.961,15.084,9.275,-4.002,8.923,6.287,13.166,5.891,5.213
Mon Dec 02 21:09:27 2024,495,-23.958,-23.958,-1.280,-1.280,-1.909,17.569,6.918,1.951,15.041,9.192,-3.980,8.972,6.263,13.176,5.875,5.162
Mon Dec 02 21:09:27 2024,500,-23.938,-23.938,-1.250,-1.250,-1.908,17.585,6.948,1.946,14.999,9.192,-3.958,9.072,6.325,13.121,5.922,5.205
Mon Dec 02 21:09:27 2024,505,-23.914,-23.914,-1.201,-1.201,-1.908,17.591,7.000,1.945,14.964,9.225,-3.938,9.179,6.414,13.048,5.990,5.279
Mon Dec 02 21:09:27 2024,510,-23.926,-23.926,-1.150,-1.150,-1.902,17.528,7.029,1.961,14.867,9.249,-3.881,9.257,6.514,13.033,5.978,5.340
Mon Dec 02 21:09:27 2024,515,-23.964,-23.964,-1.108,-1.108,-1.892,17.418,7.038,1.988,14.742,9.262,-3.804,9.297,6.602,13.064,5.908,5.378
Mon Dec 02 21:09:27 2024,520,-23.992,-23.992,-1.084,-1.084,-1.871,17.337,7.039,2.019,14.630,9.264,-3.736,9.324,6.665,13.096,5.843,5.400
Mon Dec 02 21:09:27 2024,525,-23.945,-23.945,-1.159,-1.159,-1.792,17.459,7.006,2.072,14.614,9.213,-3.727,9.269,6.568,13.123,5.827,5.324
Mon Dec 02 21:09:27 2024,530,-23.899,-23.899,-1.233,-1.233,-1.722,17.583,6.976,2.119,14.613,9.166,-3.726,9.217,6.471,13.145,5.820,5.251
Mon Dec 02 21:09:27 2024,535,-23.893,-23.893,-1.252,-1.252,-1.710,17.625,6.965,2.155,14.682,9.202,-3.679,9.232,6.474,13.187,5.810,5.244
Mon Dec 02 21:09:27 2024,540,-23.915,-23.915,-1.234,-1.234,-1.738,17.611,6.969,2.182,14.787,9.289,-3.605,9.291,6.542,13.238,5.797,5.279
Mon Dec 02 21:09:27 2024,545,-23.922,-23.922,-1.233,-1.233,-1.754,17.627,6.966,2.209,14.883,9.339,-3.532,9.353,6.583,13.302,5.767,5.300
Mon Dec 02 21:09:27 2024,550,-23.870,-23.870,-1.294,-1.294,-1.726,17.757,6.941,2.228,14.937,9.254,-3.465,9.426,6.519,13.409,5.679,5.258
Mon Dec 02 21:09:27 2024,555,-23.828,-23.828,-1.342,-1.342,-1.703,17.858,6.921,2.245,14.976,9.186,-3.412,9.477,6.463,13.497,5.605,5.224
Mon Dec 02 21:09:27 2024,560,-23.820,-23.820,-1.342,-1.342,-1.682,17.853,6.931,2.238,14.926,9.186,-3.460,9.308,6.389,13.512,5.556,5.216
Mon Dec 02 21:09:27 2024,565,-23.828,-23.828,-1.318,-1.318,-1.665,17.792,6.954,2.218,14.832,9.221,-3.557,9.033,6.306,13.491,5.518,5.221
Mon Dec 02 21:09:27 2024,570,-23.830,-23.830,-1.323,-1.323,-1.658,17.734,6.973,2.196,14.733,9.234,-3.611,8.870,6.283,13.455,5.503,5.221
Mon Dec 02 21:09:27 2024,575,-23.824,-23.824,-1.370,-1.370,-1.666,17.678,6.986,2.169,14.618,9.218,-3.608,8.849,6.338,13.392,5.521,5.215
Mon Dec 02 21:09:27 2024,580,-23.818,-23.818,-1.422,-1.422,-1.676,17.621,6.999,2.141,14.498,9.200,-3.600,8.838,6.399,13.327,5.540,5.208
Mon Dec 02 21:09:27 2024,585,-23.795,-23.795,-1.462,-1.462,-1.654,17.554,6.991,2.125,14.409,9.207,-3.607,8.829,6.442,13.318,5.551,5.244
Mon Dec 02 21:09:27 2024,590,-23.775,-23.775,-1.489,-1.489,-1.630,17.502,6.979,2.117,14.352,9.218,-3.616,8.824,6.468,13.325,5.557,5.280
Mon Dec 02 21:09:27 2024,595,-23.750,-23.750,-1.508,-1.508,-1.611,17.440,6.969,2.118,14.288,9.220,-3.604,8.836,6.490,13.300,5.568,5.286
Mon Dec 02 21:09:27 2024,600,-23.715,-23.715,-1.504,-1.504,-1.612,17.373,6.966,2.145,14.221,9.194,-3.540,8.890,6.492,13.196,5.588,5.210
Mon Dec 02 21:09:27 2024,605,-23.689,-23.689,-1.498,-1.498,-1.606,17.335,6.964,2.170,14.174,9.171,-3.489,8.938,6.494,13.127,5.596,5.157
Mon Dec 02 21:09:27 2024,610,-23.682,-23.682,-1.462,-1.462,-1.539,17.440,6.961,2.236,14.184,9.134,-3.424,9.038,6.496,13.190,5.557,5.166
Mon Dec 02 21:09:27 2024,615,-23.681,-23.681,-1.421,-1.421,-1.463,17.576,6.958,2.304,14.212,9.096,-3.367,9.137,6.496,13.286,5.508,5.194
Mon Dec 02 21:09:27 2024,620,-23.698,-23.698,-1.410,-1.410,-1.431,17.642,6.952,2.357,14.277,9.127,-3.337,9.162,6.512,13.364,5.476,5.250
Mon Dec 02 21:09:27 2024,625,-23.734,-23.734,-1.441,-1.441,-1.467,17.599,6.943,2.379,14.383,9.243,-3.353,9.083,6.546,13.400,5.475,5.338
Mon Dec 02 21:09:27 2024,630,-23.765,-23.765,-1.466,-1.466,-1.497,17.563,6.934,2.394,14.471,9.337,-3.368,9.014,6.572,13.430,5.474,5.408
Mon Dec 02 21:09:27 2024,635,-23.743,-23.743,-1.449,-1.449,-1.529,17.534,6.867,2.319,14.456,9.174,-3.448,8.948,6.404,13.417,5.457,5.275
Mon Dec 02 21:09:27 2024,640,-23.723,-23.723,-1.434,-1.434,-1.556,17.508,6.810,2.253,14.441,9.032,-3.516,8.892,6.260,13.404,5.443,5.160
Mon Dec 02 21:09:27 2024,645,-23.731,-23.731,-1.414,-1.414,-1.558,17.505,6.830,2.245,14.427,8.998,-3.523,8.859,6.220,13.400,5.430,5.126
Mon Dec 02 21:09:27 2024,650,-23.773,-23.773,-1.391,-1.391,-1.528,17.533,6.941,2.309,14.416,9.101,-3.454,8.859,6.315,13.405,5.422,5.196
Mon Dec 02 21:09:27 2024,655,-23.800,-23.800,-1.377,-1.377,-1.507,17.555,7.016,2.350,14.420,9.168,-3.404,8.863,6.374,13.397,5.422,5.234
Mon Dec 02 21:09:27 2024,660,-23.782,-23.782,-1.395,-1.395,-1.512,17.567,6.969,2.313,14.487,9.108,-3.420,8.883,6.313,13.338,5.454,5.156
Mon Dec 02 21:09:27 2024,665,-23.764,-23.764,-1.411,-1.411,-1.518,17.578,6.927,2.280,14.548,9.053,-3.434,8.902,6.258,13.283,5.483,5.086
Mon Dec 02 21:09:27 2024,670,-23.762,-23.762,-1.425,-1.425,-1.513,17.551,6.955,2.270,14.521,9.078,-3.431,8.902,6.299,13.289,5.480,5.125
Mon Dec 02 21:09:27 2024,675,-23.772,-23.772,-1.440,-1.440,-1.499,17.488,7.046,2.279,14.416,9.172,-3.414,8.887,6.428,13.346,5.449,5.262
Mon Dec 02 21:09:27 2024,680,-23.774,-23.774,-1.454,-1.454,-1.496,17.448,7.098,2.280,14.349,9.226,-3.400,8.898,6.513,13.369,5.442,5.348
Mon Dec 02 21:09:27 2024,685,-23.752,-23.752,-1.480,-1.480,-1.528,17.452,7.060,2.255,14.352,9.188,-3.382,9.019,6.525,13.288,5.514,5.338
Mon Dec 02 21:09:27 2024,690,-23.726,-23.726,-1.511,-1.511,-1.566,17.460,7.010,2.224,14.362,9.137,-3.362,9.164,6.532,13.189,5.602,5.317
Mon Dec 02 21:09:27 2024,695,-23.714,-23.714,-1.523,-1.523,-1.534,17.480,7.017,2.245,14.330,9.136,-3.338,9.177,6.544,13.178,5.613,5.306
Mon Dec 02 21:09:27 2024,700,-23.703,-23.703,-1.533,-1.533,-1.470,17.506,7.044,2.289,14.275,9.150,-3.307,9.153,6.561,13.193,5.601,5.296
Mon Dec 02 21:09:27 2024,705,-23.695,-23.695,-1.546,-1.546,-1.435,17.506,7.058,2.306,14.224,9.152,-3.311,9.108,6.565,13.191,5.599,5.299
Mon Dec 02 21:09:27 2024,710,-23.694,-23.694,-1.574,-1.574,-1.481,17.422,7.035,2.245,14.167,9.115,-3.430,8.982,6.525,13.137,5.624,5.345
Mon Dec 02 21:09:27 2024,715,-23.692,-23.692,-1.598,-1.598,-1.524,17.340,7.011,2.188,14.116,9.079,-3.538,8.869,6.490,13.088,5.649,5.388
Mon Dec 02 21:09:27 2024,720,-23.698,-23.698,-1.562,-1.562,-1.530,17.293,6.964,2.194,14.154,9.071,-3.516,8.930,6.507,13.106,5.654,5.394
Mon Dec 02 21:09:27 2024,725,-23.708,-23.708,-1.500,-1.500,-1.526,17.248,6.902,2.221,14.225,9.070,-3.451,9.057,6.543,13.149,5.653,5.390
Mon Dec 02 21:09:27 2024,730,-23.715,-23.715,-1.495,-1.495,-1.518,17.277,6.908,2.225,14.271,9.078,-3.420,9.136,6.575,13.189,5.632,5.392
Mon Dec 02 21:09:27 2024,735,-23.719,-23.719,-1.529,-1.529,-1.507,17.355,6.960,2.212,14.302,9.090,-3.413,9.181,6.604,13.228,5.600,5.398
Mon Dec 02 21:09:27 2024,740,-23.723,-23.723,-1.587,-1.587,-1.493,17.470,7.044,2.190,14.330,9.108,-3.414,9.219,6.638,13.274,5.555,5.406
Mon Dec 02 21:09:27 2024,745,-23.702,-23.702,-1.602,-1.602,-1.448,17.463,7.011,2.225,14.303,9.156,-3.451,9.026,6.602,13.302,5.552,5.482
Mon Dec 02 21:09:27 2024,750,-23.679,-23.679,-1.612,-1.612,-1.399,17.441,6.965,2.267,14.269,9.207,-3.491,8.808,6.559,13.328,5.553,5.567
Mon Dec 02 21:09:27 2024,755,-23.672,-23.672,-1.605,-1.605,-1.380,17.427,6.973,2.297,14.251,9.234,-3.516,8.712,6.532,13.337,5.550,5.588
Mon Dec 02 21:09:27 2024,760,-23.687,-23.687,-1.574,-1.574,-1.400,17.425,7.056,2.316,14.252,9.228,-3.527,8.771,6.524,13.325,5.542,5.525
Mon Dec 02 21:09:27 2024,765,-23.700,-23.700,-1.544,-1.544,-1.413,17.430,7.112,2.333,14.252,9.215,-3.542,8.795,6.503,13.315,5.533,5.464
Mon Dec 02 21:09:27 2024,770,-23.708,-23.708,-1.506,-1.506,-1.398,17.472,7.032,2.347,14.249,9.152,-3.600,8.638,6.402,13.302,5.526,5.384
Mon Dec 02 21:09:27 2024,775,-23.714,-23.714,-1.474,-1.474,-1.380,17.516,6.938,2.359,14.247,9.090,-3.657,8.470,6.300,13.292,5.518,5.314
Mon Dec 02 21:09:27 2024,780,-23.740,-23.740,-1.433,-1.433,-1.386,17.550,6.934,2.331,14.240,9.065,-3.654,8.490,6.294,13.253,5.554,5.304
Mon Dec 02 21:09:27 2024,785,-23.777,-23.777,-1.394,-1.394,-1.413,17.568,7.018,2.273,14.231,9.079,-3.596,8.686,6.378,13.194,5.622,5.354
Mon Dec 02 21:09:27 2024,790,-23.798,-23.798,-1.376,-1.376,-1.431,17.588,7.079,2.232,14.247,9.102,-3.545,8.848,6.456,13.176,5.666,5.418
Mon Dec 02 21:09:27 2024,795,-23.762,-23.762,-1.434,-1.434,-1.422,17.625,7.076,2.241,14.364,9.159,-3.506,8.941,6.529,13.303,5.634,5.554
Mon Dec 02 21:09:27 2024,800,-23.728,-23.728,-1.489,-1.489,-1.412,17.660,7.072,2.252,14.474,9.213,-3.470,9.026,6.596,13.423,5.602,5.682
Mon Dec 02 21:09:27 2024,805,-23.717,-23.717,-1.500,-1.500,-1.442,17.606,7.042,2.217,14.474,9.217,-3.503,8.982,6.575,13.427,5.591,5.673
Mon Dec 02 21:09:27 2024,810,-23.728,-23.728,-1.477,-1.477,-1.492,17.504,7.006,2.158,14.399,9.187,-3.572,8.871,6.504,13.350,5.602,5.578
Mon Dec 02 21:09:27 2024,815,-23.735,-23.735,-1.454,-1.454,-1.534,17.410,6.971,2.110,14.326,9.164,-3.632,8.762,6.439,13.283,5.604,5.489
Mon Dec 02 21:09:27 2024,820,-23.696,-23.696,-1.442,-1.442,-1.428,17.469,6.978,2.245,14.349,9.262,-3.533,8.733,6.503,13.395,5.519,5.549
Mon Dec 02 21:09:27 2024,825,-23.666,-23.666,-1.433,-1.433,-1.346,17.513,6.984,2.350,14.364,9.338,-3.456,8.710,6.552,13.482,5.453,5.595
Mon Dec 02 21:09:27 2024,830,-23.631,-23.631,-1.515,-1.515,-1.344,17.520,7.005,2.364,14.352,9.352,-3.495,8.706,6.546,13.452,5.476,5.571
Mon Dec 02 21:09:27 2024,835,-23.604,-23.604,-1.616,-1.616,-1.381,17.509,7.026,2.329,14.333,9.332,-3.578,8.712,6.514,13.375,5.534,5.520
Mon Dec 02 21:09:27 2024,840,-23.594,-23.594,-1.661,-1.661,-1.409,17.505,7.042,2.328,14.338,9.327,-3.624,8.744,6.493,13.333,5.572,5.475
Mon Dec 02 21:09:27 2024,845,-23.621,-23.621,-1.571,-1.571,-1.404,17.522,7.040,2.392,14.387,9.352,-3.578,8.810,6.503,13.382,5.550,5.466
Mon Dec 02 21:09:27 2024,850,-23.655,-23.655,-1.462,-1.462,-1.394,17.541,7.036,2.466,14.439,9.384,-3.519,8.882,6.519,13.445,5.518,5.462
Mon Dec 02 21:09:27 2024,855,-23.643,-23.643,-1.492,-1.492,-1.384,17.554,7.080,2.440,14.355,9.400,-3.520,8.845,6.560,13.464,5.491,5.510
Mon Dec 02 21:09:27 2024,860,-23.618,-23.618,-1.567,-1.567,-1.375,17.563,7.134,2.381,14.234,9.408,-3.542,8.774,6.605,13.464,5.469,5.569
Mon Dec 02 21:09:27 2024,865,-23.603,-23.603,-1.617,-1.617,-1.377,17.553,7.167,2.330,14.166,9.415,-3.567,8.740,6.638,13.454,5.461,5.603
Mon Dec 02 21:09:27 2024,870,-23.608,-23.608,-1.616,-1.616,-1.397,17.507,7.155,2.297,14.212,9.420,-3.594,8.781,6.647,13.421,5.478,5.586
Mon Dec 02 21:09:27 2024,875,-23.615,-23.615,-1.612,-1.612,-1.416,17.467,7.143,2.269,14.257,9.422,-3.617,8.819,6.653,13.393,5.493,5.567
Mon Dec 02 21:09:27 2024,880,-23.634,-23.634,-1.574,-1.574,-1.428,17.517,7.104,2.290,14.286,9.376,-3.605,8.814,6.601,13.414,5.476,5.507
Mon Dec 02 21:09:27 2024,885,-23.654,-23.654,-1.532,-1.532,-1.438,17.581,7.063,2.320,14.309,9.323,-3.586,8.801,6.541,13.441,5.454,5.443
Mon Dec 02 21:09:27 2024,890,-23.665,-23.665,-1.540,-1.540,-1.427,17.634,7.066,2.356,14.330,9.336,-3.563,8.811,6.538,13.482,5.421,5.419
Mon Dec 02 21:09:27 2024,895,-23.658,-23.658,-1.610,-1.610,-1.394,17.649,7.125,2.381,14.335,9.432,-3.546,8.848,6.612,13.518,5.391,5.461
Mon Dec 02 21:09:27 2024,900,-23.649,-23.649,-1.690,-1.690,-1.355,17.665,7.194,2.411,14.341,9.543,-3.526,8.889,6.698,13.560,5.357,5.508
Mon Dec 02 21:09:27 2024,905,-23.636,-23.636,-1.729,-1.729,-1.350,17.788,7.235,2.418,14.362,9.523,-3.475,9.018,6.720,13.572,5.361,5.522
Mon Dec 02 21:09:27 2024,910,-23.623,-23.623,-1.760,-1.760,-1.350,17.899,7.269,2.424,14.382,9.496,-3.428,9.138,6.733,13.579,5.368,5.533
Mon Dec 02 21:09:27 2024,915,-23.624,-23.624,-1.743,-1.743,-1.357,17.936,7.297,2.401,14.370,9.483,-3.440,9.154,6.717,13.575,5.372,5.533
Mon Dec 02 21:09:27 2024,920,-23.639,-23.639,-1.685,-1.685,-1.368,17.900,7.316,2.359,14.332,9.486,-3.501,9.074,6.677,13.559,5.371,5.525
Mon Dec 02 21:09:27 2024,925,-23.651,-23.651,-1.637,-1.637,-1.382,17.848,7.324,2.314,14.291,9.494,-3.558,8.998,6.648,13.541,5.372,5.519
Mon Dec 02 21:09:27 2024,930,-23.649,-23.649,-1.650,-1.650,-1.399,17.751,7.283,2.282,14.261,9.522,-3.569,8.983,6.688,13.519,5.384,5.527
Mon Dec 02 21:09:27 2024,935,-23.647,-23.647,-1.670,-1.670,-1.417,17.643,7.235,2.250,14.229,9.554,-3.576,8.974,6.739,13.492,5.399,5.539
Mon Dec 02 21:09:27 2024,940,-23.652,-23.652,-1.672,-1.672,-1.427,17.608,7.224,2.240,14.196,9.561,-3.574,8.973,6.777,13.459,5.429,5.566
Mon Dec 02 21:09:27 2024,945,-23.669,-23.669,-1.654,-1.654,-1.431,17.647,7.253,2.253,14.156,9.542,-3.563,8.980,6.810,13.410,5.480,5.618
Mon Dec 02 21:09:27 2024,950,-23.682,-23.682,-1.640,-1.640,-1.437,17.674,7.275,2.266,14.144,9.532,-3.548,8.992,6.824,13.388,5.510,5.650
Mon Dec 02 21:09:27 2024,955,-23.690,-23.690,-1.624,-1.624,-1.453,17.683,7.291,2.290,14.240,9.545,-3.502,9.042,6.772,13.466,5.478,5.622
Mon Dec 02 21:09:27 2024,960,-23.694,-23.694,-1.611,-1.611,-1.467,17.688,7.304,2.312,14.333,9.559,-3.460,9.090,6.720,13.542,5.444,5.594
Mon Dec 02 21:09:27 2024,965,-23.703,-23.703,-1.609,-1.609,-1.474,17.688,7.316,2.315,14.374,9.562,-3.461,9.107,6.710,13.526,5.445,5.553
Mon Dec 02 21:09:27 2024,970,-23.713,-23.713,-1.613,-1.613,-1.477,17.684,7.326,2.308,14.385,9.558,-3.487,9.105,6.724,13.457,5.467,5.508
Mon Dec 02 21:09:27 2024,975,-23.719,-23.719,-1.612,-1.612,-1.492,17.691,7.317,2.315,14.434,9.570,-3.464,9.148,6.752,13.461,5.475,5.514
Mon Dec 02 21:09:27 2024,980,-23.721,-23.721,-1.608,-1.608,-1.523,17.709,7.288,2.340,14.530,9.600,-3.386,9.243,6.798,13.538,5.469,5.572
Mon Dec 02 21:09:27 2024,985,-23.721,-23.721,-1.602,-1.602,-1.556,17.726,7.254,2.367,14.628,9.632,-3.300,9.343,6.844,13.630,5.456,5.642
Mon Dec 02 21:09:27 2024,990,-23.733,-23.733,-1.586,-1.586,-1.528,17.687,7.238,2.379,14.587,9.649,-3.295,9.270,6.816,13.629,5.425,5.610
Mon Dec 02 21:09:27 2024,995,-23.748,-23.748,-1.566,-1.566,-1.475,17.620,7.231,2.382,14.482,9.656,-3.330,9.122,6.755,13.583,5.386,5.534
Mon Dec 02 21:09:28 2024,0,-23.762,-23.762,-1.562,-1.562,-1.451,17.590,7.244,2.378,14.426,9.650,-3.360,9.041,6.717,13.554,5.370,5.496
Mon Dec 02 21:09:28 2024,5,-23.770,-23.770,-1.590,-1.590,-1.490,17.648,7.304,2.359,14.469,9.619,-3.378,9.096,6.724,13.559,5.406,5.540
Mon Dec 02 21:09:28 2024,10,-23.778,-23.778,-1.612,-1.612,-1.522,17.693,7.352,2.342,14.505,9.593,-3.393,9.143,6.730,13.563,5.437,5.576
Mon Dec 02 21:09:28 2024,15,-23.805,-23.805,-1.616,-1.616,-1.529,17.668,7.304,2.282,14.478,9.558,-3.415,9.040,6.684,13.508,5.460,5.551
Mon Dec 02 21:09:28 2024,20,-23.831,-23.831,-1.613,-1.613,-1.526,17.628,7.237,2.222,14.436,9.526,-3.435,8.913,6.633,13.447,5.476,5.511
Mon Dec 02 21:09:28 2024,25,-23.868,-23.868,-1.574,-1.574,-1.531,17.598,7.209,2.187,14.413,9.522,-3.456,8.843,6.614,13.416,5.476,5.488
Mon Dec 02 21:09:28 2024,30,-23.928,-23.928,-1.462,-1.462,-1.551,17.587,7.248,2.195,14.424,9.567,-3.480,8.870,6.653,13.435,5.452,5.490
Mon Dec 02 21:09:28 2024,35,-23.994,-23.994,-1.339,-1.339,-1.573,17.574,7.292,2.203,14.437,9.617,-3.508,8.901,6.695,13.457,5.424,5.494
Mon Dec 02 21:09:28 2024,40,-23.970,-23.970,-1.378,-1.378,-1.564,17.602,7.290,2.208,14.383,9.556,-3.509,8.869,6.655,13.484,5.406,5.504
Mon Dec 02 21:09:28 2024,45,-23.938,-23.938,-1.428,-1.428,-1.551,17.636,7.285,2.213,14.323,9.486,-3.508,8.834,6.608,13.513,5.389,5.514
Mon Dec 02 21:09:28 2024,50,-23.913,-23.913,-1.485,-1.485,-1.552,17.648,7.270,2.199,14.323,9.462,-3.512,8.835,6.590,13.512,5.404,5.529
Mon Dec 02 21:09:28 2024,55,-23.896,-23.896,-1.548,-1.548,-1.565,17.641,7.246,2.165,14.386,9.486,-3.520,8.877,6.604,13.478,5.454,5.550
Mon Dec 02 21:09:28 2024,60,-23.888,-23.888,-1.585,-1.585,-1.573,17.637,7.229,2.134,14.419,9.489,-3.530,8.888,6.600,13.445,5.488,5.549
Mon Dec 02 21:09:28 2024,65,-23.908,-23.908,-1.553,-1.553,-1.567,17.643,7.226,2.092,14.362,9.416,-3.554,8.792,6.523,13.390,5.493,5.465
Mon Dec 02 21:09:28 2024,70,-23.936,-23.936,-1.497,-1.497,-1.557,17.652,7.229,2.050,14.275,9.321,-3.581,8.664,6.424,13.332,5.485,5.356
Mon Dec 02 21:09:28 2024,75,-23.940,-23.940,-1.466,-1.466,-1.566,17.598,7.188,2.034,14.255,9.262,-3.616,8.570,6.340,13.290,5.496,5.281
Mon Dec 02 21:09:28 2024,80,-23.920,-23.920,-1.457,-1.457,-1.595,17.483,7.106,2.044,14.299,9.237,-3.660,8.509,6.267,13.266,5.528,5.236
Mon Dec 02 21:09:28 2024,85,-23.899,-23.899,-1.458,-1.458,-1.615,17.403,7.032,2.064,14.354,9.223,-3.698,8.474,6.210,13.247,5.564,5.203
Mon Dec 02 21:09:28 2024,90,-23.879,-23.879,-1.506,-1.506,-1.577,17.562,7.050,2.129,14.435,9.269,-3.690,8.591,6.262,13.261,5.598,5.254
Mon Dec 02 21:09:28 2024,95,-23.862,-23.862,-1.552,-1.552,-1.540,17.716,7.074,2.189,14.505,9.315,-3.678,8.707,6.317,13.277,5.627,5.306
Mon Dec 02 21:09:28 2024,100,-23.862,-23.862,-1.561,-1.561,-1.538,17.756,7.076,2.190,14.537,9.348,-3.658,8.786,6.358,13.305,5.628,5.349
Mon Dec 02 21:09:28 2024,105,-23.875,-23.875,-1.543,-1.543,-1.564,17.721,7.063,2.147,14.549,9.382,-3.624,8.864,6.399,13.351,5.608,5.400
Mon Dec 02 21:09:28 2024,110,-23.893,-23.893,-1.510,-1.510,-1.581,17.700,7.063,2.128,14.576,9.420,-3.595,8.920,6.434,13.381,5.595,5.436
Mon Dec 02 21:09:28 2024,115,-23.944,-23.944,-1.383,-1.383,-1.577,17.711,7.115,2.176,14.682,9.506,-3.561,8.946,6.481,13.374,5.592,5.443
Mon Dec 02 21:09:28 2024,120,-23.994,-23.994,-1.258,-1.258,-1.574,17.722,7.165,2.223,14.784,9.590,-3.528,8.971,6.526,13.367,5.590,5.449
Mon Dec 02 21:09:28 2024,125,-23.999,-23.999,-1.299,-1.299,-1.589,17.746,7.195,2.238,14.834,9.596,-3.515,9.037,6.514,13.324,5.623,5.397
Mon Dec 02 21:09:28 2024,130,-23.984,-23.984,-1.404,-1.404,-1.609,17.768,7.209,2.234,14.850,9.564,-3.514,9.106,6.479,13.274,5.663,5.332
Mon Dec 02 21:09:28 2024,135,-23.978,-23.978,-1.473,-1.473,-1.632,17.774,7.211,2.235,14.862,9.540,-3.523,9.160,6.461,13.232,5.713,5.293
Mon Dec 02 21:09:28 2024,140,-24.003,-24.003,-1.455,-1.455,-1.669,17.736,7.178,2.251,14.864,9.529,-3.562,9.183,6.493,13.208,5.800,5.329
Mon Dec 02 21:09:28 2024,145,-24.026,-24.026,-1.430,-1.430,-1.701,17.699,7.146,2.266,14.865,9.521,-3.599,9.199,6.525,13.189,5.878,5.367
Mon Dec 02 21:09:28 2024,150,-24.029,-24.029,-1.410,-1.410,-1.700,17.708,7.147,2.290,14.967,9.559,-3.557,9.333,6.569,13.202,5.883,5.404
Mon Dec 02 21:09:28 2024,155,-24.028,-24.028,-1.392,-1.392,-1.691,17.725,7.154,2.315,15.079,9.603,-3.504,9.481,6.613,13.221,5.873,5.438
Mon Dec 02 21:09:28 2024,160,-24.046,-24.046,-1.365,-1.365,-1.678,17.783,7.155,2.319,15.149,9.605,-3.497,9.554,6.610,13.205,5.902,5.460
Mon Dec 02 21:09:28 2024,165,-24.094,-24.094,-1.332,-1.332,-1.660,17.890,7.143,2.284,15.120,9.529,-3.577,9.466,6.526,13.133,5.988,5.453
Mon Dec 02 21:09:28 2024,170,-24.145,-24.145,-1.293,-1.293,-1.644,17.985,7.131,2.248,15.098,9.456,-3.660,9.381,6.446,13.061,6.073,5.445
Mon Dec 02 21:09:28 2024,175,-24.194,-24.194,-1.227,-1.227,-1.666,17.951,7.122,2.230,15.164,9.453,-3.702,9.392,6.441,13.028,6.086,5.427
Mon Dec 02 21:09:28 2024,180,-24.245,-24.245,-1.150,-1.150,-1.699,17.876,7.113,2.216,15.262,9.468,-3.737,9.430,6.458,13.004,6.080,5.406
Mon Dec 02 21:09:28 2024,185,-24.259,-24.259,-1.155,-1.155,-1.704,17.845,7.117,2.220,15.308,9.486,-3.771,9.433,6.459,12.965,6.106,5.372
Mon Dec 02 21:09:28 2024,190,-24.235,-24.235,-1.254,-1.254,-1.678,17.862,7.137,2.243,15.300,9.506,-3.813,9.393,6.441,12.902,6.176,5.321
Mon Dec 02 21:09:28 2024,195,-24.231,-24.231,-1.324,-1.324,-1.663,17.878,7.162,2.253,15.290,9.519,-3.860,9.346,6.422,12.836,6.244,5.281
Mon Dec 02 21:09:28 2024,200,-24.315,-24.315,-1.276,-1.276,-1.692,17.894,7.212,2.205,15.271,9.504,-3.936,9.266,6.397,12.752,6.316,5.282
Mon Dec 02 21:09:28 2024,205,-24.407,-24.407,-1.210,-1.210,-1.726,17.907,7.263,2.151,15.251,9.486,-4.011,9.187,6.373,12.672,6.381,5.291
Mon Dec 02 21:09:28 2024,210,-24.533,-24.533,-1.102,-1.102,-1.739,17.888,7.224,2.108,15.275,9.424,-4.082,9.106,6.302,12.619,6.428,5.279
Mon Dec 02 21:09:28 2024,215,-24.642,-24.642,-0.994,-0.994,-1.723,17.842,7.099,2.095,15.340,9.339,-4.116,9.057,6.210,12.620,6.436,5.249
Mon Dec 02 21:09:28 2024,220,-24.743,-24.743,-0.888,-0.888,-1.708,17.818,7.028,2.081,15.392,9.285,-4.147,9.012,6.141,12.620,6.446,5.238
Mon Dec 02 21:09:28 2024,225,-24.872,-24.872,-0.739,-0.739,-1.692,17.866,7.105,2.058,15.425,9.310,-4.182,8.960,6.122,12.619,6.463,5.288
Mon Dec 02 21:09:28 2024,230,-25.021,-25.021,-0.564,-0.564,-1.673,17.935,7.225,2.028,15.457,9.358,-4.222,8.900,6.112,12.615,6.484,5.359
Mon Dec 02 21:09:28 2024,235,-25.176,-25.176,-0.435,-0.435,-1.682,17.941,7.239,2.002,15.521,9.368,-4.292,8.874,6.103,12.579,6.528,5.403
Mon Dec 02 21:09:28 2024,240,-25.326,-25.326,-0.335,-0.335,-1.703,17.916,7.199,1.979,15.597,9.358,-4.372,8.865,6.096,12.528,6.580,5.433
Mon Dec 02 21:09:28 2024,245,-25.491,-25.491,-0.229,-0.229,-1.724,17.887,7.158,1.953,15.671,9.350,-4.454,8.851,6.089,12.478,6.631,5.463
Mon Dec 02 21:09:28 2024,250,-25.687,-25.687,0.155,-0.155,-1.710,17.837,7.150,1.927,15.640,9.369,-4.468,8.807,6.095,12.484,6.611,5.465
Mon Dec 02 21:09:28 2024,255,-25.852,-25.852,0.099,-0.099,-1.699,17.792,7.143,1.905,15.613,9.386,-4.480,8.768,6.100,12.488,6.594,5.466
Mon Dec 02 21:09:28 2024,260,-26.041,-26.041,0.223,0.223,-1.710,17.721,7.137,1.846,15.595,9.357,-4.506,8.751,6.116,12.462,6.596,5.514
Mon Dec 02 21:09:28 2024,265,-26.252,-26.252,0.647,0.647,-1.736,17.629,7.133,1.763,15.579,9.301,-4.540,8.744,6.142,12.416,6.610,5.589
Mon Dec 02 21:09:28 2024,270,-26.424,-26.424,1.091,1.091,-1.761,17.552,7.158,1.729,15.580,9.304,-4.558,8.742,6.186,12.412,6.604,5.673
Mon Dec 02 21:09:28 2024,275,-26.555,-26.555,1.664,1.664,-1.791,17.491,7.254,1.794,15.623,9.434,-4.544,8.749,6.281,12.495,6.555,5.797
Mon Dec 02 21:09:28 2024,280,-26.661,-26.661,2.133,2.133,-1.815,17.442,7.335,1.851,15.658,9.545,-4.530,8.755,6.360,12.566,6.513,5.898
Mon Dec 02 21:09:28 2024,285,-26.794,-26.794,2.759,2.759,-1.856,17.406,7.383,1.823,15.712,9.526,-4.544,8.878,6.409,12.542,6.561,5.993
Mon Dec 02 21:09:28 2024,290,-26.902,-26.902,3.274,3.274,-1.891,17.383,7.410,1.778,15.759,9.474,-4.562,9.002,6.437,12.499,6.623,6.061
Mon Dec 02 21:09:28 2024,295,-27.047,-27.047,3.985,3.985,-1.931,17.334,7.465,1.725,15.790,9.416,-4.576,9.129,6.476,12.447,6.676,6.150
Mon Dec 02 21:09:28 2024,300,-27.170,-27.170,4.614,4.614,-1.950,17.263,7.547,1.698,15.764,9.388,-4.570,9.167,6.508,12.420,6.668,6.215
Mon Dec 02 21:09:28 2024,305,-27.289,-27.289,5.240,5.240,-1.964,17.196,7.629,1.676,15.734,9.362,-4.564,9.199,6.538,12.394,6.656,6.275
Mon Dec 02 21:09:28 2024,310,-27.377,-27.377,5.914,5.914,-1.941,17.165,7.733,1.709,15.664,9.364,-4.564,9.178,6.550,12.389,6.613,6.278
Mon Dec 02 21:09:28 2024,315,-27.452,-27.452,6.554,6.554,-1.909,17.144,7.836,1.755,15.588,9.372,-4.564,9.145,6.558,12.391,6.565,6.267
Mon Dec 02 21:09:28 2024,320,-27.512,-27.512,7.203,7.203,-1.893,17.143,7.902,1.790,15.585,9.347,-4.545,9.196,6.547,12.409,6.536,6.257
Mon Dec 02 21:09:28 2024,325,-27.582,-27.582,8.234,8.234,-1.890,17.168,7.952,1.827,15.682,9.257,-4.491,9.398,6.500,12.463,6.522,6.245
Mon Dec 02 21:09:28 2024,330,-27.647,-27.647,9.083,9.083,-1.888,17.190,7.991,1.857,15.762,9.183,-4.445,9.566,6.462,12.508,6.510,6.235
Mon Dec 02 21:09:28 2024,335,-27.684,-27.684,10.184,10.184,-1.882,17.093,8.197,1.855,15.680,9.194,-4.385,9.592,6.500,12.576,6.444,6.322
Mon Dec 02 21:09:28 2024,340,-27.722,-27.722,11.121,11.121,-1.877,17.004,8.377,1.851,15.602,9.209,-4.333,9.605,6.537,12.634,6.386,6.399
Mon Dec 02 21:09:28 2024,345,-27.748,-27.748,12.177,12.177,-1.858,16.965,8.556,1.884,15.572,9.213,-4.276,9.654,6.569,12.717,6.326,6.499
Mon Dec 02 21:09:28 2024,350,-27.767,-27.767,13.490,13.490,-1.823,16.982,8.753,1.965,15.594,9.205,-4.207,9.750,6.601,12.837,6.259,6.637
Mon Dec 02 21:09:28 2024,355,-27.796,-27.796,14.790,14.790,-1.809,16.944,8.927,2.023,15.599,9.192,-4.152,9.822,6.623,12.926,6.205,6.750
Mon Dec 02 21:09:28 2024,360,-27.831,-27.831,16.136,16.136,-1.888,16.667,9.035,1.993,15.543,9.157,-4.148,9.800,6.612,12.901,6.205,6.776
Mon Dec 02 21:09:28 2024,365,-27.882,-27.882,17.698,17.698,-1.989,16.314,9.147,1.946,15.469,9.115,-4.152,9.762,6.593,12.857,6.211,6.792
Mon Dec 02 21:09:28 2024,370,-27.956,-27.956,19.079,19.079,-2.054,16.129,9.243,1.919,15.481,9.121,-4.185,9.725,6.619,12.820,6.243,6.871
Mon Dec 02 21:09:28 2024,375,-28.051,-28.051,20.377,20.377,-2.099,16.038,9.332,1.902,15.544,9.155,-4.235,9.688,6.671,12.786,6.290,6.984
Mon Dec 02 21:09:28 2024,380,-28.146,-28.146,21.640,21.640,-2.130,15.926,9.438,1.882,15.559,9.203,-4.269,9.625,6.733,12.772,6.308,7.111
Mon Dec 02 21:09:28 2024,385,-28.203,-28.203,22.852,22.852,-2.094,15.677,9.665,1.839,15.319,9.337,-4.226,9.415,6.873,12.860,6.169,7.328
Mon Dec 02 21:09:28 2024,390,-28.264,-28.264,23.891,23.891,-2.054,15.443,9.871,1.801,15.077,9.461,-4.179,9.218,6.999,12.950,6.031,7.522
Mon Dec 02 21:09:28 2024,395,-28.254,-28.254,25.188,25.188,-2.018,15.255,10.036,1.804,14.833,9.452,-4.058,9.124,7.054,13.088,5.838,7.613
Mon Dec 02 21:09:28 2024,400,-28.221,-28.221,26.260,26.260,-1.994,15.144,10.136,1.826,14.658,9.378,-3.933,9.110,7.056,13.213,5.672,7.624
Mon Dec 02 21:09:28 2024,405,-28.209,-28.209,27.322,27.322,-1.976,15.076,10.244,1.869,14.528,9.327,-3.814,9.110,7.055,13.328,5.526,7.623
Mon Dec 02 21:09:28 2024,410,-28.234,-28.234,28.713,28.713,-1.969,15.161,10.436,2.012,14.526,9.346,-3.670,9.178,7.037,13.445,5.402,7.567
Mon Dec 02 21:09:28 2024,415,-28.258,-28.258,29.892,29.892,-1.962,15.218,10.563,2.134,14.528,9.371,-3.551,9.224,7.024,13.548,5.305,7.528
Mon Dec 02 21:09:28 2024,420,-28.219,-28.219,31.111,31.111,-1.951,15.217,10.584,2.257,14.524,9.416,-3.426,9.235,7.019,13.679,5.215,7.520
Mon Dec 02 21:09:28 2024,425,-28.133,-28.133,32.233,32.233,-1.938,15.163,10.512,2.364,14.517,9.471,-3.312,9.214,7.020,13.816,5.142,7.540
Mon Dec 02 21:09:28 2024,430,-28.019,-28.019,33.068,33.068,-1.926,15.072,10.439,2.428,14.430,9.507,-3.270,9.162,7.036,13.889,5.109,7.568
Mon Dec 02 21:09:28 2024,435,-27.819,16.637,33.391,33.391,-1.912,14.895,10.356,2.409,14.174,9.506,-3.368,9.047,7.081,13.841,5.156,7.612
Mon Dec 02 21:09:28 2024,440,-27.622,27.622,33.744,33.744,-1.898,14.709,10.270,2.391,13.901,9.505,-3.472,8.923,7.129,13.791,5.206,7.659
Mon Dec 02 21:09:28 2024,445,-27.712,27.712,34.172,34.172,-1.846,14.478,10.270,2.459,13.753,9.654,-3.403,8.802,7.186,13.832,5.152,7.697
Mon Dec 02 21:09:28 2024,450,-27.901,27.901,34.636,34.636,-1.784,14.230,10.290,2.549,13.633,9.839,-3.293,8.676,7.244,13.896,5.073,7.733
Mon Dec 02 21:09:28 2024,455,-28.126,28.126,35.034,35.034,-1.782,14.033,10.283,2.583,13.591,9.955,-3.224,8.591,7.269,13.951,5.017,7.747
Mon Dec 02 21:09:28 2024,460,-28.474,28.474,35.328,35.328,-1.974,13.928,10.182,2.443,13.794,9.886,-3.259,8.608,7.184,13.996,5.010,7.690
Mon Dec 02 21:09:28 2024,465,-28.817,28.817,35.603,35.603,-2.153,13.826,10.087,2.314,13.983,9.823,-3.293,8.625,7.107,14.039,5.002,7.637
Mon Dec 02 21:09:28 2024,470,-29.028,29.028,36.037,36.037,-2.192,13.793,10.066,2.364,14.119,9.844,-3.226,8.612,7.064,14.133,4.899,7.550
Mon Dec 02 21:09:28 2024,475,-29.166,29.166,36.448,36.448,-2.182,13.786,10.070,2.460,14.212,9.886,-3.142,8.592,7.038,14.226,4.786,7.468
Mon Dec 02 21:09:28 2024,480,-29.310,29.310,36.796,36.796,-2.177,13.773,10.104,2.540,14.278,9.978,-3.085,8.601,7.062,14.256,4.732,7.438
Mon Dec 02 21:09:28 2024,485,-29.425,29.425,36.884,36.884,-2.184,13.744,10.206,2.554,14.267,10.174,-3.112,8.687,7.210,14.120,4.848,7.551
Mon Dec 02 21:09:28 2024,490,-29.549,29.549,36.978,36.978,-2.189,13.724,10.279,2.571,14.265,10.327,-3.139,8.749,7.314,13.997,4.950,7.625
Mon Dec 02 21:09:28 2024,495,-29.754,29.754,37.108,37.108,-2.186,13.768,10.167,2.624,14.329,10.238,-3.182,8.660,7.137,13.909,5.015,7.445
Mon Dec 02 21:09:28 2024,500,-29.990,29.990,37.259,37.259,-2.180,13.828,10.013,2.688,14.406,10.094,-3.232,8.534,6.893,13.826,5.073,7.203
Mon Dec 02 21:09:28 2024,505,-30.181,30.181,37.384,37.384,-2.175,13.874,9.892,2.739,14.465,9.980,-3.272,8.436,6.702,13.762,5.118,7.014
Mon Dec 02 21:09:28 2024,510,-30.321,30.321,37.478,37.478,-2.172,13.907,9.804,2.776,14.505,9.898,-3.301,8.365,6.563,13.715,5.150,6.877
Mon Dec 02 21:09:28 2024,515,-30.501,30.501,36.726,36.726,-2.131,13.996,9.800,2.739,14.698,9.993,-3.191,8.833,6.804,13.762,5.208,6.958
Mon Dec 02 21:09:28 2024,520,-30.719,30.719,36.000,36.000,-2.089,14.092,9.776,2.711,14.895,10.068,-3.089,9.280,7.010,13.798,5.271,7.007
Mon Dec 02 21:09:28 2024,525,-30.901,30.901,35.626,35.626,-2.065,14.157,9.733,2.708,15.017,10.081,-3.043,9.503,7.078,13.802,5.315,6.986
Mon Dec 02 21:09:28 2024,530,-31.064,31.064,35.460,35.460,-1.990,14.306,9.667,2.744,15.182,10.050,-2.970,9.795,7.084,13.885,5.313,6.914
Mon Dec 02 21:09:28 2024,535,-31.148,31.148,35.701,35.701,-1.856,14.542,9.590,2.830,15.354,9.958,-2.876,10.100,6.990,14.066,5.233,6.783
Mon Dec 02 21:09:28 2024,540,-31.230,31.230,35.948,35.948,-1.743,14.745,9.517,2.907,15.494,9.878,-2.794,10.362,6.907,14.228,5.154,6.669
Mon Dec 02 21:09:28 2024,545,-31.100,31.100,36.689,36.689,-1.768,14.722,9.360,2.980,15.537,9.870,-2.768,10.330,6.855,14.364,5.061,6.687
Mon Dec 02 21:09:28 2024,550,-30.971,30.971,37.488,37.488,-1.793,14.698,9.193,3.057,15.579,9.863,-2.739,10.295,6.800,14.508,4.961,6.706
Mon Dec 02 21:09:28 2024,555,-30.908,30.908,38.063,38.063,-1.739,14.628,9.080,3.156,15.394,9.903,-2.666,10.176,6.857,14.579,4.909,6.796
Mon Dec 02 21:09:28 2024,560,-30.888,30.888,38.488,38.488,-1.651,14.539,8.999,3.260,15.115,9.961,-2.578,10.026,6.964,14.611,4.885,6.914
Mon Dec 02 21:09:28 2024,565,-30.936,30.936,38.801,38.801,-1.581,14.430,8.927,3.300,14.877,9.965,-2.519,9.917,7.052,14.615,4.887,7.008
Mon Dec 02 21:09:28 2024,570,-31.069,31.069,39.085,39.085,-1.510,14.266,8.842,3.276,14.613,9.909,-2.478,9.821,7.148,14.586,4.923,7.103
Mon Dec 02 21:09:28 2024,575,-31.236,31.236,39.277,39.277,-1.454,14.103,8.770,3.220,14.384,9.826,-2.458,9.758,7.225,14.544,4.971,7.177
Mon Dec 02 21:09:28 2024,580,-31.445,31.445,39.315,39.315,-1.408,13.909,8.782,3.139,14.088,9.898,-2.429,9.655,7.425,14.520,5.008,7.362
Mon Dec 02 21:09:28 2024,585,-31.626,31.626,39.276,39.276,-1.379,13.753,8.827,3.071,13.837,10.017,-2.405,9.562,7.625,14.511,5.030,7.546
Mon Dec 02 21:09:28 2024,590,-31.831,31.831,39.248,39.248,-1.336,13.568,8.864,3.009,13.554,10.122,-2.366,9.436,7.824,14.505,5.042,7.735
Mon Dec 02 21:09:28 2024,595,-31.932,31.932,39.266,39.266,-1.292,13.432,8.858,2.996,13.394,10.128,-2.319,9.308,7.891,14.511,5.023,7.813
Mon Dec 02 21:09:28 2024,600,-32.056,32.056,39.286,39.286,-1.242,13.275,8.851,2.982,13.208,10.134,-2.265,9.161,7.968,14.517,5.002,7.904
Mon Dec 02 21:09:28 2024,605,-32.333,32.333,39.131,39.131,-1.123,13.205,8.890,2.966,13.017,10.122,-2.142,9.213,8.113,14.510,4.979,7.958
Mon Dec 02 21:09:28 2024,610,-32.582,32.582,38.958,38.958,-1.016,13.190,8.935,2.954,12.887,10.106,-2.032,9.327,8.237,14.500,4.962,7.980
Mon Dec 02 21:09:28 2024,615,-32.848,32.848,38.725,38.725,-0.908,13.180,8.993,2.948,12.747,10.119,-1.929,9.388,8.350,14.501,4.938,8.004
Mon Dec 02 21:09:28 2024,620,-33.147,33.147,38.293,38.293,-0.801,13.192,9.096,2.962,12.582,10.234,-1.865,9.251,8.407,14.543,4.886,8.036
Mon Dec 02 21:09:28 2024,625,-33.440,33.440,37.882,37.882,-0.698,13.201,9.195,2.974,12.425,10.343,-1.805,9.120,8.461,14.584,4.836,8.066
Mon Dec 02 21:09:28 2024,630,-33.626,33.626,37.288,37.288,-0.531,13.407,9.208,3.031,12.378,10.286,-1.650,9.200,8.430,14.553,4.892,8.011
Mon Dec 02 21:09:28 2024,635,-33.780,33.780,36.723,36.723,-0.371,13.620,9.207,3.090,12.351,10.209,-1.495,9.301,8.388,14.514,4.958,7.949
Mon Dec 02 21:09:28 2024,640,-33.951,33.951,36.029,36.029,-0.228,13.836,9.167,3.159,12.394,10.164,-1.365,9.344,8.290,14.460,5.036,7.827
Mon Dec 02 21:09:28 2024,645,-34.105,34.105,35.320,35.320,-0.149,14.000,9.077,3.226,12.530,10.180,-1.311,9.285,8.130,14.396,5.112,7.645
Mon Dec 02 21:09:28 2024,650,-34.269,34.269,34.612,34.612,-0.001,14.161,8.987,3.296,12.663,10.196,-1.257,9.224,7.971,14.334,5.188,7.463
Mon Dec 02 21:09:28 2024,655,-34.277,34.277,34.064,34.064,0.148,14.311,8.974,3.298,12.748,10.253,-1.226,9.316,7.962,14.280,5.284,7.434
Mon Dec 02 21:09:28 2024,660,-34.268,34.268,33.562,33.562,0.238,14.452,8.977,3.290,12.821,10.315,-1.198,9.432,7.980,14.232,5.376,7.433
Mon Dec 02 21:09:28 2024,665,-34.136,34.136,33.022,33.022,0.367,14.477,8.922,3.329,12.885,10.356,-1.139,9.544,7.976,14.193,5.457,7.413
Mon Dec 02 21:09:28 2024,670,-33.928,33.928,32.551,32.551,0.498,14.396,8.830,3.402,12.928,10.372,-1.064,9.632,7.955,14.168,5.512,7.379
Mon Dec 02 21:09:28 2024,675,-33.742,33.742,32.108,32.108,0.622,14.318,8.745,3.469,12.966,10.387,-0.996,9.714,7.935,14.146,5.561,7.348
Mon Dec 02 21:09:28 2024,680,-33.390,33.390,31.550,31.550,0.747,14.463,8.757,3.460,13.113,10.402,-0.872,10.019,7.993,14.193,5.565,7.366
Mon Dec 02 21:09:28 2024,685,-33.037,33.037,30.977,30.977,0.874,14.620,8.776,3.445,13.268,10.416,-0.745,10.339,8.057,14.245,5.561,7.388
Mon Dec 02 21:09:28 2024,690,-32.699,32.699,30.177,30.177,0.998,14.660,8.761,3.424,13.375,10.462,-0.662,10.544,8.116,14.242,5.598,7.416
Mon Dec 02 21:09:28 2024,695,-32.412,32.412,29.189,29.189,1.107,14.561,8.707,3.399,13.416,10.542,-0.636,10.594,8.163,14.178,5.685,7.447
Mon Dec 02 21:09:28 2024,700,-32.187,32.187,28.351,28.351,1.199,14.477,8.661,3.377,13.452,10.609,-0.614,10.636,8.202,14.123,5.756,7.474
Mon Dec 02 21:09:28 2024,705,-31.868,31.868,27.793,27.793,1.282,14.340,8.470,3.464,13.618,10.596,-0.480,10.842,8.198,14.152,5.746,7.426
Mon Dec 02 21:09:28 2024,710,-31.592,31.592,27.266,27.266,1.360,14.213,8.296,3.541,13.764,10.587,-0.366,11.028,8.196,14.178,5.737,7.384
Mon Dec 02 21:09:28 2024,715,-31.355,31.355,26.916,26.916,1.399,14.094,8.204,3.577,13.866,10.589,-0.250,11.170,8.233,14.136,5.785,7.358
Mon Dec 02 21:09:28 2024,720,-31.113,31.113,26.602,26.602,1.426,13.967,8.137,3.598,13.961,10.598,0.250,11.303,8.290,14.060,5.862,7.335
Mon Dec 02 21:09:28 2024,725,-30.929,30.929,26.357,26.357,1.447,13.869,8.085,3.615,14.033,10.605,0.358,11.403,8.333,14.002,5.923,7.318
Mon Dec 02 21:09:28 2024,730,-30.685,30.685,26.185,26.185,1.480,14.041,8.048,3.720,14.084,10.555,0.549,11.594,8.312,14.159,5.788,7.338
Mon Dec 02 21:09:28 2024,735,-30.479,30.479,26.023,26.023,1.508,14.165,8.013,3.804,14.126,10.517,0.730,11.748,8.299,14.276,5.686,7.353
Mon Dec 02 21:09:28 2024,740,-30.398,30.398,25.824,25.824,1.473,14.103,7.889,3.839,14.134,10.425,0.812,11.694,8.177,14.250,5.706,7.241
Mon Dec 02 21:09:28 2024,745,-30.360,30.360,25.612,25.612,1.416,13.976,7.732,3.855,14.131,10.313,0.858,11.568,8.017,14.174,5.768,7.085
Mon Dec 02 21:09:28 2024,750,-30.243,30.243,25.440,25.440,1.371,13.918,7.602,3.888,14.154,10.228,0.958,11.508,7.921,14.154,5.781,7.000
Mon Dec 02 21:09:28 2024,755,-29.967,29.967,25.326,25.326,1.348,13.979,7.509,3.953,14.228,10.186,1.169,11.559,7.935,14.238,5.706,7.040
Mon Dec 02 21:09:28 2024,760,-29.673,29.673,25.202,25.202,1.323,14.045,7.410,4.023,14.302,10.141,1.396,11.607,7.951,14.327,5.624,7.084
Mon Dec 02 21:09:28 2024,765,-29.460,29.460,25.111,25.111,1.306,14.092,7.338,4.074,14.353,10.108,1.562,11.638,7.962,14.393,5.565,7.115
Mon Dec 02 21:09:28 2024,770,-29.333,29.333,25.056,25.056,1.295,14.121,7.295,4.104,14.381,10.088,1.661,11.654,7.969,14.432,5.528,7.134
Mon Dec 02 21:09:28 2024,775,-29.285,29.285,25.036,25.036,1.291,14.131,7.279,4.116,14.392,10.082,1.700,11.659,7.972,14.448,5.513,7.142
Mon Dec 02 21:09:28 2024,780,-29.575,29.575,24.881,24.881,1.153,14.174,7.244,4.108,14.422,10.011,1.530,11.540,7.589,14.383,5.569,6.705
Mon Dec 02 21:09:28 2024,785,-29.560,29.560,24.797,24.797,1.106,14.207,7.203,4.128,14.450,9.977,1.557,11.520,7.487,14.395,5.556,6.597
Mon Dec 02 21:09:28 2024,790,-29.453,29.453,24.858,24.858,1.124,14.042,7.198,4.149,14.341,9.893,1.664,11.491,7.501,14.442,5.503,6.605
Mon Dec 02 21:09:28 2024,795,-29.336,29.336,24.942,24.942,1.154,13.853,7.200,4.169,14.213,9.806,1.778,11.463,7.534,14.492,5.446,6.634
Mon Dec 02 21:09:28 2024,800,-29.312,29.312,24.997,24.997,1.137,13.766,7.209,4.195,14.175,9.778,1.806,11.442,7.520,14.519,5.414,6.612
Mon Dec 02 21:09:28 2024,805,-29.397,29.397,25.041,25.041,1.054,13.774,7.232,4.244,14.236,9.814,1.730,11.424,7.435,14.526,5.401,6.513
Mon Dec 02 21:09:28 2024,810,-29.470,29.470,25.100,25.100,0.985,13.782,7.260,4.290,14.283,9.850,1.666,11.409,7.366,14.538,5.384,6.431
Mon Dec 02 21:09:28 2024,815,-29.401,29.401,25.610,25.610,1.028,13.849,7.441,4.391,14.218,9.965,1.692,11.440,7.471,14.683,5.235,6.517
Mon Dec 02 21:09:28 2024,820,-29.348,29.348,26.034,26.034,1.064,13.904,7.591,4.474,14.163,10.060,1.713,11.466,7.558,14.803,5.112,6.589
Mon Dec 02 21:09:28 2024,825,-29.293,29.293,26.493,26.493,1.103,13.964,7.754,4.565,14.102,10.163,1.736,11.493,7.652,14.933,4.979,6.668
Mon Dec 02 21:09:28 2024,830,-29.717,29.717,27.586,27.586,1.069,13.944,7.788,4.566,14.169,10.121,1.513,11.388,7.402,14.929,4.961,6.440
Mon Dec 02 21:09:28 2024,835,-30.048,30.048,28.503,28.503,1.056,13.915,7.861,4.590,14.177,10.122,1.371,11.299,7.277,14.954,4.914,6.328
Mon Dec 02 21:09:28 2024,840,-30.555,30.555,29.484,29.484,1.036,13.716,7.938,4.585,14.084,10.117,1.263,11.097,7.258,14.928,4.898,6.335
Mon Dec 02 21:09:28 2024,845,-31.204,31.204,30.659,30.659,1.010,13.474,8.032,4.578,13.970,10.112,1.132,10.849,7.236,14.895,4.873,6.344
Mon Dec 02 21:09:28 2024,850,-31.818,31.818,31.679,31.679,1.045,13.403,8.158,4.617,13.866,10.037,0.998,10.751,7.148,14.902,4.804,6.297
Mon Dec 02 21:09:28 2024,855,-32.377,32.377,32.516,32.516,1.106,13.417,8.286,4.675,13.779,9.939,0.877,10.732,7.038,14.927,4.720,6.227
Mon Dec 02 21:09:28 2024,860,-32.792,32.792,33.524,33.524,1.175,13.437,8.397,4.757,13.691,9.844,0.758,10.693,6.915,14.961,4.617,6.173
Mon Dec 02 21:09:28 2024,865,-32.472,32.472,34.723,34.723,1.242,13.470,8.410,4.891,13.630,9.800,0.694,10.604,6.796,15.015,4.500,6.190
Mon Dec 02 21:09:28 2024,870,-32.198,32.198,35.882,35.882,1.307,13.500,8.422,5.021,13.568,9.756,0.633,10.517,6.681,15.066,4.383,6.207
Mon Dec 02 21:09:28 2024,875,-31.872,31.872,36.916,36.916,1.284,13.423,8.392,5.047,13.590,9.695,0.542,10.516,6.603,15.067,4.318,6.232
Mon Dec 02 21:09:28 2024,880,-31.500,31.500,38.066,38.066,1.211,13.278,8.333,5.026,13.660,9.614,0.428,10.558,6.532,15.043,4.264,6.265
Mon Dec 02 21:09:28 2024,885,-31.197,31.197,38.959,38.959,1.162,13.265,8.302,5.052,13.744,9.525,0.349,10.645,6.405,15.053,4.187,6.213
Mon Dec 02 21:09:28 2024,890,-31.044,31.044,39.192,39.192,1.172,13.566,8.332,5.187,13.839,9.425,0.340,10.836,6.162,15.142,4.065,5.964
Mon Dec 02 21:09:28 2024,895,-30.964,30.964,39.396,39.396,1.182,13.848,8.359,5.316,13.906,9.331,0.333,11.014,5.935,15.226,3.950,5.730
Mon Dec 02 21:09:28 2024,900,-30.769,30.769,38.335,38.335,1.018,14.027,8.343,5.373,14.055,9.214,0.262,11.198,5.601,15.222,3.932,5.358
Mon Dec 02 21:09:28 2024,905,-30.646,30.646,37.237,37.237,0.857,14.128,8.320,5.397,14.170,9.123,0.219,11.330,5.337,15.198,3.942,5.055
Mon Dec 02 21:09:28 2024,910,-30.703,30.703,35.859,35.859,0.635,14.179,8.338,5.399,14.272,9.083,-0.245,11.412,5.125,15.166,3.945,4.801
Mon Dec 02 21:09:28 2024,915,-31.046,31.046,34.756,34.756,0.414,14.080,8.439,5.350,14.317,9.185,-0.410,11.322,5.167,15.138,3.928,4.822
Mon Dec 02 21:09:28 2024,920,-31.412,31.412,33.698,33.698,0.213,13.977,8.535,5.301,14.361,9.284,-0.603,11.230,5.208,15.111,3.912,4.842
Mon Dec 02 21:09:28 2024,925,-31.406,31.406,34.030,34.030,-0.149,13.789,8.544,5.132,14.424,9.164,-0.853,10.880,5.093,15.051,3.817,4.784
Mon Dec 02 21:09:28 2024,930,-31.354,31.354,34.708,34.708,-0.414,13.561,8.533,4.924,14.473,8.988,-1.135,10.447,4.937,14.979,3.688,4.704
Mon Dec 02 21:09:28 2024,935,-31.350,31.350,35.262,35.262,-0.657,13.323,8.572,4.759,14.476,8.925,-1.384,10.092,4.895,14.930,3.607,4.736
Mon Dec 02 21:09:28 2024,940,-31.383,31.383,35.814,35.814,-0.904,12.982,8.704,4.607,14.416,9.026,-1.664,9.732,5.024,14.906,3.594,4.964
Mon Dec 02 21:09:28 2024,945,-31.427,31.427,36.288,36.288,-1.116,12.686,8.818,4.479,14.345,9.111,-1.904,9.421,5.135,14.886,3.583,5.159
Mon Dec 02 21:09:28 2024,950,-31.255,31.255,36.231,36.231,-1.123,12.505,8.984,4.374,14.260,9.217,-1.896,9.274,5.309,15.010,3.420,5.330
Mon Dec 02 21:09:28 2024,955,-31.065,31.065,36.106,36.106,-1.096,12.348,9.154,4.276,14.166,9.324,-1.847,9.158,5.489,15.156,3.236,5.494
Mon Dec 02 21:09:28 2024,960,-30.599,30.599,35.998,35.998,-1.051,12.159,9.260,4.234,14.025,9.397,-1.829,8.996,5.617,15.164,3.165,5.634
Mon Dec 02 21:09:28 2024,965,-30.004,30.004,35.915,35.915,-0.997,11.970,9.299,4.242,13.870,9.433,-1.837,8.819,5.687,15.062,3.191,5.735
Mon Dec 02 21:09:28 2024,970,-29.384,29.384,35.830,35.830,-0.935,11.754,9.345,4.254,13.688,9.474,-1.845,8.616,5.767,14.946,3.216,5.851
Mon Dec 02 21:09:28 2024,975,-29.205,29.205,35.665,35.665,-0.930,12.024,9.448,4.070,13.816,9.224,-1.936,8.879,5.709,14.843,3.409,5.878
Mon Dec 02 21:09:28 2024,980,-29.112,29.112,35.543,35.543,-0.928,12.261,9.538,3.910,13.926,9.006,-2.018,9.108,5.658,14.753,3.577,5.902
Mon Dec 02 21:09:28 2024,985,-29.125,-29.125,35.384,35.384,-0.950,12.489,9.657,3.824,14.042,8.917,-2.001,9.305,5.668,14.722,3.629,5.935
Mon Dec 02 21:09:28 2024,990,-29.223,-29.223,35.172,35.172,-0.995,12.704,9.804,3.823,14.167,8.971,-1.873,9.463,5.747,14.757,3.554,5.979
Mon Dec 02 21:09:28 2024,995,-29.323,-29.323,34.986,34.986,-1.036,12.899,9.938,3.822,14.278,9.019,-1.756,9.606,5.819,14.788,3.485,6.019
Mon Dec 02 21:09:29 2024,0,-29.316,-29.316,34.544,34.544,-1.050,12.880,9.929,3.782,14.311,8.898,-1.775,9.642,5.751,14.808,3.448,6.006
Mon Dec 02 21:09:29 2024,5,-29.326,-29.326,34.114,34.114,-1.065,12.862,9.921,3.743,14.346,8.778,-1.793,9.679,5.684,14.827,3.409,5.994
Mon Dec 02 21:09:29 2024,10,-29.304,-29.304,33.495,33.495,-1.070,12.904,9.965,3.693,14.362,8.837,-1.824,9.636,5.762,14.866,3.356,6.076
Mon Dec 02 21:09:29 2024,15,-29.274,-29.274,32.923,32.923,-1.070,12.962,10.021,3.649,14.369,8.955,-1.854,9.570,5.884,14.904,3.307,6.181
Mon Dec 02 21:09:29 2024,20,-29.248,-29.248,32.319,32.319,-1.071,13.025,10.082,3.602,14.375,9.082,-1.886,9.499,6.014,14.945,3.254,6.293
Mon Dec 02 21:09:29 2024,25,-29.224,-29.224,31.250,31.250,-1.226,12.762,9.804,3.456,14.484,9.058,-2.122,9.381,5.977,14.818,3.391,6.132
Mon Dec 02 21:09:29 2024,30,-29.210,-29.210,30.364,30.364,-1.349,12.558,9.589,3.336,14.569,9.050,-2.312,9.279,5.959,14.721,3.496,6.014
Mon Dec 02 21:09:29 2024,35,-29.260,-29.260,29.492,29.492,-1.444,12.498,9.497,3.219,14.595,9.091,-2.451,9.154,5.986,14.591,3.618,6.007
Mon Dec 02 21:09:29 2024,40,-29.329,-29.329,28.722,28.722,-1.521,12.486,9.451,3.114,14.598,9.143,-2.560,9.035,6.023,14.467,3.732,6.034
Mon Dec 02 21:09:29 2024,45,-29.390,-29.390,27.766,27.766,-1.596,12.515,9.383,3.008,14.616,9.175,-2.660,9.007,6.067,14.358,3.869,6.077
Mon Dec 02 21:09:29 2024,50,-29.403,-29.403,26.852,26.852,-1.637,12.609,9.300,2.943,14.661,9.155,-2.702,9.162,6.105,14.325,3.992,6.133
Mon Dec 02 21:09:29 2024,55,-29.419,-29.419,25.970,25.970,-1.678,12.701,9.219,2.880,14.705,9.134,-2.745,9.314,6.143,14.292,4.113,6.188
Mon Dec 02 21:09:29 2024,60,-29.391,-29.391,24.892,24.892,-1.799,12.922,9.114,2.838,14.933,9.116,-2.817,9.544,6.160,14.187,4.287,6.180
Mon Dec 02 21:09:29 2024,65,-29.361,-29.361,23.974,23.974,-1.923,13.138,9.023,2.810,15.176,9.103,-2.885,9.755,6.168,14.079,4.446,6.152
Mon Dec 02 21:09:29 2024,70,-29.341,-29.341,23.136,23.136,-1.979,13.349,8.955,2.838,15.337,9.101,-2.910,9.887,6.144,14.047,4.510,6.091
Mon Dec 02 21:09:29 2024,75,-29.325,-29.325,22.117,22.117,-1.919,13.636,8.907,2.988,15.393,9.121,-2.854,9.914,6.050,14.154,4.412,5.939
Mon Dec 02 21:09:29 2024,80,-29.310,-29.310,21.173,21.173,-1.861,13.908,8.861,3.131,15.434,9.140,-2.801,9.940,5.960,14.256,4.319,5.795
Mon Dec 02 21:09:29 2024,85,-29.309,-29.309,20.322,20.322,-1.889,14.225,8.859,3.158,15.650,9.286,-2.745,10.205,6.081,14.294,4.368,5.835
Mon Dec 02 21:09:29 2024,90,-29.310,-29.310,19.436,19.436,-1.928,14.562,8.861,3.175,15.881,9.454,-2.686,10.509,6.230,14.328,4.430,5.895
Mon Dec 02 21:09:29 2024,95,-29.312,-29.312,18.686,18.686,-1.962,14.846,8.863,3.190,16.063,9.599,-2.636,10.770,6.360,14.357,4.482,5.946
Mon Dec 02 21:09:29 2024,100,-29.219,-29.219,17.282,17.282,-1.890,14.971,8.715,3.317,15.960,9.566,-2.701,10.636,6.148,14.430,4.439,5.733
Mon Dec 02 21:09:29 2024,105,-29.164,-29.164,16.296,16.296,-1.856,15.109,8.628,3.396,15.936,9.580,-2.728,10.617,6.054,14.481,4.424,5.619
Mon Dec 02 21:09:29 2024,110,-29.122,-29.122,15.533,15.533,-1.828,15.217,8.561,3.457,15.915,9.591,-2.749,10.601,5.980,14.521,4.411,5.529
Mon Dec 02 21:09:29 2024,115,-29.099,-29.099,15.132,15.132,-1.814,15.275,8.525,3.491,15.903,9.596,-2.760,10.593,5.941,14.542,4.404,5.482
Mon Dec 02 21:09:29 2024,120,-29.059,-29.059,14.124,14.124,-1.818,15.355,8.447,3.486,15.965,9.698,-2.773,10.685,6.007,14.555,4.425,5.492
Mon Dec 02 21:09:29 2024,125,-28.988,-28.988,12.295,12.295,-1.827,15.498,8.305,3.477,16.078,9.886,-2.797,10.853,6.130,14.580,4.463,5.513
Mon Dec 02 21:09:29 2024,130,-28.923,-28.923,11.308,11.308,-1.815,15.584,8.232,3.498,16.101,9.977,-2.818,10.890,6.156,14.594,4.477,5.487
Mon Dec 02 21:09:29 2024,135,-28.751,-28.751,10.209,10.209,-1.779,15.633,8.192,3.530,16.092,10.132,-2.854,10.826,6.212,14.560,4.509,5.457
Mon Dec 02 21:09:29 2024,140,-28.592,-28.592,9.273,9.273,-1.745,15.668,8.165,3.558,16.078,10.273,-2.888,10.758,6.264,14.526,4.539,5.432
Mon Dec 02 21:09:29 2024,145,-28.467,-28.467,8.323,8.323,-1.724,15.743,8.123,3.596,16.069,10.389,-2.914,10.770,6.331,14.539,4.538,5.422
Mon Dec 02 21:09:29 2024,150,-28.371,-28.371,7.324,7.324,-1.715,15.860,8.067,3.646,16.063,10.480,-2.934,10.861,6.416,14.601,4.507,5.428
Mon Dec 02 21:09:29 2024,155,-28.287,-28.287,6.493,6.493,-1.695,15.940,8.036,3.685,16.040,10.569,-2.957,10.857,6.468,14.648,4.473,5.436
Mon Dec 02 21:09:29 2024,160,-28.221,-28.221,5.939,5.939,-1.644,15.937,8.064,3.705,15.976,10.664,-2.995,10.619,6.450,14.662,4.431,5.448
Mon Dec 02 21:09:29 2024,165,-28.150,-28.150,5.326,5.326,-1.585,15.933,8.095,3.728,15.902,10.771,-3.037,10.353,6.431,14.678,4.382,5.462
Mon Dec 02 21:09:29 2024,170,-28.095,-28.095,4.859,4.859,-1.536,15.973,8.081,3.733,15.898,10.868,-3.046,10.304,6.484,14.681,4.338,5.451
Mon Dec 02 21:09:29 2024,175,-28.054,-28.054,4.504,4.504,-1.495,16.026,8.051,3.732,15.922,10.951,-3.042,10.344,6.558,14.680,4.300,5.430
Mon Dec 02 21:09:29 2024,180,-28.016,-28.016,4.141,4.141,-1.451,16.057,8.020,3.740,15.930,11.024,-3.038,10.355,6.610,14.681,4.265,5.399
Mon Dec 02 21:09:29 2024,185,-27.977,-27.977,3.656,3.656,-1.380,16.025,7.975,3.782,15.891,11.082,-3.031,10.280,6.605,14.690,4.234,5.323
Mon Dec 02 21:09:29 2024,190,-27.944,-27.944,3.217,3.217,-1.315,15.990,7.934,3.822,15.851,11.134,-3.025,10.207,6.596,14.699,4.207,5.253
Mon Dec 02 21:09:29 2024,195,-27.965,-27.965,2.872,2.872,-1.305,15.941,7.934,3.801,15.848,11.214,-3.098,10.039,6.631,14.710,4.161,5.272
Mon Dec 02 21:09:29 2024,200,-28.004,-28.004,2.583,2.583,-1.312,15.892,7.947,3.764,15.854,11.297,-3.188,9.857,6.676,14.720,4.112,5.318
Mon Dec 02 21:09:29 2024,205,-28.044,-28.044,2.308,2.308,-1.319,15.845,7.960,3.727,15.858,11.375,-3.276,9.683,6.719,14.729,4.065,5.361
Mon Dec 02 21:09:29 2024,210,-27.998,-27.998,1.856,1.856,-1.281,15.924,7.903,3.758,15.862,11.312,-3.229,9.819,6.680,14.740,4.069,5.207
Mon Dec 02 21:09:29 2024,215,-27.971,-27.971,1.493,1.493,-1.255,15.974,7.864,3.774,15.865,11.278,-3.208,9.889,6.659,14.749,4.065,5.104
Mon Dec 02 21:09:29 2024,220,-27.961,-27.961,1.243,1.243,-1.251,15.995,7.844,3.765,15.875,11.311,-3.230,9.880,6.694,14.829,3.998,5.111
Mon Dec 02 21:09:29 2024,225,-27.956,-27.956,1.083,1.083,-1.252,16.004,7.833,3.754,15.884,11.346,-3.253,9.861,6.729,14.897,3.940,5.134
Mon Dec 02 21:09:29 2024,230,-27.948,-27.948,0.890,0.890,-1.256,16.053,7.820,3.746,15.907,11.358,-3.276,9.884,6.744,14.970,3.885,5.150
Mon Dec 02 21:09:29 2024,235,-27.937,-27.937,0.701,0.701,-1.264,16.130,7.810,3.743,15.942,11.346,-3.294,9.944,6.737,15.033,3.843,5.157
Mon Dec 02 21:09:29 2024,240,-27.925,-27.925,0.506,0.506,-1.273,16.220,7.799,3.741,15.980,11.324,-3.311,10.020,6.721,15.096,3.804,5.161
Mon Dec 02 21:09:29 2024,245,-27.863,-27.863,0.232,0.232,-1.276,16.077,7.715,3.744,15.955,11.375,-3.357,9.861,6.721,15.103,3.805,5.176
Mon Dec 02 21:09:29 2024,250,-27.799,-27.799,-0.056,-0.056,-1.278,15.923,7.625,3.748,15.928,11.430,-3.405,9.692,6.721,15.110,3.807,5.192
Mon Dec 02 21:09:29 2024,255,-27.767,-27.767,-0.265,-0.265,-1.279,15.887,7.572,3.730,15.918,11.420,-3.454,9.566,6.678,15.072,3.824,5.129
Mon Dec 02 21:09:29 2024,260,-27.757,-27.757,-0.424,-0.424,-1.279,15.929,7.543,3.699,15.920,11.367,-3.502,9.469,6.605,15.006,3.851,5.017
Mon Dec 02 21:09:29 2024,265,-27.748,-27.748,-0.562,-0.562,-1.279,15.966,7.518,3.672,15.922,11.322,-3.545,9.386,6.542,14.949,3.874,4.920
Mon Dec 02 21:09:29 2024,270,-27.762,-27.762,-0.576,-0.576,-1.255,16.125,7.583,3.675,15.956,11.314,-3.525,9.445,6.540,15.024,3.829,4.937
Mon Dec 02 21:09:29 2024,275,-27.776,-27.776,-0.590,-0.590,-1.232,16.277,7.646,3.679,15.986,11.308,-3.506,9.502,6.538,15.097,3.787,4.955
Mon Dec 02 21:09:29 2024,280,-27.734,-27.734,-0.663,-0.663,-1.195,16.376,7.674,3.732,15.953,11.298,-3.508,9.495,6.480,15.099,3.758,4.898
Mon Dec 02 21:09:29 2024,285,-27.677,-27.677,-0.749,-0.749,-1.158,16.454,7.690,3.796,15.903,11.288,-3.516,9.471,6.410,15.082,3.735,4.824
Mon Dec 02 21:09:29 2024,290,-27.605,-27.605,-0.855,-0.855,-1.119,16.530,7.707,3.838,15.868,11.288,-3.519,9.468,6.369,15.056,3.727,4.772
Mon Dec 02 21:09:29 2024,295,-27.521,-27.521,-0.968,-0.968,-1.107,16.572,7.722,3.749,15.930,11.330,-3.496,9.578,6.483,15.035,3.782,4.859
Mon Dec 02 21:09:29 2024,300,-27.439,-27.439,-1.078,-1.078,-1.096,16.610,7.738,3.653,15.995,11.374,-3.473,9.692,6.605,15.014,3.840,4.953
Mon Dec 02 21:09:29 2024,305,-27.464,-27.464,-1.037,-1.037,-1.098,16.562,7.658,3.662,15.966,11.314,-3.469,9.584,6.540,14.992,3.808,4.893
Mon Dec 02 21:09:29 2024,310,-27.528,-27.528,-0.942,-0.942,-1.106,16.484,7.547,3.710,15.904,11.220,-3.474,9.398,6.408,14.973,3.744,4.778
Mon Dec 02 21:09:29 2024,315,-27.590,-27.590,-0.883,-0.883,-1.106,16.454,7.497,3.733,15.870,11.148,-3.472,9.313,6.332,14.952,3.708,4.694
Mon Dec 02 21:09:29 2024,320,-27.629,-27.629,-0.911,-0.911,-1.091,16.528,7.586,3.698,15.902,11.140,-3.460,9.458,6.391,14.935,3.744,4.692
Mon Dec 02 21:09:29 2024,325,-27.669,-27.669,-0.948,-0.948,-1.076,16.616,7.694,3.656,15.942,11.136,-3.445,9.632,6.466,14.919,3.790,4.697
Mon Dec 02 21:09:29 2024,330,-27.731,-27.731,-0.884,-0.884,-1.020,16.740,7.808,3.677,15.913,11.230,-3.380,9.762,6.580,14.958,3.755,4.770
Mon Dec 02 21:09:29 2024,335,-27.796,-27.796,-0.790,-0.790,-0.955,16.870,7.919,3.719,15.862,11.351,-3.303,9.872,6.701,15.014,3.696,4.861
Mon Dec 02 21:09:29 2024,340,-27.842,-27.842,-0.743,-0.743,-0.923,16.926,7.978,3.722,15.834,11.391,-3.279,9.915,6.757,15.035,3.676,4.910
Mon Dec 02 21:09:29 2024,345,-27.855,-27.855,-0.771,-0.771,-0.945,16.863,7.952,3.663,15.837,11.299,-3.342,9.853,6.711,15.003,3.719,4.892
Mon Dec 02 21:09:29 2024,350,-27.864,-27.864,-0.803,-0.803,-0.969,16.796,7.922,3.604,15.841,11.205,-3.406,9.787,6.662,14.969,3.763,4.871
Mon Dec 02 21:09:29 2024,355,-27.870,-27.870,-0.697,-0.697,-1.042,16.695,7.907,3.622,15.837,11.227,-3.436,9.724,6.626,14.973,3.757,4.868
Mon Dec 02 21:09:29 2024,360,-27.872,-27.872,-0.583,-0.583,-1.109,16.612,7.901,3.658,15.831,11.275,-3.447,9.681,6.603,14.987,3.738,4.870
Mon Dec 02 21:09:29 2024,365,-27.836,-27.836,-0.344,-0.344,-1.188,16.579,7.898,3.688,15.855,11.318,-3.456,9.671,6.587,14.988,3.742,4.849
Mon Dec 02 21:09:29 2024,370,-27.744,-27.744,0.014,0.014,-1.251,16.658,7.902,3.692,15.922,11.330,-3.457,9.731,6.594,14.964,3.786,4.792
Mon Dec 02 21:09:29 2024,375,-27.666,-27.666,0.320,0.320,-1.305,16.724,7.905,3.696,15.976,11.340,-3.458,9.782,6.601,14.942,3.824,4.742
Mon Dec 02 21:09:29 2024,380,-27.536,-27.536,1.074,1.074,-1.360,16.744,7.907,3.643,16.037,11.232,-3.471,9.862,6.517,14.914,3.845,4.766
Mon Dec 02 21:09:29 2024,385,-27.410,-27.410,1.838,1.838,-1.406,16.760,7.917,3.593,16.089,11.120,-3.480,9.942,6.429,14.889,3.859,4.794
Mon Dec 02 21:09:29 2024,390,-27.283,-27.283,2.628,2.628,-1.432,16.824,7.980,3.596,16.117,11.056,-3.453,10.048,6.371,14.873,3.861,4.783
Mon Dec 02 21:09:29 2024,395,-27.154,-27.154,3.461,3.461,-1.430,16.956,8.117,3.676,16.102,11.058,-3.375,10.192,6.352,14.868,3.845,4.717
Mon Dec 02 21:09:29 2024,400,-27.062,-27.062,4.108,4.108,-1.429,17.058,8.224,3.738,16.085,11.060,-3.313,10.304,6.337,14.864,3.832,4.666
Mon Dec 02 21:09:29 2024,405,-27.111,-27.111,5.102,5.102,-1.431,17.068,8.326,3.756,16.102,11.024,-3.391,10.382,6.286,14.752,3.932,4.664
Mon Dec 02 21:09:29 2024,410,-27.186,-27.186,6.097,6.097,-1.433,17.065,8.421,3.767,16.120,10.985,-3.483,10.450,6.233,14.633,4.041,4.670
Mon Dec 02 21:09:29 2024,415,-27.288,-27.288,7.264,7.264,-1.361,17.002,8.595,3.777,16.082,10.902,-3.497,10.483,6.190,14.521,4.088,4.654
Mon Dec 02 21:09:29 2024,420,-27.406,-27.406,8.391,8.391,-1.245,16.895,8.799,3.784,15.999,10.801,-3.454,10.487,6.160,14.430,4.082,4.623
Mon Dec 02 21:09:29 2024,425,-27.544,-27.544,9.521,9.521,-1.147,16.803,8.994,3.828,15.903,10.738,-3.393,10.529,6.147,14.369,4.080,4.620
Mon Dec 02 21:09:29 2024,430,-27.722,-27.722,10.808,10.808,-1.082,16.782,9.186,3.999,15.778,10.779,-3.268,10.702,6.184,14.396,4.095,4.706
Mon Dec 02 21:09:29 2024,435,-27.927,-27.927,12.107,12.107,-1.025,16.773,9.371,4.188,15.645,10.837,-3.136,10.892,6.229,14.439,4.113,4.806
Mon Dec 02 21:09:29 2024,440,-28.112,-28.112,13.916,13.916,-1.141,16.519,9.637,4.207,15.625,10.883,-2.992,11.081,6.380,14.590,4.061,5.031
Mon Dec 02 21:09:29 2024,445,-28.303,-28.303,15.884,15.884,-1.294,16.209,9.924,4.190,15.629,10.928,-2.846,11.272,6.556,14.766,3.992,5.285
Mon Dec 02 21:09:29 2024,450,-28.498,-28.498,18.075,18.075,-1.438,15.889,10.184,4.167,15.633,10.984,-2.726,11.367,6.714,14.924,3.907,5.545
Mon Dec 02 21:09:29 2024,455,-28.694,-28.694,20.845,20.845,-1.507,15.617,10.363,4.194,15.598,11.088,-2.670,11.189,6.790,15.007,3.799,5.797
Mon Dec 02 21:09:29 2024,460,-28.905,-28.905,23.535,23.535,-1.564,15.372,10.522,4.222,15.564,11.186,-2.624,11.009,6.854,15.080,3.698,6.030
Mon Dec 02 21:09:29 2024,465,-29.034,-29.034,26.216,26.216,-1.581,15.215,10.733,4.267,15.497,11.240,-2.506,10.853,6.899,15.228,3.501,6.187
Mon Dec 02 21:09:29 2024,470,-28.949,-28.949,28.991,28.991,-1.506,15.254,11.093,4.360,15.342,11.194,-2.213,10.736,6.901,15.571,3.061,6.178
Mon Dec 02 21:09:29 2024,475,-29.006,9.687,31.374,31.374,-1.463,15.245,11.359,4.427,15.230,11.177,-2.008,10.624,6.911,15.814,2.747,6.208
Mon Dec 02 21:09:29 2024,480,-28.604,28.604,33.088,33.088,-1.483,14.686,11.316,4.524,15.004,11.544,-2.154,10.058,7.058,15.960,2.660,6.343
Mon Dec 02 21:09:29 2024,485,-28.449,28.449,34.841,34.841,-1.509,14.227,11.282,4.610,14.813,11.840,-2.257,9.600,7.169,16.110,2.556,6.443
Mon Dec 02 21:09:29 2024,490,-28.885,28.885,36.215,36.215,-1.611,14.035,11.191,4.643,14.803,11.939,-2.289,9.470,7.168,16.297,2.406,6.408
Mon Dec 02 21:09:29 2024,495,-29.855,29.855,37.624,37.624,-1.789,13.990,11.039,4.646,14.915,11.923,-2.278,9.542,7.087,16.552,2.192,6.270
Mon Dec 02 21:09:29 2024,500,-30.634,30.634,38.600,38.600,-1.852,13.890,10.918,4.659,14.942,11.915,-2.326,9.470,6.990,16.642,2.092,6.146
Mon Dec 02 21:09:29 2024,505,-31.175,31.175,39.112,39.112,-1.734,13.656,10.804,4.691,14.845,11.921,-2.495,9.110,6.830,16.472,2.159,6.001
Mon Dec 02 21:09:29 2024,510,-31.726,31.726,39.593,39.593,-1.600,13.405,10.694,4.725,14.733,11.929,-2.678,8.725,6.666,16.276,2.238,5.856
Mon Dec 02 21:09:29 2024,515,-32.076,32.076,39.371,39.371,-1.456,13.342,10.594,4.706,14.716,11.930,-2.694,8.686,6.701,16.218,2.303,5.892
Mon Dec 02 21:09:29 2024,520,-32.379,32.379,38.694,38.694,-1.279,13.373,10.479,4.656,14.753,11.927,-2.616,8.835,6.858,16.226,2.373,6.037
Mon Dec 02 21:09:29 2024,525,-32.616,32.616,38.116,38.116,-1.082,13.361,10.394,4.650,14.752,11.908,-2.523,8.942,6.951,16.283,2.366,6.124
Mon Dec 02 21:09:29 2024,530,-32.758,32.758,37.661,37.661,-0.863,13.292,10.345,4.695,14.706,11.872,-2.408,8.997,6.965,16.402,2.269,6.143
Mon Dec 02 21:09:29 2024,535,-32.924,32.924,37.171,37.171,-0.629,13.209,10.292,4.745,14.657,11.833,-2.283,9.053,6.981,16.530,2.165,6.162
Mon Dec 02 21:09:29 2024,540,-33.062,33.062,37.392,37.392,-0.460,13.436,10.222,4.844,14.692,11.758,-2.095,9.358,6.962,16.744,2.052,6.142
Mon Dec 02 21:09:29 2024,545,-33.194,33.194,37.822,37.822,-0.315,13.746,10.148,4.957,14.726,11.675,-1.890,9.728,6.932,16.979,1.933,6.111
Mon Dec 02 21:09:29 2024,550,-33.297,33.297,38.206,38.206,-0.268,13.953,10.100,5.059,14.706,11.651,-1.790,9.950,6.946,17.124,1.857,6.123
Mon Dec 02 21:09:29 2024,555,-33.400,33.400,38.671,38.671,-0.329,14.106,10.068,5.183,14.634,11.696,-1.788,10.063,7.022,17.202,1.817,6.196
Mon Dec 02 21:09:29 2024,560,-33.508,33.508,39.112,39.112,-0.407,14.218,10.013,5.286,14.567,11.726,-1.802,10.141,7.082,17.254,1.790,6.256
Mon Dec 02 21:09:29 2024,565,-33.644,33.644,39.400,39.400,-0.541,14.143,9.805,5.285,14.570,11.649,-1.868,10.072,7.038,17.196,1.824,6.228
Mon Dec 02 21:09:29 2024,570,-33.808,33.808,39.700,39.700,-0.706,14.019,9.540,5.262,14.588,11.540,-1.953,9.965,6.967,17.109,1.875,6.177
Mon Dec 02 21:09:29 2024,575,-34.036,34.036,39.959,39.959,-0.813,13.965,9.373,5.206,14.624,11.475,-2.063,9.901,6.935,17.045,1.933,6.125
Mon Dec 02 21:09:29 2024,580,-34.294,34.294,40.118,40.118,-0.832,14.007,9.353,5.123,14.668,11.474,-2.177,9.899,6.953,17.024,1.988,6.080
Mon Dec 02 21:09:29 2024,585,-34.582,34.582,40.348,40.348,-0.851,14.004,9.318,5.044,14.693,11.488,-2.297,9.861,6.991,17.006,2.037,6.068
Mon Dec 02 21:09:29 2024,590,-34.753,34.753,40.728,40.728,-0.855,13.784,9.237,5.044,14.626,11.565,-2.356,9.681,7.096,17.018,2.017,6.219
Mon Dec 02 21:09:29 2024,595,-34.909,34.909,41.098,41.098,-0.856,13.557,9.157,5.053,14.547,11.643,-2.405,9.497,7.200,17.033,1.992,6.378
Mon Dec 02 21:09:29 2024,600,-35.063,35.063,41.291,41.291,-0.872,13.279,9.068,4.961,14.509,11.632,-2.480,9.263,7.266,16.983,2.011,6.483
Mon Dec 02 21:09:29 2024,605,-35.172,35.172,41.299,41.299,-0.894,13.041,8.997,4.818,14.499,11.556,-2.553,9.057,7.285,16.899,2.057,6.517
Mon Dec 02 21:09:29 2024,610,-35.322,35.322,41.300,41.300,-0.906,12.775,8.930,4.673,14.448,11.478,-2.638,8.827,7.293,16.823,2.085,6.543
Mon Dec 02 21:09:29 2024,615,-35.556,35.556,41.268,41.268,-0.868,12.536,8.915,4.597,14.322,11.432,-2.730,8.625,7.243,16.827,2.021,6.518
Mon Dec 02 21:09:29 2024,620,-35.779,35.779,41.236,41.236,-0.831,12.314,8.904,4.528,14.188,11.388,-2.814,8.437,7.196,16.832,1.958,6.494
Mon Dec 02 21:09:29 2024,625,-35.957,35.957,40.884,40.884,-0.772,12.196,8.950,4.482,14.076,11.444,-2.784,8.334,7.320,16.866,1.912,6.558
Mon Dec 02 21:09:29 2024,630,-36.071,36.071,40.510,40.510,-0.720,12.151,9.007,4.458,14.005,11.518,-2.720,8.290,7.474,16.901,1.884,6.636
Mon Dec 02 21:09:29 2024,635,-36.206,36.206,40.081,40.081,-0.662,12.098,9.071,4.430,13.920,11.605,-2.646,8.240,7.651,16.942,1.853,6.726
Mon Dec 02 21:09:29 2024,640,-36.340,36.340,39.722,39.722,-0.562,11.978,9.144,4.442,13.742,11.626,-2.560,8.276,7.784,16.994,1.777,6.802
Mon Dec 02 21:09:29 2024,645,-36.466,36.466,39.392,39.392,-0.478,11.873,9.211,4.451,13.584,11.651,-2.483,8.303,7.909,17.041,1.711,6.873
Mon Dec 02 21:09:29 2024,650,-36.573,36.573,38.970,38.970,-0.480,11.834,9.140,4.450,13.534,11.638,-2.425,8.232,7.906,17.134,1.635,6.847
Mon Dec 02 21:09:29 2024,655,-36.651,36.651,38.628,38.628,-0.504,11.823,9.052,4.447,13.523,11.619,-2.386,8.152,7.869,17.216,1.575,6.803
Mon Dec 02 21:09:29 2024,660,-36.766,36.766,38.241,38.241,-0.506,11.836,9.015,4.440,13.510,11.624,-2.343,8.116,7.878,17.278,1.526,6.798
Mon Dec 02 21:09:29 2024,665,-36.933,36.933,37.870,37.870,-0.445,11.909,9.132,4.424,13.496,11.692,-2.304,8.214,8.006,17.267,1.526,6.900
Mon Dec 02 21:09:29 2024,670,-37.090,37.090,37.524,37.524,-0.389,11.978,9.240,4.409,13.482,11.756,-2.268,8.305,8.125,17.257,1.525,6.995
Mon Dec 02 21:09:29 2024,675,-37.152,37.152,37.280,37.280,-0.347,12.016,9.266,4.437,13.472,11.815,-2.204,8.322,8.190,17.274,1.514,7.040
Mon Dec 02 21:09:29 2024,680,-37.200,37.200,37.047,37.047,-0.306,12.049,9.277,4.474,13.463,11.877,-2.130,8.323,8.248,17.297,1.501,7.079
Mon Dec 02 21:09:29 2024,685,-37.236,37.236,36.898,36.898,-0.295,12.024,9.289,4.466,13.429,11.909,-2.099,8.320,8.296,17.291,1.494,7.093
Mon Dec 02 21:09:29 2024,690,-37.258,37.258,36.860,36.860,-0.325,11.906,9.304,4.389,13.349,11.899,-2.130,8.312,8.335,17.239,1.495,7.072
Mon Dec 02 21:09:29 2024,695,-37.281,37.281,36.822,36.822,-0.358,11.785,9.319,4.310,13.264,11.888,-2.163,8.304,8.376,17.186,1.495,7.052
Mon Dec 02 21:09:29 2024,700,-37.334,37.334,36.708,36.708,-0.400,11.731,9.298,4.309,13.292,11.867,-2.172,8.264,8.327,17.220,1.472,7.049
Mon Dec 02 21:09:29 2024,705,-37.393,37.393,36.577,36.577,-0.448,11.682,9.270,4.318,13.335,11.844,-2.180,8.217,8.264,17.266,1.443,7.049
Mon Dec 02 21:09:29 2024,710,-37.450,37.450,36.511,36.511,-0.511,11.654,9.252,4.312,13.386,11.860,-2.207,8.162,8.232,17.261,1.443,7.033
Mon Dec 02 21:09:29 2024,715,-37.511,37.511,36.511,36.511,-0.596,11.647,9.243,4.288,13.452,11.924,-2.258,8.093,8.233,17.198,1.473,6.997
Mon Dec 02 21:09:29 2024,720,-37.568,37.568,36.513,36.513,-0.682,11.642,9.238,4.261,13.508,11.968,-2.302,8.036,8.235,17.160,1.482,6.972
Mon Dec 02 21:09:29 2024,725,-37.578,37.578,36.518,36.518,-0.720,11.657,9.258,4.227,13.485,11.890,-2.290,8.068,8.242,17.281,1.367,7.021
Mon Dec 02 21:09:29 2024,730,-37.582,37.582,36.524,36.524,-0.752,11.672,9.282,4.193,13.451,11.796,-2.270,8.113,8.248,17.423,1.236,7.080
Mon Dec 02 21:09:29 2024,735,-37.564,37.564,36.597,36.597,-0.770,11.713,9.281,4.165,13.430,11.766,-2.287,8.113,8.270,17.481,1.195,7.127
Mon Dec 02 21:09:29 2024,740,-37.533,37.533,36.703,36.703,-0.772,11.763,9.260,4.147,13.425,11.795,-2.327,8.076,8.297,17.459,1.235,7.152
Mon Dec 02 21:09:29 2024,745,-37.490,37.490,36.871,36.871,-0.791,11.794,9.251,4.126,13.420,11.813,-2.371,8.031,8.316,17.432,1.271,7.177
Mon Dec 02 21:09:29 2024,750,-37.424,37.424,37.182,37.182,-0.876,11.717,9.306,4.108,13.420,11.772,-2.394,7.978,8.285,17.407,1.260,7.182
Mon Dec 02 21:09:29 2024,755,-37.357,37.357,37.511,37.511,-0.968,11.628,9.367,4.089,13.420,11.724,-2.417,7.923,8.249,17.380,1.244,7.185
Mon Dec 02 21:09:29 2024,760,-36.962,36.962,38.030,38.030,-1.021,11.615,9.342,4.103,13.414,11.617,-2.446,7.864,8.146,17.326,1.288,7.113
Mon Dec 02 21:09:29 2024,765,-36.402,36.402,38.644,38.644,-1.052,11.642,9.270,4.134,13.404,11.479,-2.479,7.804,8.006,17.257,1.364,7.003
Mon Dec 02 21:09:29 2024,770,-35.930,35.930,39.148,39.148,-1.096,11.678,9.218,4.144,13.423,11.368,-2.502,7.785,7.902,17.211,1.425,6.934
Mon Dec 02 21:09:29 2024,775,-35.293,35.293,39.764,39.764,-1.232,11.784,9.187,4.086,13.579,11.247,-2.514,7.907,7.822,17.207,1.482,6.948
Mon Dec 02 21:09:29 2024,780,-34.833,34.833,40.210,40.210,-1.338,11.864,9.166,4.039,13.702,11.160,-2.521,8.007,7.768,17.209,1.521,6.965
Mon Dec 02 21:09:29 2024,785,-34.300,34.300,40.438,40.438,-1.455,12.031,9.235,4.092,13.940,11.201,-2.479,8.178,7.726,17.235,1.531,6.910
Mon Dec 02 21:09:29 2024,790,-33.849,33.849,40.470,40.470,-1.553,12.217,9.348,4.200,14.179,11.316,-2.415,8.356,7.702,17.269,1.519,6.820
Mon Dec 02 21:09:29 2024,795,-33.536,33.536,40.367,40.367,-1.602,12.450,9.446,4.311,14.344,11.372,-2.345,8.526,7.638,17.300,1.497,6.709
Mon Dec 02 21:09:29 2024,800,-33.469,33.469,39.718,39.718,-1.510,13.021,9.558,4.505,14.430,11.251,-2.210,8.782,7.392,17.338,1.429,6.448
Mon Dec 02 21:09:29 2024,805,-33.427,33.427,39.214,39.214,-1.433,13.470,9.646,4.661,14.469,11.155,-2.101,8.982,7.198,17.367,1.375,6.242
Mon Dec 02 21:09:29 2024,810,-32.995,32.995,38.340,38.340,-1.423,13.732,9.802,4.762,14.528,11.070,-2.002,9.117,6.988,17.349,1.406,6.024
Mon Dec 02 21:09:29 2024,815,-32.580,32.580,37.605,37.605,-1.444,13.839,9.934,4.809,14.576,11.017,-1.937,9.186,6.839,17.318,1.460,5.872
Mon Dec 02 21:09:29 2024,820,-32.064,32.064,36.905,36.905,-1.533,13.917,10.118,4.840,14.576,11.019,-1.938,9.062,6.720,17.224,1.500,5.754
Mon Dec 02 21:09:29 2024,825,-31.613,31.613,36.676,36.676,-1.705,13.890,10.294,4.821,14.489,11.128,-2.068,8.634,6.725,17.063,1.483,5.770
Mon Dec 02 21:09:29 2024,830,-31.236,31.236,36.491,36.491,-1.862,13.863,10.454,4.803,14.403,11.228,-2.189,8.243,6.730,16.914,1.460,5.787
Mon Dec 02 21:09:29 2024,835,-30.352,30.352,36.847,36.847,-2.025,13.666,10.738,4.680,14.240,11.374,-2.304,7.864,6.854,16.798,1.490,5.976
Mon Dec 02 21:09:29 2024,840,-29.656,29.656,37.216,37.216,-2.138,13.490,10.962,4.571,14.085,11.485,-2.381,7.606,6.967,16.726,1.525,6.146
Mon Dec 02 21:09:29 2024,845,-28.832,28.832,37.119,37.119,-2.176,13.470,11.127,4.443,13.989,11.471,-2.377,7.546,7.017,16.734,1.533,6.285
Mon Dec 02 21:09:29 2024,850,-28.118,28.118,36.515,36.515,-2.113,13.645,11.168,4.331,14.017,11.309,-2.278,7.742,6.974,16.836,1.507,6.341
Mon Dec 02 21:09:29 2024,855,-27.356,27.356,35.876,35.876,-2.042,13.842,11.214,4.205,14.045,11.126,-2.166,7.965,6.924,16.952,1.477,6.405
Mon Dec 02 21:09:29 2024,860,-26.648,26.648,34.732,34.732,-1.749,13.969,11.343,4.283,13.794,11.099,-2.148,7.931,6.942,16.752,1.628,6.423
Mon Dec 02 21:09:29 2024,865,-26.076,26.076,33.760,33.760,-1.490,14.066,11.456,4.357,13.565,11.082,-2.137,7.892,6.961,16.569,1.762,6.437
Mon Dec 02 21:09:29 2024,870,-25.664,25.664,32.721,32.721,-1.387,14.407,11.602,4.377,13.591,11.005,-2.141,8.057,6.949,16.422,1.919,6.417
Mon Dec 02 21:09:29 2024,875,-25.479,25.479,31.895,31.895,-1.411,14.830,11.735,4.357,13.776,10.906,-2.154,8.318,6.920,16.335,2.053,6.381
Mon Dec 02 21:09:29 2024,880,-25.341,25.341,31.066,31.066,-1.434,15.260,11.875,4.339,13.964,10.808,-2.164,8.582,6.889,16.246,2.188,6.343
Mon Dec 02 21:09:29 2024,885,-25.452,25.452,30.601,30.601,-1.431,15.402,11.945,4.398,14.069,10.856,-2.103,8.639,6.848,16.210,2.204,6.293
Mon Dec 02 21:09:29 2024,890,-25.553,25.553,30.234,30.234,-1.428,15.518,12.003,4.447,14.149,10.896,-2.053,8.685,6.814,16.180,2.217,6.253
Mon Dec 02 21:09:29 2024,895,-25.650,25.650,29.394,29.394,-1.426,15.634,12.080,4.476,14.184,10.901,-2.021,8.766,6.797,16.124,2.246,6.219
Mon Dec 02 21:09:29 2024,900,-25.743,25.743,28.242,28.242,-1.426,15.749,12.168,4.488,14.188,10.882,-2.002,8.871,6.795,16.049,2.285,6.190
Mon Dec 02 21:09:29 2024,905,-25.826,25.826,27.231,27.231,-1.431,15.852,12.213,4.504,14.202,10.872,-2.001,8.952,6.788,15.983,2.332,6.161
Mon Dec 02 21:09:29 2024,910,-25.897,-25.897,26.076,26.076,-1.476,15.971,12.052,4.549,14.285,10.911,-2.093,8.963,6.748,15.907,2.465,6.104
Mon Dec 02 21:09:29 2024,915,-25.970,-25.970,25.134,25.134,-1.516,16.068,11.910,4.586,14.351,10.944,-2.173,8.969,6.715,15.844,2.577,6.056
Mon Dec 02 21:09:29 2024,920,-26.169,-26.169,24.124,24.124,-1.566,16.208,11.802,4.622,14.404,10.976,-2.235,9.087,6.734,15.750,2.722,6.058
Mon Dec 02 21:09:29 2024,925,-26.430,-26.430,23.206,23.206,-1.617,16.357,11.732,4.651,14.439,11.003,-2.277,9.267,6.789,15.647,2.870,6.096
Mon Dec 02 21:09:29 2024,930,-26.687,-26.687,22.052,22.052,-1.688,16.555,11.661,4.648,14.528,11.034,-2.341,9.494,6.849,15.543,3.038,6.120
Mon Dec 02 21:09:29 2024,935,-26.759,-26.759,21.115,21.115,-1.752,16.734,11.632,4.577,14.678,11.055,-2.406,9.674,6.879,15.506,3.138,6.096
Mon Dec 02 21:09:29 2024,940,-26.859,-26.859,19.934,19.934,-1.836,16.946,11.594,4.485,14.867,11.083,-2.491,9.904,6.919,15.458,3.264,6.065
Mon Dec 02 21:09:29 2024,945,-26.829,-26.829,19.005,19.005,-1.835,17.134,11.487,4.513,14.907,11.050,-2.543,9.996,6.838,15.421,3.343,5.937
Mon Dec 02 21:09:29 2024,950,-26.768,-26.768,18.084,18.084,-1.814,17.326,11.356,4.570,14.913,11.002,-2.590,10.063,6.725,15.383,3.416,5.781
Mon Dec 02 21:09:29 2024,955,-26.651,-26.651,17.076,17.076,-1.784,17.466,11.254,4.600,14.924,11.036,-2.600,10.128,6.696,15.360,3.461,5.696
Mon Dec 02 21:09:29 2024,960,-26.500,-26.500,16.246,16.246,-1.755,17.511,11.214,4.590,14.943,11.157,-2.561,10.170,6.773,15.359,3.462,5.719
Mon Dec 02 21:09:29 2024,965,-26.316,-26.316,15.228,15.228,-1.719,17.569,11.164,4.576,14.966,11.307,-2.514,10.222,6.870,15.357,3.463,5.747
Mon Dec 02 21:09:29 2024,970,-26.186,-26.186,14.495,14.495,-1.692,17.610,11.127,4.566,14.983,11.417,-2.480,10.260,6.940,15.356,3.463,5.768
Mon Dec 02 21:09:29 2024,975,-26.116,-26.116,14.097,14.097,-1.678,17.633,11.107,4.561,14.992,11.477,-2.461,10.281,6.979,15.355,3.464,5.780
Mon Dec 02 21:09:29 2024,980,-25.894,-25.894,12.648,12.648,-1.618,17.966,11.070,4.572,15.036,11.404,-2.614,10.428,6.798,15.312,3.618,5.578
Mon Dec 02 21:09:29 2024,985,-25.768,-25.768,11.881,11.881,-1.586,18.081,11.043,4.572,15.056,11.430,-2.648,10.491,6.772,15.298,3.666,5.522
Mon Dec 02 21:09:29 2024,990,-25.640,-25.640,11.105,11.105,-1.555,18.192,11.015,4.571,15.077,11.456,-2.682,10.555,6.745,15.285,3.714,5.466
Mon Dec 02 21:09:29 2024,995,-25.292,-25.292,9.992,9.992,-1.503,18.246,10.961,4.601,15.036,11.625,-2.692,10.463,6.817,15.217,3.752,5.488
Mon Dec 02 21:09:30 2024,0,-24.964,-24.964,9.016,9.016,-1.457,18.279,10.912,4.633,14.989,11.795,-2.697,10.354,6.898,15.150,3.779,5.524
Mon Dec 02 21:09:30 2024,5,-24.698,-24.698,8.087,8.087,-1.435,18.351,10.902,4.639,14.980,11.879,-2.702,10.295,6.923,15.132,3.791,5.490
Mon Dec 02 21:09:30 2024,10,-24.473,-24.473,7.160,7.160,-1.435,18.446,10.931,4.621,15.004,11.887,-2.709,10.278,6.896,15.159,3.789,5.390
Mon Dec 02 21:09:30 2024,15,-24.226,-24.226,6.261,6.261,-1.426,19.981,10.958,4.608,15.026,11.914,-2.714,10.276,6.888,15.186,3.790,5.308
Mon Dec 02 21:09:30 2024,20,-23.845,-23.845,5.485,5.485,-1.373,21.380,10.972,4.616,15.029,12.046,-2.704,10.367,6.985,15.212,3.807,5.323
Mon Dec 02 21:09:30 2024,25,-23.513,-23.513,4.827,4.827,-1.325,21.326,10.984,4.624,15.030,12.165,-2.695,10.451,7.075,15.234,3.823,5.341
Mon Dec 02 21:09:30 2024,30,-23.059,-23.059,4.093,4.093,-1.260,21.277,10.926,4.616,15.027,12.198,-2.703,10.470,7.091,15.192,3.860,5.290
Mon Dec 02 21:09:30 2024,35,-22.617,-22.617,3.492,3.492,-1.196,21.229,10.818,4.595,15.018,12.143,-2.726,10.423,7.034,15.101,3.906,5.188
Mon Dec 02 21:09:30 2024,40,-22.177,-22.177,2.946,2.946,-1.132,21.195,10.737,4.575,15.011,12.086,-2.721,10.411,6.988,15.026,3.944,5.095
Mon Dec 02 21:09:30 2024,45,-21.865,-21.865,2.768,2.768,-1.088,21.215,10.787,4.567,15.012,12.042,-2.612,10.537,7.000,15.035,3.942,5.059
Mon Dec 02 21:09:30 2024,50,-21.474,-21.474,2.549,2.549,-1.033,21.269,10.847,4.557,15.014,11.989,-2.477,10.693,7.014,15.046,3.940,5.015
Mon Dec 02 21:09:30 2024,55,-20.966,-20.966,2.279,2.279,-0.989,21.273,10.793,4.586,14.974,11.972,-2.435,10.668,7.009,15.012,3.967,4.982
Mon Dec 02 21:09:30 2024,60,-20.475,-20.475,2.024,2.024,-0.955,21.249,10.702,4.627,14.923,11.971,-2.434,10.577,6.997,14.965,4.001,4.957
Mon Dec 02 21:09:30 2024,65,-19.880,-19.880,1.706,1.706,-0.920,21.247,10.606,4.668,14.882,11.960,-2.418,10.526,6.982,14.915,4.045,4.906
Mon Dec 02 21:09:30 2024,70,-19.222,-19.222,1.327,1.327,-0.900,21.333,10.549,4.686,14.904,11.913,-2.358,10.659,6.961,14.884,4.105,4.785
Mon Dec 02 21:09:30 2024,75,-18.672,-18.672,1.013,1.013,-0.884,21.410,10.500,4.701,14.921,11.875,-2.307,10.769,6.944,14.858,4.154,4.684
Mon Dec 02 21:09:30 2024,80,-18.097,-18.097,0.780,0.780,-0.816,21.605,10.537,4.751,14.903,11.832,-2.140,11.016,6.996,14.933,4.132,4.697
Mon Dec 02 21:09:30 2024,85,-17.554,-17.554,-0.597,0.597,-0.737,21.847,10.599,4.809,14.873,11.791,-1.946,11.291,7.070,15.037,4.087,4.748
Mon Dec 02 21:09:30 2024,90,-17.080,-17.080,-0.434,0.434,-0.655,22.056,10.655,4.858,14.847,11.768,-1.834,11.444,7.114,15.116,4.051,4.769
Mon Dec 02 21:09:30 2024,95,-16.737,-16.737,-0.298,0.298,-0.577,22.162,10.686,4.884,14.833,11.772,-1.860,11.396,7.103,15.140,4.045,4.730
Mon Dec 02 21:09:30 2024,100,-16.409,-16.409,-0.204,0.204,-0.503,22.269,10.716,4.910,14.819,11.775,-1.886,11.350,7.093,15.162,4.038,4.692
Mon Dec 02 21:09:30 2024,105,-16.117,-16.117,-0.206,0.206,-0.469,22.343,10.717,4.930,14.802,11.750,-1.881,11.325,7.066,15.115,4.066,4.645
Mon Dec 02 21:09:30 2024,110,-15.949,-15.949,-0.218,0.218,-0.460,22.379,10.710,4.940,14.790,11.728,-1.870,11.314,7.045,15.069,4.092,4.613
Mon Dec 02 21:09:30 2024,115,-15.772,-15.772,-0.232,0.232,-0.449,22.417,10.703,4.951,14.778,11.704,-1.858,11.303,7.023,15.020,4.119,4.581
Mon Dec 02 21:09:30 2024,120,-15.605,-15.605,-0.205,0.205,-0.415,22.477,10.715,5.004,14.768,11.745,-1.769,11.541,7.092,15.084,4.106,4.626
Mon Dec 02 21:09:30 2024,125,-15.465,-15.465,-0.197,0.197,-0.390,22.524,10.721,5.040,14.758,11.768,-1.708,11.695,7.133,15.117,4.102,4.650
Mon Dec 02 21:09:30 2024,130,-15.384,-15.384,-0.197,0.197,-0.387,22.471,10.754,5.039,14.740,11.782,-1.688,11.701,7.176,15.072,4.125,4.665
Mon Dec 02 21:09:30 2024,135,-15.345,-15.345,-0.204,0.204,-0.397,22.368,10.800,5.017,14.715,11.790,-1.690,11.627,7.214,14.990,4.158,4.674
Mon Dec 02 21:09:30 2024,140,-15.302,-15.302,-0.219,0.219,-0.384,22.344,10.858,5.006,14.705,11.817,-1.685,11.596,7.251,14.923,4.194,4.676
Mon Dec 02 21:09:30 2024,145,-15.232,-15.232,-0.249,0.249,-0.301,22.552,10.971,5.025,14.741,11.903,-1.651,11.686,7.293,14.886,4.246,4.653
Mon Dec 02 21:09:30 2024,150,-15.178,-15.178,-0.276,0.276,-0.238,22.704,11.060,5.037,14.764,11.969,-1.626,11.748,7.327,14.853,4.288,4.637
Mon Dec 02 21:09:30 2024,155,-15.123,-15.123,-0.282,0.282,-0.228,22.670,11.099,5.077,14.737,11.982,-1.616,11.798,7.331,14.829,4.309,4.656
Mon Dec 02 21:09:30 2024,160,-15.076,-15.076,-0.285,0.285,-0.226,22.618,11.128,5.116,14.708,11.988,-1.608,11.842,7.331,14.810,4.325,4.678
Mon Dec 02 21:09:30 2024,165,-14.990,-14.990,-0.263,0.263,-0.213,22.532,11.142,5.142,14.680,12.035,-1.580,11.875,7.352,14.797,4.334,4.691
Mon Dec 02 21:09:30 2024,170,-14.842,-14.842,-0.227,0.227,-0.187,22.389,11.126,5.143,14.661,12.157,-1.517,11.890,7.409,14.799,4.332,4.685
Mon Dec 02 21:09:30 2024,175,-14.735,-14.735,-0.244,-0.244,-0.168,22.286,11.118,5.147,14.645,12.243,-1.473,11.904,7.448,14.799,4.331,4.683
Mon Dec 02 21:09:30 2024,180,-14.736,-14.736,-0.228,0.228,-0.086,22.330,11.224,5.172,14.624,12.248,-1.538,11.728,7.414,14.768,4.350,4.785
Mon Dec 02 21:09:30 2024,185,-14.742,-14.742,-0.237,0.237,-0.020,22.373,11.312,5.193,14.607,12.249,-1.595,11.582,7.384,14.743,4.365,4.871
Mon Dec 02 21:09:30 2024,190,-14.696,-14.696,-0.239,0.239,0.036,22.485,11.425,5.224,14.580,12.282,-1.591,11.613,7.411,14.772,4.336,4.878
Mon Dec 02 21:09:30 2024,195,-14.611,-14.611,-0.251,-0.090,0.076,22.648,11.558,5.261,14.544,12.338,-1.546,11.767,7.480,14.839,4.275,4.832
Mon Dec 02 21:09:30 2024,200,-14.533,-14.533,-0.300,-0.300,0.114,22.801,11.685,5.297,14.511,12.390,-1.506,11.904,7.542,14.900,4.219,4.793
Mon Dec 02 21:09:30 2024,205,-14.524,-14.524,-0.285,-0.285,0.131,22.775,11.770,5.256,14.563,12.336,-1.548,11.953,7.487,14.796,4.335,4.767
Mon Dec 02 21:09:30 2024,210,-14.509,-14.509,-0.276,-0.276,0.147,22.764,11.856,5.223,14.606,12.293,-1.582,12.008,7.443,14.706,4.435,4.740
Mon Dec 02 21:09:30 2024,215,-14.499,-14.499,-0.270,-0.270,0.159,22.757,11.918,5.199,14.636,12.262,-1.607,12.046,7.412,14.643,4.506,4.721
Mon Dec 02 21:09:30 2024,220,-14.526,-14.526,-0.244,0.078,0.268,22.825,12.080,5.247,14.565,12.327,-1.549,12.040,7.465,14.721,4.393,4.747
Mon Dec 02 21:09:30 2024,225,-14.504,-14.504,-0.249,-0.089,0.357,22.858,12.203,5.270,14.526,12.347,-1.547,12.006,7.464,14.725,4.361,4.729
Mon Dec 02 21:09:30 2024,230,-14.413,-14.413,-0.297,-0.297,0.473,22.874,12.311,5.294,14.475,12.347,-1.598,11.885,7.416,14.689,4.351,4.661
Mon Dec 02 21:09:30 2024,235,-14.314,-14.314,-0.370,-0.370,0.595,22.895,12.421,5.320,14.421,12.346,-1.654,11.753,7.363,14.648,4.341,4.587
Mon Dec 02 21:09:30 2024,240,-14.283,-14.283,-0.378,-0.378,0.614,22.935,12.529,5.267,14.461,12.349,-1.734,11.712,7.340,14.556,4.426,4.614
Mon Dec 02 21:09:30 2024,245,-14.276,-14.276,-0.363,-0.363,0.598,22.974,12.618,5.201,14.524,12.351,-1.808,11.704,7.330,14.465,4.526,4.666
Mon Dec 02 21:09:30 2024,250,-14.248,-14.248,-0.381,-0.381,0.647,23.058,12.813,5.177,14.532,12.369,-1.823,11.726,7.344,14.419,4.568,4.696
Mon Dec 02 21:09:30 2024,255,-14.172,-14.172,-0.466,-0.466,0.826,23.266,13.285,5.205,14.460,12.418,-1.754,11.810,7.406,14.416,4.539,4.705
Mon Dec 02 21:09:30 2024,260,-14.108,-14.108,-0.546,-0.546,0.977,23.444,13.681,5.231,14.394,12.459,-1.692,11.879,7.458,14.419,4.510,4.711
Mon Dec 02 21:09:30 2024,265,-14.100,-14.100,-0.576,-0.576,1.168,23.733,14.120,5.240,14.376,12.446,-1.695,11.916,7.434,14.398,4.491,4.696
Mon Dec 02 21:09:30 2024,270,-14.106,-14.106,-0.598,-0.598,1.382,24.070,14.604,5.246,14.367,12.421,-1.711,11.948,7.392,14.371,4.472,4.674
Mon Dec 02 21:09:30 2024,275,-14.112,-14.112,-0.652,-0.652,1.598,24.505,15.165,5.234,14.365,12.381,-1.748,11.995,7.343,14.331,4.480,4.652
Mon Dec 02 21:09:30 2024,280,-14.117,-14.117,-0.841,-0.841,1.907,25.463,16.239,5.159,14.388,12.273,-1.871,12.108,7.253,14.234,4.589,4.618
Mon Dec 02 21:09:30 2024,285,-14.125,-14.125,-0.996,-0.996,2.165,26.231,17.121,5.101,14.403,12.188,-1.966,12.196,7.180,14.155,4.673,4.592
Mon Dec 02 21:09:30 2024,290,-14.185,-14.185,-1.011,-1.011,2.359,26.940,18.490,5.222,14.303,12.089,-2.002,12.129,6.979,14.162,4.555,4.454
Mon Dec 02 21:09:30 2024,295,-14.255,-14.255,-1.022,-1.022,2.573,27.706,20.039,5.363,14.187,11.983,-2.037,12.047,6.756,14.171,4.414,4.301
Mon Dec 02 21:09:30 2024,300,-14.321,-14.321,-1.051,-1.051,2.801,28.609,21.730,5.523,14.049,11.928,-2.029,12.005,6.614,14.194,4.284,4.209
Mon Dec 02 21:09:30 2024,305,-14.399,-14.399,-1.135,-1.135,3.144,30.197,24.398,5.792,13.805,11.972,-1.915,12.036,6.606,14.264,4.132,4.222
Mon Dec 02 21:09:30 2024,310,-14.484,-14.484,-1.218,-1.218,3.487,31.712,27.049,6.047,13.572,12.000,-1.817,12.054,6.575,14.324,3.981,4.221
Mon Dec 02 21:09:30 2024,315,-14.541,-14.541,-1.273,-1.273,3.707,32.659,28.727,6.204,13.426,12.017,-1.756,12.064,6.556,14.361,3.887,4.220
Mon Dec 02 21:09:30 2024,320,-14.579,-14.579,-1.310,-1.310,3.855,33.293,29.853,6.309,13.329,12.028,-1.715,12.070,6.543,14.384,3.825,4.219
Mon Dec 02 21:09:30 2024,325,-14.517,-14.517,-1.615,-1.615,3.502,35.248,33.888,6.503,13.160,12.108,-1.683,12.003,6.597,14.378,3.782,4.207
Mon Dec 02 21:09:30 2024,330,-14.488,-14.488,-1.927,-1.927,3.278,37.507,38.584,6.749,12.940,12.189,-1.627,11.942,6.640,14.386,3.703,4.196
Mon Dec 02 21:09:30 2024,335,-14.495,-14.495,-2.074,-2.074,3.255,38.705,41.099,6.890,12.811,12.226,-1.590,11.919,6.654,14.397,3.647,4.192
Mon Dec 02 21:09:30 2024,340,-14.516,-14.516,-2.061,-2.061,3.793,43.656,47.189,7.125,12.646,12.076,-1.350,12.016,6.667,14.462,3.622,4.154
Mon Dec 02 21:09:30 2024,345,-14.530,-14.530,-2.117,-2.117,4.430,47.684,52.538,7.198,12.611,11.984,-1.231,12.061,6.666,14.461,3.667,4.116
Mon Dec 02 21:09:30 2024,350,-14.535,-14.535,-2.294,-2.294,5.384,52.348,59.110,7.116,12.721,11.925,-1.208,12.062,6.648,14.381,3.815,4.063
Mon Dec 02 21:09:30 2024,355,-14.529,-14.529,-2.625,-2.625,6.632,56.652,66.053,6.784,13.052,11.946,-1.362,11.988,6.602,14.185,4.094,4.000
Mon Dec 02 21:09:30 2024,360,-14.533,-14.533,-2.933,-2.933,7.928,60.766,72.843,6.476,13.362,11.967,-1.506,11.914,6.560,14.002,4.354,3.944
Mon Dec 02 21:09:30 2024,365,-14.452,-14.452,-3.179,-3.179,8.823,62.377,78.845,6.303,13.325,12.880,-1.836,11.110,7.052,13.730,4.329,4.454
Mon Dec 02 21:09:30 2024,370,-14.431,-14.431,-3.417,-3.417,9.774,64.167,84.796,6.134,13.234,13.709,-2.138,10.372,7.494,13.479,4.295,4.911
Mon Dec 02 21:09:30 2024,375,-14.420,-14.420,-3.468,-3.468,10.346,65.587,88.158,6.050,13.232,14.338,-2.351,9.929,7.798,13.344,4.302,5.244
Mon Dec 02 21:09:30 2024,380,-14.415,-14.415,-3.478,-3.478,10.728,66.624,90.242,5.998,13.252,14.790,-2.499,9.636,8.010,13.260,4.313,5.481
Mon Dec 02 21:09:30 2024,385,-14.430,-14.430,-3.504,-3.504,11.112,68.090,92.619,5.956,13.381,15.306,-2.668,9.511,8.282,13.155,4.360,5.742
Mon Dec 02 21:09:30 2024,390,-14.471,-14.471,-3.552,-3.552,11.223,69.542,94.118,5.965,13.647,15.608,-2.774,9.883,8.506,13.075,4.460,5.871
Mon Dec 02 21:09:30 2024,395,-14.509,-14.509,-3.592,-3.592,11.343,70.767,95.311,5.968,13.821,15.864,-2.863,10.190,8.693,13.008,4.543,5.978
Mon Dec 02 21:09:30 2024,400,-14.541,-14.541,-3.639,-3.639,11.660,72.277,96.101,6.011,13.832,15.892,-3.030,10.725,8.709,12.960,4.696,5.973
Mon Dec 02 21:09:30 2024,405,-14.573,-14.573,-3.686,-3.686,11.977,73.786,96.891,6.054,13.842,15.919,-3.197,11.261,8.725,12.912,4.848,5.967
Mon Dec 02 21:09:30 2024,410,-14.606,-14.606,-3.733,-3.733,12.295,75.296,97.681,6.097,13.853,15.946,-3.365,11.796,8.741,12.864,5.000,5.962
Mon Dec 02 21:09:30 2024,415,-14.641,-14.641,-3.772,-3.772,12.638,76.646,98.270,6.131,13.753,15.958,-3.520,12.248,8.742,12.821,5.136,5.952
Mon Dec 02 21:09:30 2024,420,-14.686,-14.686,-3.815,-3.815,13.064,78.111,98.822,6.162,26.444,15.965,-3.692,12.706,8.737,12.775,5.282,5.940
Mon Dec 02 21:09:30 2024,425,-14.784,-14.784,-3.705,-3.705,13.837,79.994,99.157,6.188,26.655,15.986,-3.760,13.035,8.614,12.647,5.545,5.948
Mon Dec 02 21:09:30 2024,430,-14.885,-14.885,-3.591,-3.591,14.590,81.667,99.364,6.207,26.860,16.008,-3.804,13.295,8.493,12.526,5.786,5.960
Mon Dec 02 21:09:30 2024,435,-14.978,-14.978,-3.458,-3.458,15.446,83.313,99.538,6.251,27.187,16.053,-3.771,13.661,8.343,12.428,5.986,5.903
Mon Dec 02 21:09:30 2024,440,-15.034,-15.034,-3.301,-3.301,16.343,84.762,99.716,6.339,27.683,16.132,-3.597,14.195,8.155,12.387,6.096,5.724
Mon Dec 02 21:09:30 2024,445,-15.077,-15.077,-3.192,-3.192,17.020,85.815,99.814,6.401,28.072,16.190,-3.478,14.564,8.021,12.355,6.179,5.604
Mon Dec 02 21:09:30 2024,450,-15.099,-15.099,-3.061,-3.061,17.772,87.032,99.773,6.530,28.555,16.355,-3.448,14.723,7.839,12.255,6.337,5.448
Mon Dec 02 21:09:30 2024,455,-15.115,-15.115,-2.932,-2.932,18.511,88.232,99.696,6.670,29.041,16.538,-3.438,14.826,7.655,12.145,6.506,5.290
Mon Dec 02 21:09:30 2024,460,-15.130,-15.130,-2.827,-2.827,19.148,89.209,99.614,6.782,29.452,16.690,-3.428,14.916,7.505,12.058,6.640,5.164
Mon Dec 02 21:09:30 2024,465,-15.335,-15.335,-2.774,-2.774,20.085,90.378,99.791,6.791,29.816,16.955,-3.517,15.041,7.394,11.894,6.857,4.983
Mon Dec 02 21:09:30 2024,470,-15.455,-15.455,-2.718,-2.718,20.803,91.284,99.839,6.825,30.138,17.149,-3.564,15.127,7.293,11.780,7.012,4.852
Mon Dec 02 21:09:30 2024,475,-15.610,-15.610,-2.639,-2.639,21.758,92.397,99.834,6.889,30.627,17.439,-3.608,15.242,7.312,11.726,7.120,4.758
Mon Dec 02 21:09:30 2024,480,-15.750,-15.750,-2.569,-2.569,22.648,93.402,99.811,6.947,31.083,17.708,-3.647,15.341,7.341,11.684,7.209,4.678
Mon Dec 02 21:09:30 2024,485,-15.832,-15.832,-2.551,-2.551,23.236,94.122,99.709,6.988,31.574,17.991,-3.640,15.517,7.382,11.705,7.258,4.633
Mon Dec 02 21:09:30 2024,490,-15.898,-15.898,-2.554,-2.554,23.772,94.822,99.558,7.024,32.160,18.326,-3.610,15.751,7.436,11.758,7.292,4.596
Mon Dec 02 21:09:30 2024,495,-15.951,-15.951,-2.560,-2.560,24.217,95.395,99.425,7.050,32.660,18.610,-3.585,15.934,7.482,11.806,7.316,4.566
Mon Dec 02 21:09:30 2024,500,-16.068,-16.068,-2.556,-2.556,24.604,95.818,99.354,7.023,32.957,18.836,-3.587,16.039,7.536,11.770,7.380,4.492
Mon Dec 02 21:09:30 2024,505,-16.290,-16.290,-2.539,-2.539,24.963,96.107,99.355,6.921,33.021,19.021,-3.626,16.075,7.613,11.617,7.510,4.346
Mon Dec 02 21:09:30 2024,510,-16.389,-16.389,-2.510,-2.510,25.291,96.431,99.300,6.863,33.249,19.207,-3.622,16.157,7.655,11.581,7.572,4.314
Mon Dec 02 21:09:30 2024,515,-16.475,-16.475,-2.476,-2.476,25.616,96.752,99.240,6.804,33.490,19.391,-3.614,16.241,7.692,11.557,7.627,4.299
Mon Dec 02 21:09:30 2024,520,-16.550,-16.550,-2.430,-2.430,25.981,97.114,99.163,6.734,33.789,19.598,-3.596,22.422,7.725,11.549,7.678,4.312
Mon Dec 02 21:09:30 2024,525,-16.696,-16.696,-2.413,-2.413,26.287,97.481,98.958,6.676,34.138,19.823,-3.568,23.604,7.767,11.485,7.802,4.312
Mon Dec 02 21:09:30 2024,530,-16.963,-16.963,-2.430,-2.430,26.582,97.930,98.550,6.620,34.622,20.117,-3.521,23.524,7.829,11.342,8.041,4.299
Mon Dec 02 21:09:30 2024,535,-17.113,-17.113,-2.471,-2.471,26.816,98.219,98.324,6.568,34.904,20.432,-3.478,23.477,7.910,11.236,8.171,4.312
Mon Dec 02 21:09:30 2024,540,-17.240,-17.240,-2.519,-2.519,27.045,98.484,98.133,6.515,35.150,20.761,-3.435,23.432,7.998,11.135,8.279,4.333
Mon Dec 02 21:09:30 2024,545,-17.339,-17.339,-2.565,-2.565,27.276,98.720,97.965,6.478,35.412,21.119,-3.373,23.371,8.104,11.047,8.364,4.350
Mon Dec 02 21:09:30 2024,550,-17.367,-17.367,-2.588,-2.588,27.524,98.900,97.813,6.509,35.821,21.582,-3.227,23.236,8.275,11.001,8.403,4.330
Mon Dec 02 21:09:30 2024,555,-17.393,-17.393,-2.608,-2.608,27.728,99.049,97.687,6.531,36.151,21.959,-3.111,23.141,8.413,10.961,8.436,4.317
Mon Dec 02 21:09:30 2024,560,-17.547,-17.547,-2.590,-2.590,27.523,98.983,97.402,6.388,36.406,22.131,-3.141,23.219,8.525,10.766,8.656,4.378
Mon Dec 02 21:09:30 2024,565,-17.682,-17.682,-2.569,-2.569,27.299,98.894,97.165,6.252,36.573,22.212,-3.194,23.321,8.599,10.595,8.850,4.436
Mon Dec 02 21:09:30 2024,570,-17.804,-17.804,-2.530,-2.530,27.206,98.918,96.928,6.132,36.866,22.416,-3.202,23.391,8.713,10.466,9.003,4.487
Mon Dec 02 21:09:30 2024,575,-17.809,-17.809,-2.484,-2.484,27.441,99.150,96.868,6.135,37.187,22.716,-3.111,23.325,8.821,10.519,8.962,4.488
Mon Dec 02 21:09:30 2024,580,-17.815,-17.815,-2.442,-2.442,27.662,99.367,96.811,6.138,37.487,22.997,-3.025,23.266,8.921,10.567,8.923,4.491
Mon Dec 02 21:09:30 2024,585,-17.730,-17.730,-2.566,-2.566,27.584,99.394,96.349,6.102,37.662,22.980,-3.013,23.302,8.846,10.424,9.086,4.413
Mon Dec 02 21:09:30 2024,590,-17.647,-17.647,-2.691,-2.691,27.480,99.387,95.920,6.068,37.782,22.924,-3.014,23.348,8.760,10.281,9.247,4.341
Mon Dec 02 21:09:30 2024,595,-17.629,-17.629,-2.742,-2.742,27.576,99.537,95.678,6.026,37.950,22.912,-3.030,23.392,8.715,10.170,9.375,4.343
Mon Dec 02 21:09:30 2024,600,-17.707,-17.707,-2.677,-2.677,27.941,99.878,95.761,5.984,38.147,22.969,-3.064,23.419,8.737,10.130,9.428,4.454
Mon Dec 02 21:09:30 2024,605,-17.777,-17.777,-2.626,-2.626,28.272,100.182,95.800,5.945,38.312,23.001,-3.095,23.441,8.734,10.075,9.493,4.531
Mon Dec 02 21:09:30 2024,610,-17.823,-17.823,-2.662,-2.662,28.475,100.340,95.517,5.916,38.303,22.846,-3.128,23.436,8.523,9.873,9.697,4.362
Mon Dec 02 21:09:30 2024,615,-17.874,-17.874,-2.702,-2.702,28.694,100.511,95.213,5.884,38.293,22.680,-3.164,23.433,8.296,9.655,9.917,4.182
Mon Dec 02 21:09:30 2024,620,-17.951,-17.951,-2.687,-2.687,28.844,100.605,95.121,5.872,38.223,22.538,-3.170,23.407,8.142,9.389,10.172,4.101
Mon Dec 02 21:09:30 2024,625,-18.030,-18.030,-2.642,-2.642,28.922,100.634,95.178,5.874,38.130,22.440,-3.156,23.370,8.062,9.146,10.398,4.094
Mon Dec 02 21:09:30 2024,630,-18.112,-18.112,-2.598,-2.598,29.000,100.653,95.196,5.885,38.036,22.302,-3.130,23.321,7.948,8.864,10.664,4.068
Mon Dec 02 21:09:30 2024,635,-18.122,-18.122,-2.606,-2.606,28.997,100.610,95.031,5.919,38.040,22.128,-3.083,23.263,7.798,8.710,10.830,3.979
Mon Dec 02 21:09:30 2024,640,-18.128,-18.128,-2.616,-2.616,28.991,100.567,94.866,5.951,38.051,21.966,-3.038,23.209,7.659,8.576,10.976,3.894
Mon Dec 02 21:09:30 2024,645,-18.163,-18.163,-2.612,-2.612,28.991,100.536,94.740,5.971,37.978,21.742,-2.957,23.143,7.568,8.440,11.131,3.906
Mon Dec 02 21:09:30 2024,650,-18.202,-18.202,-2.600,-2.600,28.995,100.526,94.690,5.974,37.880,21.566,-2.884,23.099,7.546,8.358,11.230,3.978
Mon Dec 02 21:09:30 2024,655,-18.218,-18.218,-2.607,-2.607,29.017,100.496,94.690,5.990,37.753,21.381,-2.825,23.034,7.486,8.222,11.367,4.006
Mon Dec 02 21:09:30 2024,660,-18.181,-18.181,-2.659,-2.659,29.075,100.425,94.801,6.033,37.564,21.185,-2.795,22.930,7.348,7.974,11.581,3.938
Mon Dec 02 21:09:30 2024,665,-18.138,-18.138,-2.718,-2.718,29.145,100.347,94.927,6.079,37.361,20.981,-2.768,22.835,7.196,7.704,11.811,3.858
Mon Dec 02 21:09:30 2024,670,-18.109,-18.109,-2.682,-2.682,29.000,100.227,95.149,6.114,37.263,20.650,-2.673,22.742,7.116,7.510,11.986,3.835
Mon Dec 02 21:09:30 2024,675,-18.088,-18.088,-2.609,-2.609,28.775,100.097,95.393,6.141,37.219,20.292,-2.555,22.656,7.074,7.363,12.126,3.838
Mon Dec 02 21:09:30 2024,680,-18.065,-18.065,-2.542,-2.542,28.584,99.948,95.692,6.203,37.082,19.888,-2.459,22.554,6.985,7.214,12.248,3.833
Mon Dec 02 21:09:30 2024,685,-18.042,-18.042,-2.503,-2.503,28.501,99.796,96.028,6.315,36.799,19.487,-2.425,22.454,6.824,7.093,12.307,3.815
Mon Dec 02 21:09:30 2024,690,-18.005,-18.005,-2.471,-2.471,28.396,99.610,96.414,6.432,36.456,19.055,-2.390,22.390,6.653,6.975,12.349,3.798
Mon Dec 02 21:09:30 2024,695,-17.847,-17.847,-2.520,-2.520,28.060,99.242,96.940,6.467,35.890,18.691,-2.305,22.328,6.608,7.013,12.242,3.818
Mon Dec 02 21:09:30 2024,700,-17.651,-17.651,-2.591,-2.591,27.651,98.807,97.534,6.483,35.236,18.319,-2.205,17.690,6.587,7.088,12.093,3.849
Mon Dec 02 21:09:30 2024,705,-17.453,-17.453,-2.694,-2.694,27.064,98.198,98.074,6.567,34.687,17.979,-2.082,17.662,6.558,7.210,11.901,3.877
Mon Dec 02 21:09:30 2024,710,-17.236,-17.236,-2.877,-2.877,26.060,97.175,98.523,6.810,34.338,17.691,-1.902,17.603,6.510,7.442,11.608,3.895
Mon Dec 02 21:09:30 2024,715,-17.077,-17.077,-3.013,-3.013,25.338,96.417,98.847,6.985,34.089,17.483,-1.772,17.507,6.473,7.611,11.393,3.907
Mon Dec 02 21:09:30 2024,720,-16.922,-16.922,-3.108,-3.108,24.194,95.213,99.212,7.034,33.391,16.905,-1.624,17.122,6.378,7.776,11.119,3.930
Mon Dec 02 21:09:30 2024,725,-16.781,-16.781,-3.187,-3.187,23.040,93.956,99.550,7.039,32.629,16.275,-1.487,16.603,6.270,7.929,10.843,3.953
Mon Dec 02 21:09:30 2024,730,-16.676,-16.676,-3.275,-3.275,21.957,92.769,99.807,7.034,31.983,15.677,-1.306,16.248,6.210,8.078,10.589,3.984
Mon Dec 02 21:09:30 2024,735,-16.607,-16.607,-3.392,-3.392,20.813,91.523,99.987,7.022,31.408,15.038,-1.025,16.133,6.216,8.243,10.338,4.032
Mon Dec 02 21:09:30 2024,740,-16.545,-16.545,-3.500,-3.500,19.782,90.356,100.132,7.006,30.885,14.454,-0.765,15.999,6.219,8.395,10.104,4.077
Mon Dec 02 21:09:30 2024,745,-16.582,-16.582,-3.592,-3.592,18.784,89.292,99.901,6.808,30.243,14.054,-0.711,15.596,6.132,8.499,10.009,4.068
Mon Dec 02 21:09:30 2024,750,-16.628,-16.628,-3.698,-3.698,17.708,88.088,99.601,6.578,29.522,13.609,-0.656,15.130,6.031,8.616,9.902,4.056
Mon Dec 02 21:09:30 2024,755,-16.668,-16.668,-3.791,-3.791,16.735,86.707,99.378,6.323,28.721,13.206,-0.538,14.669,5.990,8.704,9.764,4.060
Mon Dec 02 21:09:30 2024,760,-16.697,-16.697,-3.860,-3.860,15.989,85.428,99.260,6.094,28.002,12.900,-0.397,14.292,6.001,8.755,9.623,4.076
Mon Dec 02 21:09:30 2024,765,-16.734,-16.734,-3.887,-3.887,15.179,83.935,99.007,5.843,27.235,12.571,-0.261,13.882,5.999,8.776,9.487,4.083
Mon Dec 02 21:09:30 2024,770,-16.800,-16.800,-3.634,-3.634,14.312,81.795,98.028,5.592,26.487,12.232,-0.206,13.480,5.922,8.599,9.434,4.026
Mon Dec 02 21:09:30 2024,775,-16.866,-16.866,-3.377,-3.377,13.648,79.862,96.968,5.368,25.891,11.944,-0.176,13.131,5.845,8.417,9.388,3.968
Mon Dec 02 21:09:30 2024,780,-16.942,-16.942,-3.153,-3.153,13.158,78.378,95.604,5.224,25.506,11.746,-0.153,12.733,5.777,8.384,9.236,3.914
Mon Dec 02 21:09:30 2024,785,-17.034,-17.034,-2.931,-2.931,12.718,77.075,93.858,5.126,20.052,11.592,0.192,12.254,5.710,8.460,8.990,3.856
Mon Dec 02 21:09:30 2024,790,-17.052,-17.052,-2.818,-2.818,12.091,75.844,91.727,5.048,14.916,11.390,0.312,11.912,5.647,8.582,8.788,3.758
Mon Dec 02 21:09:30 2024,795,-16.815,-16.815,-3.088,-3.088,10.747,74.743,88.173,5.047,14.923,10.988,0.618,12.025,5.589,8.879,8.728,3.509
Mon Dec 02 21:09:30 2024,800,-16.606,-16.606,-3.353,-3.353,9.778,73.875,84.882,5.053,14.920,10.636,0.915,12.143,5.539,9.143,8.675,3.286
Mon Dec 02 21:09:30 2024,805,-16.658,-16.658,-3.271,-3.271,7.788,69.636,76.168,4.963,15.029,10.584,0.977,12.146,5.714,9.210,8.658,3.284
Mon Dec 02 21:09:30 2024,810,-16.877,-16.877,-2.979,-2.979,2.222,63.344,63.060,4.816,15.184,10.711,0.904,12.084,6.035,9.170,8.662,3.421
Mon Dec 02 21:09:30 2024,815,-17.044,-17.044,-2.859,-2.859,-4.331,58.058,52.701,4.584,15.362,10.800,0.786,11.960,6.323,9.130,8.661,3.563
Mon Dec 02 21:09:30 2024,820,-17.104,-17.104,-3.184,-3.184,-3.080,52.476,43.610,3.982,15.546,10.786,0.489,11.592,6.644,9.059,8.646,3.762
Mon Dec 02 21:09:30 2024,825,-17.167,-17.167,-3.538,-3.538,2.081,46.955,35.873,3.365,15.239,10.758,0.254,11.188,6.974,8.988,8.629,3.967
Mon Dec 02 21:09:30 2024,830,-17.272,-17.272,-3.347,-3.347,-1.566,43.362,30.751,3.003,15.095,10.299,0.231,11.209,6.892,9.225,8.689,4.108
Mon Dec 02 21:09:30 2024,835,-17.390,-17.390,-2.987,-2.987,-1.259,40.288,26.184,2.711,15.064,9.702,0.222,11.365,6.687,9.552,8.746,4.240
Mon Dec 02 21:09:30 2024,840,-17.470,-17.470,-2.727,-2.727,-1.137,37.716,22.571,2.484,14.952,9.197,0.243,11.491,6.517,9.846,8.736,4.311
Mon Dec 02 21:09:30 2024,845,-17.464,-17.464,-2.661,-2.661,-1.162,35.661,19.735,2.370,14.622,8.789,0.438,11.566,6.375,10.160,8.594,4.211
Mon Dec 02 21:09:30 2024,850,-17.463,-17.463,-2.598,-2.598,-1.266,33.840,17.299,2.264,14.317,8.418,0.675,11.625,6.249,10.440,8.458,4.126
Mon Dec 02 21:09:30 2024,855,-17.494,-17.494,-2.474,-2.474,-1.545,31.864,14.965,2.209,14.281,8.208,0.824,11.653,6.205,10.700,8.289,4.109
Mon Dec 02 21:09:30 2024,860,-17.531,-17.531,-2.353,-2.353,-1.858,30.134,12.980,2.170,14.300,8.052,0.940,11.671,6.182,10.926,8.131,4.108
Mon Dec 02 21:09:30 2024,865,-17.485,-17.485,-2.269,-2.269,-2.111,28.554,11.325,2.150,14.278,7.864,1.034,11.721,6.163,11.123,8.000,4.068
Mon Dec 02 21:09:30 2024,870,-17.369,-17.369,-2.241,-2.241,-2.236,27.479,10.352,2.153,14.219,7.688,1.086,11.794,6.154,11.243,7.929,3.999
Mon Dec 02 21:09:30 2024,875,-17.265,-17.265,-2.209,-2.209,-2.403,26.380,9.385,2.148,14.161,7.512,1.129,11.857,6.138,11.360,7.853,3.929
Mon Dec 02 21:09:30 2024,880,-17.211,-17.211,-2.169,-2.169,-2.694,25.344,8.650,2.090,14.123,7.402,1.106,11.842,6.091,11.411,7.794,3.885
Mon Dec 02 21:09:30 2024,885,-17.179,-17.179,-2.132,-2.132,-2.977,24.576,8.048,2.033,14.093,7.316,1.076,11.817,6.045,11.444,7.744,3.851
Mon Dec 02 21:09:30 2024,890,-17.053,-17.053,-2.186,-2.186,-3.356,24.007,7.395,2.043,14.099,7.190,1.174,11.924,5.982,11.458,7.715,3.697
Mon Dec 02 21:09:30 2024,895,-16.863,-16.863,-2.331,-2.331,-3.700,23.883,6.925,2.133,14.144,7.063,1.390,12.144,5.922,11.441,7.722,3.460
Mon Dec 02 21:09:30 2024,900,-16.710,-16.710,-2.457,-2.457,-4.000,24.012,6.529,2.209,14.181,6.954,1.577,12.324,5.870,11.427,7.728,3.257
Mon Dec 02 21:09:30 2024,905,-16.751,-16.751,-2.202,-2.202,-4.439,24.456,6.409,2.210,14.163,6.860,1.762,12.359,5.838,11.456,7.688,3.234
Mon Dec 02 21:09:30 2024,910,-16.796,-16.796,-1.974,-1.974,-4.832,15.052,6.307,2.209,14.147,6.777,1.922,12.383,5.808,11.481,7.654,3.216
Mon Dec 02 21:09:30 2024,915,-16.776,-16.776,-1.806,-1.806,-5.191,14.541,6.106,2.229,14.062,6.601,2.146,12.355,5.706,11.489,7.623,3.108
Mon Dec 02 21:09:30 2024,920,-16.707,-16.707,-1.747,-1.747,-5.390,14.236,5.901,2.257,13.951,6.413,2.338,12.293,5.582,11.478,7.608,2.965
Mon Dec 02 21:09:30 2024,925,-16.628,-16.628,-1.681,-1.681,-5.635,13.858,5.670,2.292,13.838,6.200,2.568,12.230,5.441,11.459,7.605,2.803
Mon Dec 02 21:09:30 2024,930,-16.593,-16.593,-1.662,-1.662,-5.805,13.647,5.607,2.328,13.895,6.145,2.711,12.308,5.410,11.414,7.709,2.769
Mon Dec 02 21:09:30 2024,935,-16.560,-16.560,-1.644,-1.644,-5.971,13.442,5.545,2.364,13.950,6.091,2.851,12.379,5.380,11.371,7.807,2.736
Mon Dec 02 21:09:30 2024,940,-16.522,-16.522,-1.628,-1.628,-6.035,13.360,5.486,2.391,13.951,5.968,3.068,12.460,5.327,11.381,7.842,2.664
Mon Dec 02 21:09:30 2024,945,-16.480,-16.480,-1.613,-1.613,-6.032,13.361,5.425,2.413,13.914,5.789,3.356,12.541,5.254,11.429,7.833,2.561
Mon Dec 02 21:09:30 2024,950,-16.474,-16.474,-1.570,-1.570,-6.054,13.326,5.362,2.427,13.898,5.649,3.550,12.561,5.172,11.444,7.844,2.486
Mon Dec 02 21:09:30 2024,955,-16.539,-16.539,-1.448,-1.448,-6.135,13.205,5.269,2.429,13.919,5.542,3.607,12.490,5.042,11.394,7.906,2.445
Mon Dec 02 21:09:30 2024,960,-16.608,-16.608,-1.320,-1.320,-6.220,13.077,5.171,2.431,13.942,5.430,3.666,12.415,4.907,11.340,7.970,2.402
Mon Dec 02 21:09:30 2024,965,-16.594,-16.594,-1.329,-1.329,-6.260,13.028,5.142,2.455,13.934,5.348,3.737,12.389,4.824,11.270,8.005,2.281
Mon Dec 02 21:09:30 2024,970,-16.554,-16.554,-1.384,-1.384,-6.271,13.022,5.148,2.479,13.918,5.302,3.792,12.389,4.785,11.214,8.017,2.170
Mon Dec 02 21:09:30 2024,975,-16.518,-16.518,-1.405,-1.405,-6.327,12.922,5.148,2.492,13.909,5.288,3.831,12.414,4.777,11.153,8.055,2.108
Mon Dec 02 21:09:30 2024,980,-16.502,-16.502,-1.358,-1.358,-6.434,12.698,5.136,2.482,13.916,5.336,3.828,12.470,4.826,11.109,8.120,2.153
Mon Dec 02 21:09:30 2024,985,-16.486,-16.486,-1.307,-1.307,-6.547,12.452,5.124,2.470,13.923,5.387,3.825,12.532,4.880,11.061,8.191,2.202
Mon Dec 02 21:09:30 2024,990,-16.489,-16.489,-1.288,-1.288,-6.592,12.349,5.052,2.526,14.079,5.393,3.863,12.581,4.836,11.046,8.202,2.190
Mon Dec 02 21:09:30 2024,995,-16.495,-16.495,-1.271,-1.271,-6.630,12.260,4.969,2.594,14.258,5.392,3.908,12.629,4.779,11.033,8.206,2.171
Mon Dec 02 21:09:31 2024,0,-16.492,-16.492,-1.268,-1.268,-6.634,12.233,4.956,2.691,14.373,5.439,3.971,12.663,4.773,11.057,8.194,2.171
Mon Dec 02 21:09:31 2024,5,-16.476,-16.476,-1.282,-1.282,-6.591,12.291,5.035,2.820,14.399,5.547,4.052,12.674,4.837,11.128,8.162,2.197
Mon Dec 02 21:09:31 2024,10,-16.462,-16.462,-1.288,-1.288,-6.552,12.340,5.097,2.958,14.432,5.644,4.139,12.676,4.882,11.200,8.124,2.206
Mon Dec 02 21:09:31 2024,15,-16.464,-16.464,-1.243,-1.243,-6.570,12.286,5.000,3.016,14.507,5.583,4.171,12.627,4.775,11.209,8.098,2.103
Mon Dec 02 21:09:31 2024,20,-16.468,-16.468,-1.185,-1.185,-6.598,12.209,4.866,3.070,14.594,5.492,4.200,12.564,4.630,11.210,8.070,1.971
Mon Dec 02 21:09:31 2024,25,-16.445,-16.445,-1.175,-1.175,-6.620,12.163,4.786,3.215,14.623,5.450,4.269,12.458,4.524,11.199,8.045,1.859
Mon Dec 02 21:09:31 2024,30,-16.398,-16.398,-1.224,-1.224,-6.631,12.168,4.788,3.422,14.570,5.479,4.366,12.332,4.494,11.178,8.031,1.801
Mon Dec 02 21:09:31 2024,35,-16.355,-16.355,-1.256,-1.256,-6.622,12.195,4.788,3.613,14.516,5.503,4.462,12.211,4.460,11.157,8.016,1.746
Mon Dec 02 21:09:31 2024,40,-16.331,-16.331,-1.176,-1.176,-6.462,12.426,4.772,3.794,14.477,5.503,4.610,12.053,4.366,11.137,7.996,1.680
Mon Dec 02 21:09:31 2024,45,-16.312,-16.312,-1.074,-1.074,-6.272,12.696,4.754,3.968,14.436,5.497,4.767,11.889,4.262,11.116,7.975,1.616
Mon Dec 02 21:09:31 2024,50,-16.263,-16.263,-1.072,-1.072,-6.139,12.869,4.768,4.104,14.414,5.555,4.856,11.745,4.199,11.106,7.926,1.555
Mon Dec 02 21:09:31 2024,55,-16.191,-16.191,-1.135,-1.135,-6.040,12.982,4.804,4.219,14.404,5.658,4.904,11.608,4.160,11.104,7.855,1.497
Mon Dec 02 21:09:31 2024,60,-16.119,-16.119,-1.144,-1.144,-5.891,13.125,4.850,4.350,14.356,5.774,4.966,11.437,4.136,11.098,7.768,1.459
Mon Dec 02 21:09:31 2024,65,-16.073,-16.073,-1.070,-1.070,-5.726,13.258,4.896,4.459,14.277,5.868,5.026,11.279,4.142,11.087,7.690,1.452
Mon Dec 02 21:09:31 2024,70,-16.024,-16.024,-0.936,-0.936,-5.501,13.425,4.954,4.590,14.157,5.980,5.105,11.077,4.162,11.073,7.590,1.458
Mon Dec 02 21:09:31 2024,75,-15.931,-15.931,-0.922,-0.922,-5.316,13.605,4.950,4.756,14.180,6.107,5.140,11.015,4.128,11.173,7.465,1.420
Mon Dec 02 21:09:31 2024,80,-15.804,-15.804,-1.002,-1.002,-5.162,13.795,4.898,4.948,14.287,6.244,5.140,11.064,4.050,11.363,7.325,1.360
Mon Dec 02 21:09:31 2024,85,-15.687,-15.687,-1.067,-1.067,-5.010,13.978,4.855,5.130,14.336,6.375,5.145,11.096,3.980,11.536,7.190,1.319
Mon Dec 02 21:09:31 2024,90,-15.694,-15.694,-0.945,-0.945,-4.810,14.140,4.926,5.362,14.272,6.581,5.106,11.113,4.054,11.667,6.987,1.321
Mon Dec 02 21:09:31 2024,95,-15.692,-15.692,-0.846,-0.846,-4.623,14.295,4.984,5.578,14.185,6.771,5.073,11.131,4.113,11.795,6.799,1.321
Mon Dec 02 21:09:31 2024,100,-15.644,-15.644,-0.847,-0.847,-4.467,14.424,4.983,5.841,14.055,7.011,5.072,11.117,4.137,12.120,6.424,1.284
Mon Dec 02 21:09:31 2024,105,-15.582,-15.582,-0.894,-0.894,-4.344,14.522,4.956,6.092,13.881,7.244,5.086,11.092,4.142,12.492,6.014,1.248
Mon Dec 02 21:09:31 2024,110,-15.561,-15.561,-0.912,-0.912,-4.249,14.573,4.944,6.375,13.625,7.501,5.079,11.057,4.161,12.817,5.626,1.232
Mon Dec 02 21:09:31 2024,115,-15.615,-15.615,-0.874,-0.874,-4.193,14.535,4.965,6.760,13.220,7.850,5.028,10.998,4.210,13.100,5.222,1.242
Mon Dec 02 21:09:31 2024,120,-15.676,-15.676,-0.833,-0.833,-4.137,14.486,4.989,7.175,12.737,8.223,4.970,10.934,4.263,13.395,4.795,1.265
Mon Dec 02 21:09:31 2024,125,-15.656,-15.656,-1.008,-1.008,-4.137,14.532,5.079,7.508,22.698,8.642,4.946,11.127,4.473,13.781,4.405,1.303
Mon Dec 02 21:09:31 2024,130,-15.625,-15.625,-1.216,-1.216,-4.147,14.592,5.176,7.823,28.242,9.060,4.926,11.355,4.706,14.176,4.026,1.348
Mon Dec 02 21:09:31 2024,135,-15.593,-15.593,-1.430,-1.430,-4.156,14.651,5.277,8.143,28.800,9.484,4.907,11.586,4.945,14.581,3.636,1.402
Mon Dec 02 21:09:31 2024,140,-15.640,-15.640,-1.330,-1.330,-4.120,14.592,5.355,8.497,29.328,9.940,4.660,11.602,4.986,14.710,3.275,1.398
Mon Dec 02 21:09:31 2024,145,-15.663,-15.663,-1.301,-1.301,-4.101,14.563,5.417,8.759,29.739,10.276,4.509,11.641,5.044,14.844,2.998,1.407
Mon Dec 02 21:09:31 2024,150,-15.730,-15.730,-1.224,-1.224,-4.143,14.546,5.488,8.846,30.073,10.597,4.313,11.903,5.115,15.032,2.749,1.466
Mon Dec 02 21:09:31 2024,155,-15.832,-15.832,-1.110,-1.110,-4.233,14.536,5.568,8.803,30.372,10.915,4.080,12.340,5.195,15.266,2.516,1.565
Mon Dec 02 21:09:31 2024,160,-15.904,-15.904,-1.069,-1.069,-4.213,14.543,5.706,8.743,30.630,11.407,3.868,12.681,5.331,15.401,2.293,1.616
Mon Dec 02 21:09:31 2024,165,-15.950,-15.950,-1.078,-1.078,-4.121,14.564,5.873,8.649,30.803,11.970,3.692,12.938,5.494,15.451,2.111,1.630
Mon Dec 02 21:09:31 2024,170,-15.994,-15.994,-1.076,-1.076,-4.012,14.589,6.062,8.536,31.059,12.646,3.499,13.269,5.691,15.539,1.905,1.654
Mon Dec 02 21:09:31 2024,175,-15.998,-15.998,-1.023,-1.023,-3.895,14.638,6.230,8.406,31.480,13.378,3.356,13.734,5.924,15.744,1.743,1.704
Mon Dec 02 21:09:31 2024,180,-15.995,-15.995,-0.957,-0.957,-3.769,14.694,6.403,8.256,32.002,14.178,3.211,14.253,6.175,15.989,1.580,1.765
Mon Dec 02 21:09:31 2024,185,-15.995,-15.995,-0.842,-0.842,-3.565,14.856,6.587,8.320,32.809,15.353,3.109,14.671,6.447,16.240,1.399,1.854
Mon Dec 02 21:09:31 2024,190,-15.999,-15.999,-0.683,-0.683,-3.251,15.157,6.799,8.651,34.004,17.094,3.053,15.004,6.772,16.516,1.180,1.988
Mon Dec 02 21:09:31 2024,195,-16.002,-16.002,-0.600,0.600,-2.986,15.407,6.987,8.910,35.048,18.624,2.996,15.300,7.050,16.758,0.990,2.106
Mon Dec 02 21:09:31 2024,200,-15.844,-15.844,-0.589,0.589,-2.515,15.795,7.175,9.271,36.521,21.088,2.919,16.113,7.123,17.127,0.749,2.286
Mon Dec 02 21:09:31 2024,205,-15.690,-15.690,-0.581,0.002,-2.069,16.148,7.354,9.602,37.940,23.529,2.838,16.766,7.171,17.473,0.520,2.456
Mon Dec 02 21:09:31 2024,210,-15.646,-15.646,-0.557,0.173,-1.842,16.177,7.410,9.849,39.452,25.615,2.645,17.306,7.001,17.764,0.296,2.616
Mon Dec 02 21:09:31 2024,215,-15.718,-15.718,-0.525,0.525,-1.864,15.881,7.325,9.981,40.892,27.087,2.359,22.643,6.632,17.967,0.102,2.787
Mon Dec 02 21:09:31 2024,220,-15.788,-15.788,-0.500,0.500,-1.857,15.568,7.237,10.132,42.616,28.984,2.019,23.481,6.224,18.214,-0.129,3.058
Mon Dec 02 21:09:31 2024,225,-16.066,-16.066,-0.558,0.558,-2.748,14.869,7.440,9.001,41.564,27.875,1.422,24.739,6.071,18.107,-0.201,2.882
Mon Dec 02 21:09:31 2024,230,-16.268,-16.268,-0.637,0.637,-3.373,14.319,7.578,8.200,41.006,27.220,0.986,25.944,5.938,18.055,-0.276,2.841
Mon Dec 02 21:09:31 2024,235,-16.511,-16.511,-0.930,0.930,-3.803,14.221,7.863,8.156,40.000,26.430,0.234,27.763,6.454,18.053,-0.313,2.572
Mon Dec 02 21:09:31 2024,240,-16.758,-16.758,-1.363,1.363,-4.039,14.384,8.174,8.659,38.916,25.591,-0.623,29.655,7.290,18.085,-0.319,2.264
Mon Dec 02 21:09:31 2024,245,-16.928,-16.928,-1.758,1.758,-4.163,14.589,8.518,9.916,37.921,24.716,-1.394,31.364,8.387,18.066,-0.332,2.002
Mon Dec 02 21:09:31 2024,250,-16.814,-16.814,-1.908,1.908,-3.929,14.989,8.926,12.994,37.729,24.143,-2.027,32.247,10.095,17.904,-0.361,1.860
Mon Dec 02 21:09:31 2024,255,-16.711,-16.711,-2.045,2.045,-3.715,15.350,9.293,15.832,38.447,23.593,-2.638,33.103,11.776,17.758,-0.399,2.014
Mon Dec 02 21:09:31 2024,260,-16.511,-16.511,-1.264,2.199,-3.436,15.825,9.725,17.768,39.458,23.624,-3.119,33.723,13.266,17.576,-0.690,2.151
Mon Dec 02 21:09:31 2024,265,-16.267,-16.267,2.364,2.364,-3.124,16.350,10.199,19.453,26.605,23.866,-3.575,34.291,14.764,17.380,-1.113,2.276
Mon Dec 02 21:09:31 2024,270,-16.075,-16.075,2.562,2.562,-2.836,16.846,10.728,20.732,-1.598,24.308,-4.018,34.838,16.036,17.208,-1.445,2.423
Mon Dec 02 21:09:31 2024,275,-16.010,-16.010,2.844,2.844,-2.609,17.278,11.404,21.108,-2.184,25.214,-4.422,35.295,16.692,17.078,-1.468,2.528
Mon Dec 02 21:09:31 2024,280,-15.955,-15.955,3.085,3.085,-2.416,22.432,12.006,21.454,42.713,26.003,-4.783,35.704,17.296,16.969,-1.505,2.621
Mon Dec 02 21:09:31 2024,285,-16.047,-16.047,3.327,3.327,-2.362,22.395,12.835,21.995,43.693,27.071,-5.026,36.098,17.714,16.738,-1.449,2.475
Mon Dec 02 21:09:31 2024,290,-16.172,-16.172,3.543,3.543,-2.352,22.555,13.653,22.513,44.717,28.119,-5.214,36.451,18.054,16.502,-1.379,2.295
Mon Dec 02 21:09:31 2024,295,-16.283,-16.283,3.730,3.730,-2.345,22.780,14.383,22.956,45.636,29.048,-5.382,36.764,18.364,16.296,-1.323,2.143
Mon Dec 02 21:09:31 2024,300,-16.611,-16.611,3.692,3.692,-2.577,23.623,16.061,23.383,46.971,30.720,-5.625,37.286,19.193,15.943,-1.094,2.186
Mon Dec 02 21:09:31 2024,305,-16.828,-16.828,-3.707,3.707,-2.715,24.248,17.222,23.704,47.978,31.903,-5.800,37.654,19.760,15.700,-0.954,2.184
Mon Dec 02 21:09:31 2024,310,-17.207,-17.207,-3.945,3.945,-2.625,24.651,17.880,23.844,49.281,33.122,-5.848,38.347,20.506,15.544,-0.641,2.319
Mon Dec 02 21:09:31 2024,315,-17.556,-17.556,4.177,4.177,-2.518,24.970,18.336,23.894,50.439,34.151,-5.874,38.981,21.177,15.427,-0.355,2.452
Mon Dec 02 21:09:31 2024,320,-17.832,-17.832,4.322,4.322,-2.312,25.121,18.847,23.837,51.519,35.344,-6.011,39.713,21.995,15.377,-0.123,2.663
Mon Dec 02 21:09:31 2024,325,-17.862,-17.862,4.207,4.207,-1.768,24.695,19.510,23.523,52.281,37.043,-6.480,40.736,23.219,15.540,-0.050,3.127
Mon Dec 02 21:09:31 2024,330,-17.927,-17.927,4.136,4.136,-1.318,24.428,20.101,23.236,53.042,38.570,-6.885,41.629,24.314,15.652,0.037,3.525
Mon Dec 02 21:09:31 2024,335,-17.742,-17.742,4.009,4.009,-0.929,24.242,20.437,23.005,53.462,39.924,-7.045,42.854,25.698,15.551,0.202,3.823
Mon Dec 02 21:09:31 2024,340,-17.536,-17.536,3.871,3.871,-0.509,24.074,20.798,22.748,53.926,41.464,-7.225,44.214,27.312,15.438,0.383,4.150
Mon Dec 02 21:09:31 2024,345,-17.330,-17.330,3.759,3.759,-0.329,24.043,20.904,22.413,54.437,42.810,-7.325,45.574,28.794,15.362,0.521,4.312
Mon Dec 02 21:09:31 2024,350,-17.151,-17.151,3.568,3.650,-0.266,24.294,20.994,21.959,55.474,44.752,-7.016,47.048,30.849,15.307,0.685,4.291
Mon Dec 02 21:09:31 2024,355,-17.057,-17.057,3.254,3.539,-0.112,24.843,21.357,21.508,57.111,47.561,-6.181,48.380,33.625,15.255,0.911,4.176
Mon Dec 02 21:09:31 2024,360,-16.963,-16.963,2.940,3.429,0.042,25.391,21.721,21.056,58.749,50.371,-5.346,49.712,36.401,15.204,1.136,4.061
Mon Dec 02 21:09:31 2024,365,-16.870,-16.870,2.626,3.318,0.196,25.940,22.085,20.604,60.386,53.180,-4.511,51.043,39.176,15.152,1.362,3.946
Mon Dec 02 21:09:31 2024,370,-16.776,-16.776,2.312,3.208,0.349,26.488,22.449,20.152,62.023,55.989,-3.676,52.375,41.952,15.100,1.588,3.832
Mon Dec 02 21:09:31 2024,375,-16.682,-16.682,1.998,3.097,0.503,27.036,22.812,19.701,63.660,58.799,-2.841,53.707,44.728,15.048,1.813,3.717
Mon Dec 02 21:09:31 2024,380,-16.589,-16.589,1.684,2.987,0.657,27.585,23.176,19.249,65.298,61.608,-2.006,55.039,47.503,14.996,2.039,3.602
Mon Dec 02 21:09:31 2024,385,-16.495,-16.495,1.370,2.876,0.811,28.133,23.540,18.797,66.935,64.418,-1.171,56.371,50.279,14.944,2.264,3.487
Mon Dec 02 21:09:31 2024,390,-16.402,-16.402,1.056,2.766,0.964,28.681,23.904,18.346,68.572,67.227,-0.336,57.703,53.055,14.893,2.490,3.372
Mon Dec 02 21:09:31 2024,395,-16.308,-16.308,0.742,2.655,1.118,29.230,24.268,17.894,70.210,70.037,0.500,59.035,55.830,14.841,2.715,3.257
Mon Dec 02 21:09:31 2024,400,-16.214,-16.214,0.428,2.545,1.272,29.778,24.631,17.442,71.847,72.846,1.335,60.367,58.606,14.789,2.941,3.142
Mon Dec 02 21:09:31 2024,405,-16.121,-16.121,0.113,2.434,1.426,30.327,24.995,16.990,73.484,75.655,2.170,61.699,61.382,14.737,3.167,3.027
Mon Dec 02 21:09:31 2024,410,-16.027,-16.027,-0.201,2.324,1.579,30.875,25.359,16.539,75.122,78.465,3.005,63.031,64.158,14.685,3.392,2.912
Mon Dec 02 21:09:31 2024,415,-15.933,-15.933,-0.515,2.213,1.733,31.423,25.723,16.087,76.759,81.274,3.840,64.362,66.933,14.633,3.618,2.798
Mon Dec 02 21:09:31 2024,420,-15.840,-15.840,-0.829,2.103,1.887,31.972,26.087,15.635,78.396,84.084,4.675,65.694,69.709,14.582,3.843,2.683
Mon Dec 02 21:09:31 2024,425,-15.746,-15.746,-1.143,1.992,2.041,32.520,26.450,15.183,80.033,86.893,5.510,67.026,72.485,14.530,4.069,2.568
Mon Dec 02 21:09:31 2024,430,-15.653,-15.653,-1.457,1.882,2.194,33.069,26.814,14.732,81.671,89.703,6.345,68.358,75.260,14.478,4.294,2.453
Mon Dec 02 21:09:31 2024,435,-15.559,-15.559,-1.771,1.771,2.348,33.617,27.178,14.280,83.308,92.512,7.180,69.690,78.036,14.426,4.520,2.338
Mon Dec 02 21:09:31 2024,440,-15.510,-15.510,-1.636,1.636,2.469,34.196,27.584,15.174,85.770,95.082,8.177,71.732,82.341,14.415,4.618,2.384
Mon Dec 02 21:09:31 2024,445,-15.496,-15.496,-1.474,1.474,2.532,34.894,28.142,16.083,87.562,96.642,9.328,73.085,85.254,14.385,4.726,2.556
Mon Dec 02 21:09:31 2024,450,-15.492,-15.492,-1.328,1.328,2.581,35.530,28.654,16.968,89.083,97.822,10.574,74.231,87.518,14.356,4.822,2.734
Mon Dec 02 21:09:31 2024,455,-15.465,-15.465,-1.222,1.222,2.671,36.148,29.181,17.938,90.583,98.893,11.852,75.321,89.582,14.356,4.897,2.915
Mon Dec 02 21:09:31 2024,460,-15.381,-15.381,-1.206,1.206,2.842,36.700,29.714,18.917,91.942,99.820,12.838,76.195,91.380,14.412,4.926,3.080
Mon Dec 02 21:09:31 2024,465,-15.301,-15.301,-1.192,1.192,3.005,37.229,30.226,19.926,93.255,100.632,13.830,77.045,93.009,14.465,4.950,3.240
Mon Dec 02 21:09:31 2024,470,-15.276,-15.276,-1.076,1.076,3.022,37.686,30.674,20.671,94.184,101.260,14.730,77.362,94.213,14.368,5.045,3.277
Mon Dec 02 21:09:31 2024,475,-15.260,-15.260,-0.955,0.955,3.025,38.117,31.097,21.384,95.044,101.826,15.610,77.622,95.305,14.260,5.144,3.305
Mon Dec 02 21:09:31 2024,480,-15.265,-15.265,-0.878,0.878,2.977,38.548,31.577,22.449,96.269,102.247,16.612,78.040,96.583,14.127,5.295,3.387
Mon Dec 02 21:09:31 2024,485,-15.296,-15.296,-0.869,0.869,2.851,39.019,32.193,24.250,98.195,102.438,17.874,78.770,98.266,13.949,5.537,3.559
Mon Dec 02 21:09:31 2024,490,-15.318,-15.318,-0.864,0.864,2.766,39.343,32.620,25.597,99.529,102.503,18.764,79.278,99.360,13.827,5.701,3.680
Mon Dec 02 21:09:31 2024,495,-15.354,-15.354,-0.778,0.778,2.642,39.865,33.120,-26.366,100.220,102.455,19.554,79.617,100.085,13.576,5.997,3.740
Mon Dec 02 21:09:31 2024,500,-15.397,-15.397,-0.684,0.684,2.525,40.402,33.618,-27.053,100.791,102.378,20.313,79.921,100.721,13.314,6.302,3.792
Mon Dec 02 21:09:31 2024,505,-15.409,-15.409,-0.653,0.653,2.506,40.964,34.146,-27.339,100.944,102.109,20.597,80.116,101.036,13.164,6.497,3.837
Mon Dec 02 21:09:31 2024,510,-15.395,-15.395,-0.673,0.673,2.552,41.407,34.574,-27.291,100.783,101.779,20.492,80.191,101.072,13.122,6.573,3.865
Mon Dec 02 21:09:31 2024,515,-15.383,-15.383,-0.673,0.673,2.602,41.964,35.171,-27.255,100.624,101.464,20.504,80.258,100.973,13.029,6.696,3.894
Mon Dec 02 21:09:31 2024,520,-15.386,-15.386,-0.618,0.618,2.630,42.522,35.889,-27.214,100.556,101.379,20.816,80.273,100.586,12.850,6.879,3.907
Mon Dec 02 21:09:31 2024,525,-15.394,-15.394,-0.560,0.560,2.659,43.112,36.688,-27.169,100.508,101.350,21.225,80.274,100.104,12.638,7.089,3.917
Mon Dec 02 21:09:31 2024,530,-15.385,-15.385,-0.566,0.566,2.741,43.704,37.381,-27.028,100.318,101.252,21.409,80.213,99.883,12.572,7.163,3.903
Mon Dec 02 21:09:31 2024,535,-15.362,-15.362,-0.603,0.603,2.874,44.453,38.206,-26.809,100.002,101.088,21.518,80.101,99.749,12.567,7.183,3.874
